399.69498,1.42170
399.45391,1.40377
399.21284,1.39091
398.97177,1.39132
398.73070,1.40100
398.48963,1.40765
398.24856,1.40632
398.00749,1.40215
397.76642,1.39988
397.52535,1.40104
397.28428,1.40705
397.04321,1.41680
396.80214,1.42549
396.56107,1.42885
396.32000,1.42432
396.07892,1.41118
395.83785,1.39293
395.59678,1.37634
395.35571,1.36766
395.11464,1.36947
394.87357,1.37850
394.63250,1.38753
394.39143,1.39167
394.15036,1.39124
393.90929,1.38928
393.66822,1.38850
393.42715,1.38937
393.18608,1.38927
392.94501,1.38464
392.70394,1.37718
392.46287,1.37339
392.22180,1.37612
391.98073,1.38075
391.73965,1.38086
391.49858,1.37640
391.25751,1.37143
391.01644,1.36633
390.77537,1.35922
390.53430,1.35112
390.29323,1.34482
390.05216,1.34167
389.81109,1.34071
389.57002,1.34058
389.32895,1.34235
389.08788,1.34732
388.84681,1.35115
388.60574,1.34646
388.36467,1.33356
388.12360,1.32299
387.88253,1.32341
387.64146,1.32833
387.40038,1.32158
387.15931,1.30083
386.91824,1.28243
386.67717,1.28018
386.43610,1.29061
386.19503,1.29654
385.95396,1.28630
385.71289,1.26791
385.47182,1.25699
385.23075,1.25701
384.98968,1.25681
384.74861,1.24652
384.50754,1.23074
384.26647,1.22047
384.02540,1.22005
383.78433,1.22626
383.54326,1.23277
383.30219,1.23390
383.06111,1.22649
382.82004,1.21137
382.57897,1.19245
382.33790,1.17448
382.09683,1.16386
381.85576,1.16636
381.61469,1.17951
381.37362,1.19061
381.13255,1.18723
380.89148,1.16832
380.65041,1.14341
380.40934,1.12392
380.16827,1.11662
379.92720,1.11976
379.68613,1.12429
379.44506,1.12463
379.20399,1.12464
378.96292,1.12995
378.72184,1.14147
378.48077,1.15618
378.23970,1.16998
377.99863,1.18112
377.75756,1.19174
377.51649,1.20393
377.27542,1.21573
377.03435,1.22305
376.79328,1.22461
376.55221,1.22374
376.31114,1.22578
376.07007,1.23359
375.82900,1.24507
375.58793,1.25450
375.34686,1.25841
375.10579,1.25838
374.86472,1.25834
374.62365,1.26294
374.38257,1.27513
374.14150,1.29092
373.90043,1.30086
373.65936,1.30259
373.41829,1.30369
373.17722,1.30755
372.93615,1.30782
372.69508,1.30039
372.45401,1.29064
372.21294,1.28570
371.97187,1.28703
371.73080,1.29149
371.48973,1.29482
371.24866,1.29350
371.00759,1.28718
370.76652,1.28054
370.52545,1.27960
370.28437,1.28425
370.04330,1.28724
369.80223,1.28312
369.56116,1.27527
369.32009,1.26999
369.07902,1.26730
368.83795,1.26213
368.59688,1.25214
368.35581,1.24079
368.11474,1.23415
367.87367,1.23639
367.63260,1.24648
367.39153,1.25781
367.15046,1.26268
366.90939,1.25878
366.66832,1.25032
366.42725,1.24220
366.18618,1.23524
365.94510,1.22862
365.70403,1.22415
365.46296,1.22402
365.22189,1.22582
364.98082,1.22441
364.73975,1.21793
364.49868,1.20848
364.25761,1.19891
364.01654,1.19187
363.77547,1.18965
363.53440,1.19207
363.29333,1.19572
363.05226,1.19724
362.81119,1.19591
362.57012,1.19293
362.32905,1.18960
362.08798,1.18599
361.84691,1.18085
361.60583,1.17361
361.36476,1.16592
361.12369,1.16026
360.88262,1.15799
360.64155,1.15913
360.40048,1.16205
360.15941,1.16341
359.91834,1.16074
359.67727,1.15478
359.43620,1.14850
359.19513,1.14475
358.95406,1.14444
358.71299,1.14675
358.47192,1.14997
358.23085,1.15182
357.98978,1.15042
357.74871,1.14669
357.50764,1.14480
357.26656,1.14809
357.02549,1.15434
356.78442,1.15682
356.54335,1.15141
356.30228,1.14132
356.06121,1.13278
355.82014,1.12817
355.57907,1.12585
355.33800,1.12491
355.09693,1.12581
354.85586,1.12710
354.61479,1.12688
354.37372,1.12647
354.13265,1.12807
353.89158,1.13056
353.65051,1.13171
353.40944,1.13181
353.16837,1.13190
352.92729,1.13122
352.68622,1.12881
352.44515,1.12555
352.20408,1.12332
351.96301,1.12273
351.72194,1.12301
351.48087,1.12397
351.23980,1.12637
350.99873,1.12899
350.75766,1.12854
350.51659,1.12464
350.27552,1.12098
350.03445,1.12001
349.79338,1.12019
349.55231,1.11939
349.31124,1.11813
349.07017,1.11777
348.82910,1.11884
348.58802,1.12165
348.34695,1.12582
348.10588,1.12864
347.86481,1.12678
347.62374,1.12124
347.38267,1.11795
347.14160,1.12167
346.90053,1.13155
346.65946,1.14305
346.41839,1.15196
346.17732,1.15576
345.93625,1.15335
345.69518,1.14537
345.45411,1.13493
345.21304,1.12722
344.97197,1.12655
344.73090,1.13256
344.48983,1.14081
344.24875,1.14793
344.00768,1.15373
343.76661,1.15765
343.52554,1.15835
343.28447,1.15834
343.04340,1.16217
342.80233,1.16974
342.56126,1.17600
342.32019,1.17778
342.07912,1.17840
341.83805,1.18323
341.59698,1.19267
341.35591,1.20245
341.11484,1.21044
340.87377,1.21869
340.63270,1.22829
340.39163,1.23767
340.15056,1.24576
339.90948,1.25107
339.66841,1.24946
339.42734,1.24000
339.18627,1.22997
338.94520,1.22719
338.70413,1.23125
338.46306,1.23705
338.22199,1.24241
337.98092,1.24691
337.73985,1.24768
337.49878,1.24308
337.25771,1.23811
337.01664,1.23906
336.77557,1.24417
336.53450,1.24552
336.29343,1.23998
336.05236,1.23186
335.81129,1.22672
335.57021,1.22686
335.32914,1.23056
335.08807,1.23351
334.84700,1.23293
334.60593,1.23031
334.36486,1.22618
334.12379,1.21739
333.88272,1.20512
333.64165,1.19707
333.40058,1.19678
333.15951,1.19844
332.91844,1.19659
332.67737,1.19526
332.43630,1.20028
332.19523,1.20721
331.95416,1.20513
331.71309,1.19150
331.47202,1.17540
331.23094,1.16578
330.98987,1.16210
330.74880,1.15729
330.50773,1.14977
330.26666,1.14711
330.02559,1.15375
329.78452,1.16236
329.54345,1.16238
329.30238,1.15351
329.06131,1.14378
328.82024,1.13743
328.57917,1.13132
328.33810,1.12151
328.09703,1.10982
327.85596,1.10350
327.61489,1.10903
327.37382,1.12582
327.13275,1.14445
326.89167,1.15419
326.65060,1.15345
326.40953,1.14778
326.16846,1.14003
325.92739,1.12988
325.68632,1.12056
325.44525,1.11807
325.20418,1.12337
324.96311,1.13025
324.72204,1.13221
324.48097,1.12894
324.23990,1.12415
323.99883,1.12050
323.75776,1.11950
323.51669,1.12355
323.27562,1.13282
323.03455,1.14274
322.79348,1.14896
322.55240,1.15167
322.31133,1.15130
322.07026,1.14553
321.82919,1.13522
321.58812,1.12782
321.34705,1.12971
321.10598,1.13955
320.86491,1.15168
320.62384,1.16134
320.38277,1.16491
320.14170,1.16035
319.90063,1.15163
319.65956,1.14605
319.41849,1.14493
319.17742,1.14426
318.93635,1.14378
318.69528,1.14715
318.45421,1.15314
318.21313,1.15630
317.97206,1.15817
317.73099,1.16541
317.48992,1.17731
317.24885,1.18513
317.00778,1.18335
316.76671,1.17483
316.52564,1.16461
316.28457,1.15647
316.04350,1.15437
315.80243,1.16035
315.56136,1.17120
315.32029,1.18035
315.07922,1.18396
314.83815,1.18408
314.59708,1.18486
314.35601,1.18681
314.11494,1.18687
313.87386,1.18483
313.63279,1.18531
313.39172,1.19049
313.15065,1.19545
312.90958,1.19448
312.66851,1.18978
312.42744,1.18969
312.18637,1.19885
311.94530,1.21226
311.70423,1.21992
311.46316,1.21934
311.22209,1.21828
310.98102,1.22240
310.73995,1.22830
310.49888,1.23079
310.25781,1.23083
310.01674,1.23234
309.77567,1.23491
309.53459,1.23421
309.29352,1.22886
309.05245,1.22293
308.81138,1.22172
308.57031,1.22625
308.32924,1.23270
308.08817,1.23776
307.84710,1.24117
307.60603,1.24135
307.36496,1.23643
307.12389,1.23145
306.88282,1.23417
306.64175,1.24334
306.40068,1.25010
306.15961,1.25119
305.91854,1.25139
305.67747,1.25352
305.43640,1.25456
305.19532,1.25145
304.95425,1.24629
304.71318,1.24388
304.47211,1.24577
304.23104,1.24852
303.98997,1.24730
303.74890,1.23931
303.50783,1.22594
303.26676,1.21406
303.02569,1.21178
302.78462,1.22059
302.54355,1.23251
302.30248,1.23732
302.06141,1.23156
301.82034,1.21963
301.57927,1.20885
301.33820,1.20405
301.09713,1.20558
300.85605,1.20994
300.61498,1.21137
300.37391,1.20622
300.13284,1.19820
299.89177,1.19478
299.65070,1.19804
299.40963,1.20322
299.16856,1.20495
298.92749,1.20076
298.68642,1.19046
298.44535,1.17726
298.20428,1.16865
297.96321,1.17027
297.72214,1.17811
297.48107,1.18144
297.24000,1.17586
296.99893,1.16841
296.75786,1.16714
296.51678,1.17172
296.27571,1.17614
296.03464,1.17644
295.79357,1.17253
295.55250,1.16528
295.31143,1.15627
295.07036,1.14893
294.82929,1.14516
294.58822,1.14205
294.34715,1.13635
294.10608,1.12974
293.86501,1.12561
293.62394,1.12391
293.38287,1.12224
293.14180,1.11905
292.90073,1.11398
292.65966,1.10776
292.41859,1.10235
292.17751,1.09910
291.93644,1.09728
291.69537,1.09588
291.45430,1.09562
291.21323,1.09720
290.97216,1.09884
290.73109,1.09761
290.49002,1.09233
290.24895,1.08490
290.00788,1.07926
289.76681,1.07851
289.52574,1.08188
289.28467,1.08524
289.04360,1.08557
288.80253,1.08370
288.56146,1.08175
288.32039,1.07986
288.07932,1.07669
287.83824,1.07207
287.59717,1.06742
287.35610,1.06373
287.11503,1.06080
286.87396,1.05826
286.63289,1.05668
286.39182,1.05632
286.15075,1.05599
285.90968,1.05425
285.66861,1.05171
285.42754,1.05047
285.18647,1.05105
284.94540,1.05118
284.70433,1.04868
284.46326,1.04449
284.22219,1.04145
283.98112,1.04102
283.74005,1.04244
283.49897,1.04428
283.25790,1.04539
283.01683,1.04472
282.77576,1.04200
282.53469,1.03859
282.29362,1.03640
282.05255,1.03622
281.81148,1.03754
281.57041,1.03946
281.32934,1.04103
281.08827,1.04114
280.84720,1.03937
280.60613,1.03717
280.36506,1.03693
280.12399,1.03963
279.88292,1.04387
279.64185,1.04730
279.40078,1.04843
279.15970,1.04725
278.91863,1.04460
278.67756,1.04091
278.43649,1.03641
278.19542,1.03302
277.95435,1.03383
277.71328,1.03906
277.47221,1.04491
277.23114,1.04741
276.99007,1.04590
276.74900,1.04241
276.50793,1.03940
276.26686,1.03845
276.02579,1.03911
275.78472,1.03896
275.54365,1.03618
275.30258,1.03174
275.06151,1.02837
274.82043,1.02815
274.57936,1.03143
274.33829,1.03709
274.09722,1.04334
273.85615,1.04849
273.61508,1.05111
273.37401,1.05007
273.13294,1.04553
272.89187,1.04000
272.65080,1.03717
272.40973,1.03896
272.16866,1.04437
271.92759,1.05119
271.68652,1.05708
271.44545,1.05960
271.20438,1.05825
270.96331,1.05611
270.72224,1.05694
270.48116,1.06111
270.24009,1.06588
269.99902,1.06895
269.75795,1.07051
269.51688,1.07240
269.27581,1.07612
269.03474,1.08138
268.79367,1.08609
268.55260,1.08818
268.31153,1.08793
268.07046,1.08788
267.82939,1.09017
267.58832,1.09447
267.34725,1.09915
267.10618,1.10383
266.86511,1.10945
266.62404,1.11578
266.38297,1.12079
266.14189,1.12361
265.90082,1.12637
265.65975,1.13187
265.41868,1.14055
265.17761,1.15054
264.93654,1.15924
264.69547,1.16427
264.45440,1.16445
264.21333,1.16178
263.97226,1.16098
263.73119,1.16578
263.49012,1.17698
263.24905,1.19329
263.00798,1.21128
262.76691,1.22599
262.52584,1.23586
262.28477,1.24466
262.04370,1.25526
261.80262,1.26561
261.56155,1.27375
261.32048,1.28200
261.07941,1.29364
260.83834,1.30998
260.59727,1.33090
260.35620,1.35502
260.11513,1.37977
259.87406,1.40271
259.63299,1.42166
259.39192,1.43492
259.15085,1.44319
258.90978,1.45029
258.66871,1.46145
258.42764,1.48057
258.18657,1.50639
257.94550,1.53185
257.70443,1.55230
257.46335,1.57295
257.22228,1.60112
256.98121,1.63235
256.74014,1.65141
256.49907,1.65149
256.25800,1.64530
256.01693,1.64942
255.77586,1.66741
255.53479,1.68782
255.29372,1.69316
255.05265,1.67933
254.81158,1.66216
254.57051,1.65448
254.32944,1.65478
254.08837,1.65841
253.84730,1.66600
253.60623,1.67801
253.36516,1.68788
253.12408,1.68735
252.88301,1.67456
252.64194,1.65373
252.40087,1.63189
252.15980,1.61520
251.91873,1.60598
251.67766,1.60398
251.43659,1.60764
251.19552,1.61086
250.95445,1.60561
250.71338,1.59313
250.47231,1.58504
250.23124,1.58748
249.99017,1.59365
249.74910,1.59592
249.50803,1.59395
249.26696,1.58894
249.02589,1.58133
248.78481,1.57504
248.54374,1.57489
248.30267,1.58180
248.06160,1.59397
247.82053,1.60764
247.57946,1.61834
247.33839,1.62676
247.09732,1.63733
246.85625,1.64719
246.61518,1.64774
246.37411,1.63878
246.13304,1.62893
245.89197,1.62561
245.65090,1.63283
245.40983,1.65065
245.16876,1.67251
244.92769,1.69264
244.68661,1.71646
244.44554,1.75203
244.20447,1.79330
243.96340,1.82357
243.72233,1.83526
243.48126,1.83415
243.24019,1.82796
242.99912,1.82435
242.75805,1.83814
242.51698,1.87808
242.27591,1.91327
242.03484,1.89766
241.79377,1.83778
241.55270,1.76350
241.31163,1.69840
241.07056,1.64878
240.82949,1.60813
240.58842,1.56964
240.34734,1.53231
240.10627,1.49737
239.86520,1.46336
239.62413,1.42711
239.38306,1.38962
239.14199,1.35643
238.90092,1.32976
238.65985,1.30448
238.41878,1.27558
238.17771,1.24560
237.93664,1.22020
237.69557,1.20049
237.45450,1.18406
237.21343,1.16937
236.97236,1.15429
236.73129,1.13476
236.49022,1.11032
236.24915,1.08691
236.00807,1.07036
235.76700,1.06061
235.52593,1.05390
235.28486,1.04704
235.04379,1.03899
234.80272,1.03014
234.56165,1.02121
234.32058,1.01249
234.07951,1.00366
233.83844,0.99444
233.59737,0.98525
233.35630,0.97706
233.11523,0.97027
232.87416,0.96388
232.63309,0.95686
232.39202,0.94994
232.15095,0.94436
231.90988,0.93945
231.66880,0.93377
231.42773,0.92768
231.18666,0.92178
230.94559,0.91388
230.70452,0.90184
230.46345,0.88855
230.22238,0.88000
229.98131,0.87794
229.74024,0.87791
229.49917,0.87563
229.25810,0.87227
229.01703,0.87036
228.77596,0.86827
228.53489,0.86319
228.29382,0.85656
228.05275,0.85158
227.81168,0.84810
227.57061,0.84400
227.32953,0.83907
227.08846,0.83375
226.84739,0.82764
226.60632,0.82180
226.36525,0.81896
226.12418,0.81920
225.88311,0.81897
225.64204,0.81605
225.40097,0.81195
225.15990,0.80830
224.91883,0.80473
224.67776,0.80111
224.43669,0.79898
224.19562,0.79938
223.95455,0.80121
223.71348,0.80247
223.47241,0.80232
223.23134,0.80151
222.99026,0.80132
222.74919,0.80222
222.50812,0.80385
222.26705,0.80591
222.02598,0.80827
221.78491,0.81046
221.54384,0.81200
221.30277,0.81355
221.06170,0.81680
220.82063,0.82278
220.57956,0.83027
220.33849,0.83681
220.09742,0.84147
219.85635,0.84524
219.61528,0.84863
219.37421,0.85153
219.13314,0.85507
218.89207,0.86092
218.65099,0.86908
218.40992,0.87858
218.16885,0.88905
217.92778,0.89970
217.68671,0.90816
217.44564,0.91282
217.20457,0.91513
216.96350,0.91837
216.72243,0.92493
216.48136,0.93512
216.24029,0.94726
215.99922,0.95872
215.75815,0.96762
215.51708,0.97411
215.27601,0.97998
215.03494,0.98654
214.79387,0.99367
214.55280,1.00121
214.31172,1.00959
214.07065,1.01816
213.82958,1.02502
213.58851,1.02950
213.34744,1.03322
213.10637,1.03819
212.86530,1.04489
212.62423,1.05219
212.38316,1.05869
212.14209,1.06413
211.90102,1.06871
211.65995,1.07145
211.41888,1.07108
211.17781,1.06872
210.93674,1.06734
210.69567,1.06858
210.45460,1.07219
210.21353,1.07757
209.97245,1.08325
209.73138,1.08564
209.49031,1.08213
209.24924,1.07522
209.00817,1.07057
208.76710,1.07032
208.52603,1.07087
208.28496,1.06845
208.04389,1.06468
207.80282,1.06384
207.56175,1.06672
207.32068,1.06990
207.07961,1.06948
206.83854,1.06366
206.59747,1.05294
206.35640,1.04024
206.11533,1.02991
205.87426,1.02407
205.63318,1.02073
205.39211,1.01718
205.15104,1.01297
204.90997,1.00839
204.66890,1.00194
204.42783,0.99163
204.18676,0.97823
203.94569,0.96548
203.70462,0.95652
203.46355,0.95168
203.22248,0.94963
202.98141,0.94803
202.74034,0.94285
202.49927,0.93078
202.25820,0.91383
202.01713,0.89772
201.77606,0.88580
201.53499,0.87721
201.29391,0.86948
201.05284,0.86090
200.81177,0.85112
200.57070,0.84079
200.32963,0.83113
200.08856,0.82307
199.84749,0.81629
199.60642,0.80907
199.36535,0.79981
199.12428,0.78873
198.88321,0.77779
198.64214,0.76899
198.40107,0.76283
198.16000,0.75776
197.91893,0.75101
197.67786,0.74098
197.43679,0.72909
197.19572,0.71887
196.95464,0.71262
196.71357,0.70915
196.47250,0.70519
196.23143,0.69890
195.99036,0.69111
195.74929,0.68378
195.50822,0.67820
195.26715,0.67394
195.02608,0.66929
194.78501,0.66325
194.54394,0.65677
194.30287,0.65109
194.06180,0.64571
193.82073,0.63910
193.57966,0.63095
193.33859,0.62312
193.09752,0.61772
192.85645,0.61428
192.61537,0.61022
192.37430,0.60487
192.13323,0.60071
191.89216,0.59901
191.65109,0.59715
191.41002,0.59217
191.16895,0.58540
190.92788,0.58064
190.68681,0.57883
190.44574,0.57721
190.20467,0.57342
189.96360,0.56856
189.72253,0.56527
189.48146,0.56413
189.24039,0.56341
188.99932,0.56171
188.75825,0.55941
188.51718,0.55731
188.27610,0.55496
188.03503,0.55127
187.79396,0.54668
187.55289,0.54314
187.31182,0.54173
187.07075,0.54154
186.82968,0.54135
186.58861,0.54112
186.34754,0.54120
186.10647,0.54101
185.86540,0.53958
185.62433,0.53716
185.38326,0.53531
185.14219,0.53495
184.90112,0.53535
184.66005,0.53553
184.41898,0.53567
184.17791,0.53608
183.93683,0.53613
183.69576,0.53574
183.45469,0.53640
183.21362,0.53858
182.97255,0.54014
182.73148,0.53953
182.49041,0.53820
182.24934,0.53788
182.00827,0.53801
181.76720,0.53774
181.52613,0.53781
181.28506,0.53855
181.04399,0.53877
180.80292,0.53790
180.56185,0.53727
180.32078,0.53834
180.07971,0.54115
179.83864,0.54482
179.59756,0.54832
179.35649,0.55110
179.11542,0.55380
178.87435,0.55774
178.63328,0.56324
178.39221,0.56971
178.15114,0.57691
177.91007,0.58459
177.66900,0.59193
177.42793,0.59887
177.18686,0.60666
176.94579,0.61616
176.70472,0.62710
176.46365,0.63885
176.22258,0.65054
175.98151,0.66111
175.74044,0.67083
175.49937,0.68165
175.25829,0.69512
175.01722,0.71035
174.77615,0.72472
174.53508,0.73667
174.29401,0.74708
174.05294,0.75729
173.81187,0.76686
173.57080,0.77466
173.32973,0.78085
173.08866,0.78639
172.84759,0.79160
172.60652,0.79601
172.36545,0.79973
172.12438,0.80398
171.88331,0.80957
171.64224,0.81529
171.40117,0.81934
171.16010,0.82100
170.91902,0.81996
170.67795,0.81587
170.43688,0.80946
170.19581,0.80256
169.95474,0.79667
169.71367,0.79236
169.47260,0.78950
169.23153,0.78749
168.99046,0.78578
168.74939,0.78418
168.50832,0.78243
168.26725,0.78037
168.02618,0.77836
167.78511,0.77674
167.54404,0.77527
167.30297,0.77387
167.06190,0.77327
166.82083,0.77445
166.57975,0.77733
166.33868,0.78056
166.09761,0.78255
165.85654,0.78306
165.61547,0.78335
165.37440,0.78465
165.13333,0.78658
164.89226,0.78815
164.65119,0.78989
164.41012,0.79371
164.16905,0.80015
163.92798,0.80730
163.68691,0.81327
163.44584,0.81818
163.20477,0.82289
162.96370,0.82747
162.72263,0.83169
162.48156,0.83581
162.24048,0.84039
161.99941,0.84562
161.75834,0.85140
161.51727,0.85751
161.27620,0.86291
161.03513,0.86522
160.79406,0.86272
160.55299,0.85665
160.31192,0.85047
160.07085,0.84715
159.82978,0.84746
159.58871,0.85027
159.34764,0.85332
159.10657,0.85394
158.86550,0.85068
158.62443,0.84527
158.38336,0.84159
158.14229,0.84165
157.90121,0.84312
157.66014,0.84210
157.41907,0.83757
157.17800,0.83172
156.93693,0.82660
156.69586,0.82249
156.45479,0.81962
156.21372,0.81903
155.97265,0.82042
155.73158,0.82106
155.49051,0.81853
155.24944,0.81306
155.00837,0.80592
154.76730,0.79778
154.52623,0.78951
154.28516,0.78267
154.04409,0.77820
153.80302,0.77488
153.56194,0.76967
153.32087,0.76043
153.07980,0.74811
152.83873,0.73549
152.59766,0.72422
152.35659,0.71430
152.11552,0.70536
151.87445,0.69673
151.63338,0.68693
151.39231,0.67519
151.15124,0.66333
150.91017,0.65416
150.66910,0.64755
150.42803,0.64004
150.18696,0.62908
149.94589,0.61611
149.70482,0.60450
149.46375,0.59599
149.22267,0.58952
148.98160,0.58258
148.74053,0.57382
148.49946,0.56442
148.25839,0.55657
148.01732,0.55119
147.77625,0.54775
147.53518,0.54527
147.29411,0.54289
147.05304,0.54026
146.81197,0.53781
146.57090,0.53641
146.32983,0.53665
146.08876,0.53846
145.84769,0.54118
145.60662,0.54410
145.36555,0.54691
145.12448,0.54977
144.88340,0.55283
144.64233,0.55592
144.40126,0.55901
144.16019,0.56229
143.91912,0.56539
143.67805,0.56723
143.43698,0.56705
143.19591,0.56508
142.95484,0.56151
142.71377,0.55571
142.47270,0.54725
142.23163,0.53749
141.99056,0.52898
141.74949,0.52271
141.50842,0.51717
141.26735,0.51060
141.02628,0.50324
140.78521,0.49657
140.54413,0.49152
140.30306,0.48794
140.06199,0.48557
139.82092,0.48480
139.57985,0.48599
139.33878,0.48854
139.09771,0.49140
138.85664,0.49426
138.61557,0.49754
138.37450,0.50152
138.13343,0.50649
137.89236,0.51294
137.65129,0.52079
137.41022,0.52917
137.16915,0.53771
136.92808,0.54753
136.68701,0.56014
136.44594,0.57542
136.20486,0.59190
135.96379,0.60865
135.72272,0.62586
135.48165,0.64418
135.24058,0.66434
134.99951,0.68651
134.75844,0.70918
134.51737,0.73027
134.27630,0.74949
134.03523,0.76795
133.79416,0.78619
133.55309,0.80490
133.31202,0.82590
133.07095,0.85021
132.82988,0.87631
132.58881,0.90150
132.34774,0.92404
132.10667,0.94416
131.86559,0.96255
131.62452,0.97796
131.38345,0.98831
131.14238,0.99461
130.90131,1.00048
130.66024,1.00682
130.41917,1.01054
130.17810,1.00909
129.93703,1.00341
129.69596,0.99490
129.45489,0.98191
129.21382,0.96120
128.97275,0.93300
128.73168,0.90256
128.49061,0.87586
128.24954,0.85463
128.00847,0.83628
127.76740,0.81759
127.52632,0.79730
127.28525,0.77575
127.04418,0.75367
126.80311,0.73226
126.56204,0.71318
126.32097,0.69731
126.07990,0.68350
125.83883,0.66937
125.59776,0.65329
125.35669,0.63552
125.11562,0.61765
124.87455,0.60104
124.63348,0.58597
124.39241,0.57236
124.15134,0.56060
123.91027,0.55090
123.66920,0.54258
123.42812,0.53428
123.18705,0.52458
122.94598,0.51297
122.70491,0.50087
122.46384,0.49053
122.22277,0.48282
121.98170,0.47713
121.74063,0.47290
121.49956,0.46995
121.25849,0.46808
121.01742,0.46772
120.77635,0.46994
120.53528,0.47496
120.29421,0.48191
120.05314,0.49028
119.81207,0.50049
119.57100,0.51269
119.32993,0.52667
119.08885,0.54306
118.84778,0.56305
118.60671,0.58626
118.36564,0.61061
118.12457,0.63441
117.88350,0.65717
117.64243,0.67849
117.40136,0.69848
117.16029,0.71865
116.91922,0.73984
116.67815,0.76029
116.43708,0.77783
116.19601,0.79171
115.95494,0.80098
115.71387,0.80331
115.47280,0.79726
115.23173,0.78473
114.99066,0.76988
114.74958,0.75552
114.50851,0.74163
114.26744,0.72762
114.02637,0.71483
113.78530,0.70600
113.54423,0.70306
113.30316,0.70565
113.06209,0.71120
112.82102,0.71678
112.57995,0.72159
112.33888,0.72706
112.09781,0.73408
111.85674,0.74059
111.61567,0.74293
111.37460,0.74042
111.13353,0.73725
110.89246,0.73800
110.65139,0.74312
110.41031,0.75023
110.16924,0.75698
109.92817,0.76047
109.68710,0.75694
109.44603,0.74446
109.20496,0.72444
108.96389,0.70102
108.72282,0.67954
108.48175,0.66420
108.24068,0.65569
107.99961,0.65027
107.75854,0.64120
107.51747,0.62348
107.27640,0.59855
107.03533,0.57235
106.79426,0.54933
106.55319,0.53077
106.31212,0.51702
106.07104,0.50805
105.82997,0.50170
105.58890,0.49382
105.34783,0.48155
105.10676,0.46566
104.86569,0.44932
104.62462,0.43576
104.38355,0.42650
104.14248,0.42051
103.90141,0.41496
103.66034,0.40747
103.41927,0.39763
103.17820,0.38649
102.93713,0.37583
102.69606,0.36798
102.45499,0.36422
102.21392,0.36267
101.97285,0.35939
101.73177,0.35230
101.49070,0.34304
101.24963,0.33496
101.00856,0.33031
100.76749,0.32877
100.52642,0.32766
100.28535,0.32409
100.04428,0.31739
99.80321,0.30933
99.56214,0.30279
99.32107,0.30011
99.08000,0.30101
98.83893,0.30155
98.59786,0.29741
98.35679,0.28915
98.11572,0.28195
97.87465,0.28026
97.63358,0.28330
97.39250,0.28552
97.15143,0.28293
96.91036,0.27826
96.66929,0.27745
96.42822,0.28234
96.18715,0.28871
95.94608,0.29225
95.70501,0.29500
95.46394,0.30159
95.22287,0.31152
94.98180,0.31939
94.74073,0.32248
94.49966,0.32418
94.25859,0.32832
94.01752,0.33350
93.77645,0.33510
93.53538,0.33235
93.29431,0.33000
93.05323,0.33167
92.81216,0.33497
92.57109,0.33547
92.33002,0.33292
92.08895,0.32985
91.84788,0.32719
91.60681,0.32578
91.36574,0.32891
91.12467,0.33847
90.88360,0.35157
90.64253,0.36564
90.40146,0.38383
90.16039,0.40929
89.91932,0.43973
89.67825,0.47307
89.43718,0.51143
89.19611,0.55397
88.95504,0.59547
88.71396,0.63449
88.47289,0.67175
88.23182,0.70089
87.99075,0.71224
87.74968,0.70358
87.50861,0.68064
87.26754,0.65156
87.02647,0.62257
86.78540,0.59530
86.54433,0.56872
86.30326,0.54223
86.06219,0.51578
85.82112,0.48973
85.58005,0.46532
85.33898,0.44306
85.09791,0.42188
84.85684,0.40097
84.61577,0.38100
84.37469,0.36326
84.13362,0.34852
83.89255,0.33618
83.65148,0.32453
83.41041,0.31284
83.16934,0.30238
82.92827,0.29434
82.68720,0.28807
82.44613,0.28207
82.20506,0.27577
81.96399,0.26972
81.72292,0.26447
81.48185,0.26004
81.24078,0.25629
80.99971,0.25301
80.75864,0.24983
80.51757,0.24669
80.27650,0.24366
80.03542,0.24045
79.79435,0.23714
79.55328,0.23463
79.31221,0.23346
79.07114,0.23295
78.83007,0.23239
78.58900,0.23178
78.34793,0.23085
78.10686,0.22884
77.86579,0.22536
77.62472,0.22052
77.38365,0.21472
77.14258,0.20890
76.90151,0.20448
76.66044,0.20214
76.41937,0.20130
76.17830,0.20090
75.93723,0.20014
75.69615,0.19849
75.45508,0.19573
75.21401,0.19252
74.97294,0.19004
74.73187,0.18880
74.49080,0.18848
74.24973,0.18857
74.00866,0.18905
73.76759,0.19048
73.52652,0.19321
73.28545,0.19626
73.04438,0.19748
72.80331,0.19578
72.56224,0.19263
72.32117,0.19048
72.08010,0.19034
71.83903,0.19132
71.59796,0.19195
71.35688,0.19155
71.11581,0.19012
70.87474,0.18823
70.63367,0.18784
70.39260,0.19231
70.15153,0.20397
69.91046,0.22190
69.66939,0.24236
69.42832,0.26112
69.18725,0.27508
68.94618,0.28214
68.70511,0.28053
68.46404,0.26964
68.22297,0.25192
67.98190,0.23222
67.74083,0.21485
67.49976,0.20196
67.25869,0.19342
67.01761,0.18694
66.77654,0.17984
66.53547,0.17180
66.29440,0.16467
66.05333,0.15988
65.81226,0.15731
65.57119,0.15667
65.33012,0.15881
65.08905,0.16536
64.84798,0.17670
64.60691,0.19096
64.36584,0.20557
64.12477,0.21858
63.88370,0.22797
63.64263,0.23161
63.40156,0.22937
63.16049,0.22356
62.91942,0.21653
62.67834,0.20882
62.43727,0.20005
62.19620,0.19068
61.95513,0.18175
61.71406,0.17319
61.47299,0.16405
61.23192,0.15436
60.99085,0.14598
60.74978,0.14139
60.50871,0.14176
60.26764,0.14588
60.02657,0.15131
59.78550,0.15703
59.54443,0.16389
59.30336,0.17269
59.06229,0.18279
58.82122,0.19220
58.58015,0.19817
58.33907,0.19879
58.09800,0.19451
57.85693,0.18745
57.61586,0.17937
57.37479,0.17050
57.13372,0.16018
56.89265,0.14906
56.65158,0.14023
56.41051,0.13771
56.16944,0.14370
55.92837,0.15686
55.68730,0.17234
55.44623,0.18385
55.20516,0.18628
54.96409,0.17840
54.72302,0.16459
54.48195,0.15228
54.24088,0.14675
53.99980,0.14944
53.75873,0.16006
53.51766,0.17722
53.27659,0.19463
53.03552,0.20014
52.79445,0.18731
52.55338,0.16566
52.31231,0.14965
52.07124,0.14661
51.83017,0.15723
51.58910,0.17722
51.34803,0.19397
51.10696,0.19064
50.86589,0.16800
50.62482,0.14685
50.38375,0.14537
50.14268,0.16945
49.90161,0.20809
49.66053,0.22531
49.41946,0.19680
49.17839,0.15793
48.93732,0.14648
48.69625,0.16919
48.45518,0.20348
48.21411,0.20617
47.97304,0.17592
47.73197,0.15766
47.49090,0.17036
47.24983,0.19066
47.00876,0.18018
46.76769,0.15242
46.52662,0.14774
46.28555,0.16497
46.04448,0.16866
45.80341,0.15264
45.56234,0.14929
45.32126,0.16566
45.08019,0.17472
44.83912,0.16753
44.59805,0.16461
44.35698,0.16941
44.11591,0.17032
43.87484,0.17226
43.63377,0.18229
43.39270,0.19027
43.15163,0.18708
42.91056,0.17975
42.66949,0.17778
42.42842,0.18228
42.18735,0.18780
41.94628,0.18714
41.70521,0.17904
41.46414,0.16836
41.22307,0.15962
40.98199,0.15631
40.74092,0.15985
40.49985,0.16625
40.25878,0.17029
40.01771,0.17149
39.77664,0.17125
39.53557,0.17012
39.29450,0.16905
39.05343,0.16721
38.81236,0.16309
38.57129,0.16009
38.33022,0.16342
38.08915,0.17326
37.84808,0.18601
37.60701,0.19854
37.36594,0.20764
37.12487,0.20889
36.88380,0.20014
36.64272,0.18539
36.40165,0.16962
36.16058,0.15259
35.91951,0.13610
35.67844,0.12889
35.43737,0.13225
35.19630,0.13347
34.95523,0.12528
34.71416,0.11894
34.47309,0.12475
34.23202,0.13305
33.99095,0.12516
33.74988,0.09591
33.50881,0.05635
33.26774,0.02027
33.02667,-0.00476
32.78560,-0.01804
32.54453,-0.02220
32.30345,-0.01695
32.06238,-0.00039
31.82131,0.02042
31.58024,0.02832
31.33917,0.01333
31.09810,-0.01678
30.85703,-0.04837
30.61596,-0.07478
30.37489,-0.09665
30.13382,-0.11574
29.89275,-0.12989
29.65168,-0.13699
29.41061,-0.14302
29.16954,-0.15646
28.92847,-0.17754
28.68740,-0.20161
28.44633,-0.22486
28.20526,-0.24137
27.96418,-0.24600
27.72311,-0.24318
27.48204,-0.24186
27.24097,-0.24187
26.99990,-0.23747
26.75883,-0.23152
26.51776,-0.23447
26.27669,-0.25087
26.03562,-0.27228
25.79455,-0.28619
25.55348,-0.29079
25.31241,-0.29455
25.07134,-0.30418
24.83027,-0.31976
24.58920,-0.33707
24.34813,-0.34895
24.10706,-0.35068
23.86599,-0.34833
23.62491,-0.35259
23.38384,-0.36456
23.14277,-0.37494
22.90170,-0.37671
22.66063,-0.37453
22.41956,-0.37597
22.17849,-0.38032
21.93742,-0.38093
21.69635,-0.37608
21.45528,-0.37461
21.21421,-0.38542
20.97314,-0.40479
20.73207,-0.41958
20.49100,-0.42290
20.24993,-0.42039
20.00886,-0.41970
19.76779,-0.42393
19.52672,-0.42993
19.28564,-0.43024
19.04457,-0.42524
18.80350,-0.42487
18.56243,-0.43220
18.32136,-0.43920
18.08029,-0.44279
17.83922,-0.44458
17.59815,-0.44023
17.35708,-0.43025
17.11601,-0.42426
16.87494,-0.42321
16.63387,-0.41700
16.39280,-0.40239
16.15173,-0.38765
15.91066,-0.37864
15.66959,-0.37463
15.42852,-0.37666
15.18745,-0.38774
14.94637,-0.40448
14.70530,-0.41740
14.46423,-0.42212
14.22316,-0.42341
13.98209,-0.42428
13.74102,-0.42158
13.49995,-0.41322
13.25888,-0.40330
13.01781,-0.39839
12.77674,-0.39828
12.53567,-0.39499
12.29460,-0.38652
12.05353,-0.38306
11.81246,-0.38731
11.57139,-0.38758
11.33032,-0.38042
11.08925,-0.37600
10.84818,-0.37966
10.60710,-0.38891
10.36603,-0.40048
10.12496,-0.41132
9.88389,-0.42213
9.64282,-0.43826
9.40175,-0.45924
9.16068,-0.47517
8.91961,-0.47826
8.67854,-0.47245
8.43747,-0.46881
8.19640,-0.47224
7.95533,-0.47631
7.71426,-0.47312
7.47319,-0.45869
7.23212,-0.43383
6.99105,-0.40960
6.74998,-0.40014
6.50891,-0.40745
6.26783,-0.42315
6.02676,-0.43871
5.78569,-0.44593
5.54462,-0.44376
5.30355,-0.44295
5.06248,-0.44534
4.82141,-0.44170
4.58034,-0.43268
4.33927,-0.42559
4.09820,-0.42018
3.85713,-0.41742
3.61606,-0.42205
3.37499,-0.43033
3.13392,-0.43603
2.89285,-0.43951
2.65178,-0.44050
2.41071,-0.44224
2.16964,-0.44960
1.92856,-0.45483
1.68749,-0.45249
1.44642,-0.45303
1.20535,-0.45650
0.96428,-0.45595
0.72321,-0.47667
0.48214,-0.56603
0.24107,-0.58857
-0.00000,-0.18885
