399.69498,1.46455
399.45391,1.46022
399.21284,1.46058
398.97177,1.46249
398.73070,1.45749
398.48963,1.44642
398.24856,1.43832
398.00749,1.43525
397.76642,1.43054
397.52535,1.42293
397.28428,1.42030
397.04321,1.42612
396.80214,1.43340
396.56107,1.43591
396.32000,1.43727
396.07892,1.44279
395.83785,1.44987
395.59678,1.45229
395.35571,1.44957
395.11464,1.44710
394.87357,1.44890
394.63250,1.45355
394.39143,1.45579
394.15036,1.45130
393.90929,1.44375
393.66822,1.44275
393.42715,1.45079
393.18608,1.45911
392.94501,1.45988
392.70394,1.45700
392.46287,1.45891
392.22180,1.46470
391.98073,1.46408
391.73965,1.45124
391.49858,1.43159
391.25751,1.41478
391.01644,1.40787
390.77537,1.40991
390.53430,1.41041
390.29323,1.40066
390.05216,1.38337
389.81109,1.36688
389.57002,1.35699
389.32895,1.35322
389.08788,1.35068
388.84681,1.34601
388.60574,1.34105
388.36467,1.33987
388.12360,1.34322
387.88253,1.34828
387.64146,1.35149
387.40038,1.34910
387.15931,1.33984
386.91824,1.32952
386.67717,1.32615
386.43610,1.33004
386.19503,1.33126
385.95396,1.32182
385.71289,1.30660
385.47182,1.29474
385.23075,1.28953
384.98968,1.28736
384.74861,1.28095
384.50754,1.26536
384.26647,1.24512
384.02540,1.23091
383.78433,1.22729
383.54326,1.22871
383.30219,1.22869
383.06111,1.22538
382.82004,1.21738
382.57897,1.20468
382.33790,1.19140
382.09683,1.18210
381.85576,1.17877
381.61469,1.18228
381.37362,1.19062
381.13255,1.19534
380.89148,1.18886
380.65041,1.17678
380.40934,1.17054
380.16827,1.17214
379.92720,1.17527
379.68613,1.17711
379.44506,1.18372
379.20399,1.20132
378.96292,1.22724
378.72184,1.25070
378.48077,1.26208
378.23970,1.26164
377.99863,1.25545
377.75756,1.24659
377.51649,1.23691
377.27542,1.23235
377.03435,1.23936
376.79328,1.25693
376.55221,1.27416
376.31114,1.27911
376.07007,1.27126
375.82900,1.26160
375.58793,1.26144
375.34686,1.27314
375.10579,1.29001
374.86472,1.30455
374.62365,1.31491
374.38257,1.31955
374.14150,1.31367
373.90043,1.29840
373.65936,1.28501
373.41829,1.28445
373.17722,1.29824
372.93615,1.31878
372.69508,1.33597
372.45401,1.34424
372.21294,1.34362
371.97187,1.33656
371.73080,1.32684
371.48973,1.31863
371.24866,1.31423
371.00759,1.31394
370.76652,1.31832
370.52545,1.32706
370.28437,1.33577
370.04330,1.33989
369.80223,1.34067
369.56116,1.34157
369.32009,1.34135
369.07902,1.33685
368.83795,1.32986
368.59688,1.32515
368.35581,1.32439
368.11474,1.32620
367.87367,1.32857
367.63260,1.32836
367.39153,1.32324
367.15046,1.31586
366.90939,1.31064
366.66832,1.30709
366.42725,1.30186
366.18618,1.29445
365.94510,1.28687
365.70403,1.28126
365.46296,1.27968
365.22189,1.28196
364.98082,1.28422
364.73975,1.28310
364.49868,1.27974
364.25761,1.27645
364.01654,1.27232
363.77547,1.26559
363.53440,1.25871
363.29333,1.25670
363.05226,1.26127
362.81119,1.26832
362.57012,1.27102
362.32905,1.26492
362.08798,1.25202
361.84691,1.24019
361.60583,1.23638
361.36476,1.24052
361.12369,1.24658
360.88262,1.24937
360.64155,1.24771
360.40048,1.24138
360.15941,1.23092
359.91834,1.22051
359.67727,1.21521
359.43620,1.21615
359.19513,1.22035
358.95406,1.22357
358.71299,1.22259
358.47192,1.21719
358.23085,1.21057
357.98978,1.20558
357.74871,1.20248
357.50764,1.20085
357.26656,1.20075
357.02549,1.20076
356.78442,1.19869
356.54335,1.19568
356.30228,1.19506
356.06121,1.19660
355.82014,1.19667
355.57907,1.19439
355.33800,1.19301
355.09693,1.19501
354.85586,1.19943
354.61479,1.20397
354.37372,1.20715
354.13265,1.20788
353.89158,1.20605
353.65051,1.20333
353.40944,1.20152
353.16837,1.20002
352.92729,1.19616
352.68622,1.18922
352.44515,1.18283
352.20408,1.18159
351.96301,1.18549
351.72194,1.18861
351.48087,1.18570
351.23980,1.17968
350.99873,1.17708
350.75766,1.17843
350.51659,1.17889
350.27552,1.17646
350.03445,1.17391
349.79338,1.17351
349.55231,1.17392
349.31124,1.17293
349.07017,1.17131
348.82910,1.17238
348.58802,1.17790
348.34695,1.18554
348.10588,1.19125
347.86481,1.19362
347.62374,1.19380
347.38267,1.19335
347.14160,1.19421
346.90053,1.19821
346.65946,1.20504
346.41839,1.21122
346.17732,1.21307
345.93625,1.21031
345.69518,1.20604
345.45411,1.20341
345.21304,1.20420
344.97197,1.20932
344.73090,1.21768
344.48983,1.22568
344.24875,1.23037
344.00768,1.23255
343.76661,1.23515
343.52554,1.23888
343.28447,1.24091
343.04340,1.23876
342.80233,1.23508
342.56126,1.23513
342.32019,1.24007
342.07912,1.24594
341.83805,1.24920
341.59698,1.25053
341.35591,1.25318
341.11484,1.25890
340.87377,1.26615
340.63270,1.27073
340.39163,1.26910
340.15056,1.26288
339.90948,1.25818
339.66841,1.25917
339.42734,1.26415
339.18627,1.26972
338.94520,1.27687
338.70413,1.28740
338.46306,1.29633
338.22199,1.29606
337.98092,1.28715
337.73985,1.27733
337.49878,1.27301
337.25771,1.27640
337.01664,1.28640
336.77557,1.29836
336.53450,1.30668
336.29343,1.30818
336.05236,1.30186
335.81129,1.28980
335.57021,1.27763
335.32914,1.26992
335.08807,1.26696
334.84700,1.26654
334.60593,1.26582
334.36486,1.26309
334.12379,1.26062
333.88272,1.26232
333.64165,1.26600
333.40058,1.26416
333.15951,1.25559
332.91844,1.24821
332.67737,1.24689
332.43630,1.24650
332.19523,1.24102
331.95416,1.23333
331.71309,1.23014
331.47202,1.23102
331.23094,1.22857
330.98987,1.21954
330.74880,1.20970
330.50773,1.20590
330.26666,1.20742
330.02559,1.20794
329.78452,1.20598
329.54345,1.20720
329.30238,1.21462
329.06131,1.22245
328.82024,1.22254
328.57917,1.21388
328.33810,1.20193
328.09703,1.19147
327.85596,1.18327
327.61489,1.17671
327.37382,1.17280
327.13275,1.17269
326.89167,1.17448
326.65060,1.17477
326.40953,1.17334
326.16846,1.17290
325.92739,1.17473
325.68632,1.17664
325.44525,1.17575
325.20418,1.17250
324.96311,1.17082
324.72204,1.17412
324.48097,1.18096
324.23990,1.18588
323.99883,1.18640
323.75776,1.18590
323.51669,1.18800
323.27562,1.19122
323.03455,1.19224
322.79348,1.19216
322.55240,1.19428
322.31133,1.19835
322.07026,1.20047
321.82919,1.19657
321.58812,1.18626
321.34705,1.17538
321.10598,1.17147
320.86491,1.17459
320.62384,1.17826
320.38277,1.17832
320.14170,1.17443
319.90063,1.16827
319.65956,1.16533
319.41849,1.17230
319.17742,1.18918
318.93635,1.20814
318.69528,1.22160
318.45421,1.22707
318.21313,1.22390
317.97206,1.21162
317.73099,1.19267
317.48992,1.17392
317.24885,1.16364
317.00778,1.16532
316.76671,1.17423
316.52564,1.18167
316.28457,1.18379
316.04350,1.18504
315.80243,1.18960
315.56136,1.19541
315.32029,1.20055
315.07922,1.20724
314.83815,1.21574
314.59708,1.22174
314.35601,1.22322
314.11494,1.22331
313.87386,1.22519
313.63279,1.22858
313.39172,1.23134
313.15065,1.23176
312.90958,1.22931
312.66851,1.22475
312.42744,1.22027
312.18637,1.21833
311.94530,1.22096
311.70423,1.22983
311.46316,1.24404
311.22209,1.25737
310.98102,1.26208
310.73995,1.25808
310.49888,1.25229
310.25781,1.25109
310.01674,1.25635
309.77567,1.26549
309.53459,1.27469
309.29352,1.28270
309.05245,1.29082
308.81138,1.29869
308.57031,1.30164
308.32924,1.29475
308.08817,1.28008
307.84710,1.26721
307.60603,1.26430
307.36496,1.26970
307.12389,1.27444
306.88282,1.27434
306.64175,1.27473
306.40068,1.28074
306.15961,1.28837
305.91854,1.28839
305.67747,1.27834
305.43640,1.26609
305.19532,1.26031
304.95425,1.26240
304.71318,1.26772
304.47211,1.27047
304.23104,1.26758
303.98997,1.26125
303.74890,1.25683
303.50783,1.25642
303.26676,1.25683
303.02569,1.25575
302.78462,1.25616
302.54355,1.26020
302.30248,1.26414
302.06141,1.26492
301.82034,1.26594
301.57927,1.27123
301.33820,1.27766
301.09713,1.27661
300.85605,1.26518
300.61498,1.25108
300.37391,1.24287
300.13284,1.24126
299.89177,1.24069
299.65070,1.23704
299.40963,1.23246
299.16856,1.23147
298.92749,1.23551
298.68642,1.24123
298.44535,1.24233
298.20428,1.23594
297.96321,1.22675
297.72214,1.22153
297.48107,1.22167
297.24000,1.22365
296.99893,1.22442
296.75786,1.22358
296.51678,1.22153
296.27571,1.21891
296.03464,1.21675
295.79357,1.21519
295.55250,1.21326
295.31143,1.21077
295.07036,1.20839
294.82929,1.20587
294.58822,1.20264
294.34715,1.19929
294.10608,1.19705
293.86501,1.19652
293.62394,1.19715
293.38287,1.19742
293.14180,1.19601
292.90073,1.19272
292.65966,1.18853
292.41859,1.18468
292.17751,1.18160
291.93644,1.17900
291.69537,1.17633
291.45430,1.17279
291.21323,1.16853
290.97216,1.16494
290.73109,1.16254
290.49002,1.15956
290.24895,1.15424
290.00788,1.14791
289.76681,1.14448
289.52574,1.14621
289.28467,1.15061
289.04360,1.15239
288.80253,1.14885
288.56146,1.14270
288.32039,1.13845
288.07932,1.13730
287.83824,1.13692
287.59717,1.13522
287.35610,1.13343
287.11503,1.13479
286.87396,1.13964
286.63289,1.14296
286.39182,1.13986
286.15075,1.13204
285.90968,1.12502
285.66861,1.12082
285.42754,1.11716
285.18647,1.11252
284.94540,1.10868
284.70433,1.10845
284.46326,1.11257
284.22219,1.11854
283.98112,1.12239
283.74005,1.12220
283.49897,1.11938
283.25790,1.11668
283.01683,1.11620
282.77576,1.11867
282.53469,1.12246
282.29362,1.12310
282.05255,1.11706
281.81148,1.10723
281.57041,1.10103
281.32934,1.10249
281.08827,1.10845
280.84720,1.11280
280.60613,1.11320
280.36506,1.11227
280.12399,1.11306
279.88292,1.11549
279.64185,1.11724
279.40078,1.11711
279.15970,1.11623
278.91863,1.11581
278.67756,1.11494
278.43649,1.11214
278.19542,1.10806
277.95435,1.10480
277.71328,1.10374
277.47221,1.10541
277.23114,1.10978
276.99007,1.11505
276.74900,1.11827
276.50793,1.11884
276.26686,1.11853
276.02579,1.11777
275.78472,1.11546
275.54365,1.11247
275.30258,1.11113
275.06151,1.11174
274.82043,1.11251
274.57936,1.11226
274.33829,1.11096
274.09722,1.10916
273.85615,1.10811
273.61508,1.10833
273.37401,1.10782
273.13294,1.10477
272.89187,1.10151
272.65080,1.10238
272.40973,1.10795
272.16866,1.11453
271.92759,1.11920
271.68652,1.12226
271.44545,1.12496
271.20438,1.12802
270.96331,1.13150
270.72224,1.13420
270.48116,1.13451
270.24009,1.13336
269.99902,1.13408
269.75795,1.13800
269.51688,1.14250
269.27581,1.14484
269.03474,1.14559
268.79367,1.14720
268.55260,1.15098
268.31153,1.15627
268.07046,1.16122
267.82939,1.16456
267.58832,1.16712
267.34725,1.17102
267.10618,1.17703
266.86511,1.18345
266.62404,1.18739
266.38297,1.18753
266.14189,1.18568
265.90082,1.18590
265.65975,1.19174
265.41868,1.20364
265.17761,1.21842
264.93654,1.23146
264.69547,1.24029
264.45440,1.24611
264.21333,1.25190
263.97226,1.25972
263.73119,1.26949
263.49012,1.27961
263.24905,1.28803
263.00798,1.29352
262.76691,1.29708
262.52584,1.30151
262.28477,1.30916
262.04370,1.32006
261.80262,1.33203
261.56155,1.34324
261.32048,1.35409
261.07941,1.36616
260.83834,1.38020
260.59727,1.39561
260.35620,1.41207
260.11513,1.43031
259.87406,1.45058
259.63299,1.47193
259.39192,1.49248
259.15085,1.50944
258.90978,1.52085
258.66871,1.52946
258.42764,1.54401
258.18657,1.57175
257.94550,1.60786
257.70443,1.63590
257.46335,1.64671
257.22228,1.65352
256.98121,1.67062
256.74014,1.69378
256.49907,1.70942
256.25800,1.71082
256.01693,1.70409
255.77586,1.69863
255.53479,1.69659
255.29372,1.69485
255.05265,1.69279
254.81158,1.69428
254.57051,1.69930
254.32944,1.69857
254.08837,1.68878
253.84730,1.68037
253.60623,1.68014
253.36516,1.68201
253.12408,1.67839
252.88301,1.66883
252.64194,1.65400
252.40087,1.63370
252.15980,1.61320
251.91873,1.60308
251.67766,1.61003
251.43659,1.62865
251.19552,1.64330
250.95445,1.64313
250.71338,1.63527
250.47231,1.63091
250.23124,1.62818
249.99017,1.62170
249.74910,1.61350
249.50803,1.60620
249.26696,1.59850
249.02589,1.59338
248.78481,1.59814
248.54374,1.60864
248.30267,1.60798
248.06160,1.59210
247.82053,1.57963
247.57946,1.58544
247.33839,1.60119
247.09732,1.60788
246.85625,1.60192
246.61518,1.59899
246.37411,1.61230
246.13304,1.63808
245.89197,1.66250
245.65090,1.67717
245.40983,1.68421
245.16876,1.68796
244.92769,1.68984
244.68661,1.69149
244.44554,1.69718
244.20447,1.71086
243.96340,1.73230
243.72233,1.75415
243.48126,1.76948
243.24019,1.78492
242.99912,1.81251
242.75805,1.85112
242.51698,1.88590
242.27591,1.90657
242.03484,1.91253
241.79377,1.90141
241.55270,1.87558
241.31163,1.83998
241.07056,1.79151
240.82949,1.73272
240.58842,1.67502
240.34734,1.62500
240.10627,1.58276
239.86520,1.54618
239.62413,1.51159
239.38306,1.47409
239.14199,1.43527
238.90092,1.40377
238.65985,1.38239
238.41878,1.36387
238.17771,1.34073
237.93664,1.31306
237.69557,1.28578
237.45450,1.26332
237.21343,1.24661
236.97236,1.23177
236.73129,1.21368
236.49022,1.19198
236.24915,1.17071
236.00807,1.15264
235.76700,1.13740
235.52593,1.12489
235.28486,1.11661
235.04379,1.11144
234.80272,1.10392
234.56165,1.09007
234.32058,1.07240
234.07951,1.05592
233.83844,1.04242
233.59737,1.03122
233.35630,1.02267
233.11523,1.01751
232.87416,1.01412
232.63309,1.00925
232.39202,1.00198
232.15095,0.99550
231.90988,0.99322
231.66880,0.99382
231.42773,0.99240
231.18666,0.98622
230.94559,0.97704
230.70452,0.96726
230.46345,0.95693
230.22238,0.94535
229.98131,0.93357
229.74024,0.92409
229.49917,0.91864
229.25810,0.91698
229.01703,0.91752
228.77596,0.91824
228.53489,0.91743
228.29382,0.91417
228.05275,0.90828
227.81168,0.90057
227.57061,0.89353
227.32953,0.88982
227.08846,0.88888
226.84739,0.88737
226.60632,0.88330
226.36525,0.87781
226.12418,0.87249
225.88311,0.86773
225.64204,0.86381
225.40097,0.86079
225.15990,0.85776
224.91883,0.85410
224.67776,0.85054
224.43669,0.84760
224.19562,0.84494
223.95455,0.84284
223.71348,0.84228
223.47241,0.84327
223.23134,0.84506
222.99026,0.84747
222.74919,0.85014
222.50812,0.85181
222.26705,0.85222
222.02598,0.85312
221.78491,0.85616
221.54384,0.86113
221.30277,0.86667
221.06170,0.87117
220.82063,0.87341
220.57956,0.87379
220.33849,0.87447
220.09742,0.87738
219.85635,0.88221
219.61528,0.88679
219.37421,0.89002
219.13314,0.89379
218.89207,0.90070
218.65099,0.91038
218.40992,0.91988
218.16885,0.92750
217.92778,0.93400
217.68671,0.94068
217.44564,0.94875
217.20457,0.95947
216.96350,0.97249
216.72243,0.98480
216.48136,0.99340
216.24029,0.99828
215.99922,1.00165
215.75815,1.00516
215.51708,1.00939
215.27601,1.01524
215.03494,1.02375
214.79387,1.03484
214.55280,1.04737
214.31172,1.05929
214.07065,1.06699
213.82958,1.06833
213.58851,1.06648
213.34744,1.06657
213.10637,1.07074
212.86530,1.07863
212.62423,1.08943
212.38316,1.10065
212.14209,1.10786
211.90102,1.10836
211.65995,1.10361
211.41888,1.09781
211.17781,1.09521
210.93674,1.09738
210.69567,1.10194
210.45460,1.10490
210.21353,1.10488
209.97245,1.10410
209.73138,1.10515
209.49031,1.10841
209.24924,1.11234
209.00817,1.11529
208.76710,1.11635
208.52603,1.11469
208.28496,1.10989
208.04389,1.10364
207.80282,1.09921
207.56175,1.09795
207.32068,1.09758
207.07961,1.09531
206.83854,1.09088
206.59747,1.08507
206.35640,1.07791
206.11533,1.07017
205.87426,1.06401
205.63318,1.06000
205.39211,1.05556
205.15104,1.04807
204.90997,1.03811
204.66890,1.02875
204.42783,1.02217
204.18676,1.01788
203.94569,1.01405
203.70462,1.00928
203.46355,1.00308
203.22248,0.99553
202.98141,0.98705
202.74034,0.97799
202.49927,0.96823
202.25820,0.95744
202.01713,0.94514
201.77606,0.93082
201.53499,0.91545
201.29391,0.90193
201.05284,0.89228
200.81177,0.88502
200.57070,0.87686
200.32963,0.86613
200.08856,0.85410
199.84749,0.84352
199.60642,0.83626
199.36535,0.83165
199.12428,0.82675
198.88321,0.81859
198.64214,0.80676
198.40107,0.79411
198.16000,0.78464
197.91893,0.77986
197.67786,0.77705
197.43679,0.77166
197.19572,0.76210
196.95464,0.75115
196.71357,0.74272
196.47250,0.73774
196.23143,0.73323
195.99036,0.72563
195.74929,0.71512
195.50822,0.70516
195.26715,0.69839
195.02608,0.69431
194.78501,0.69044
194.54394,0.68496
194.30287,0.67824
194.06180,0.67204
193.82073,0.66738
193.57966,0.66349
193.33859,0.65889
193.09752,0.65337
192.85645,0.64819
192.61537,0.64397
192.37430,0.63935
192.13323,0.63301
191.89216,0.62630
191.65109,0.62167
191.41002,0.61922
191.16895,0.61694
190.92788,0.61376
190.68681,0.61073
190.44574,0.60874
190.20467,0.60671
189.96360,0.60271
189.72253,0.59689
189.48146,0.59198
189.24039,0.58975
188.99932,0.58854
188.75825,0.58583
188.51718,0.58204
188.27610,0.57936
188.03503,0.57799
187.79396,0.57618
187.55289,0.57333
187.31182,0.57069
187.07075,0.56873
186.82968,0.56631
186.58861,0.56285
186.34754,0.55960
186.10647,0.55781
185.86540,0.55706
185.62433,0.55626
185.38326,0.55538
185.14219,0.55511
184.90112,0.55545
184.66005,0.55565
184.41898,0.55547
184.17791,0.55538
183.93683,0.55572
183.69576,0.55664
183.45469,0.55846
183.21362,0.56084
182.97255,0.56230
182.73148,0.56181
182.49041,0.56015
182.24934,0.55875
182.00827,0.55816
181.76720,0.55837
181.52613,0.55928
181.28506,0.56040
181.04399,0.56134
180.80292,0.56273
180.56185,0.56498
180.32078,0.56688
180.07971,0.56751
179.83864,0.56827
179.59756,0.57027
179.35649,0.57209
179.11542,0.57265
178.87435,0.57391
178.63328,0.57771
178.39221,0.58338
178.15114,0.59001
177.91007,0.59779
177.66900,0.60627
177.42793,0.61420
177.18686,0.62161
176.94579,0.63003
176.70472,0.64065
176.46365,0.65307
176.22258,0.66550
175.98151,0.67659
175.74044,0.68685
175.49937,0.69743
175.25829,0.70874
175.01722,0.72070
174.77615,0.73298
174.53508,0.74472
174.29401,0.75550
174.05294,0.76599
173.81187,0.77706
173.57080,0.78885
173.32973,0.80054
173.08866,0.81084
172.84759,0.81926
172.60652,0.82649
172.36545,0.83289
172.12438,0.83784
171.88331,0.84090
171.64224,0.84220
171.40117,0.84170
171.16010,0.83891
170.91902,0.83368
170.67795,0.82703
170.43688,0.82079
170.19581,0.81603
169.95474,0.81238
169.71367,0.80918
169.47260,0.80651
169.23153,0.80473
168.99046,0.80343
168.74939,0.80129
168.50832,0.79733
168.26725,0.79228
168.02618,0.78786
167.78511,0.78480
167.54404,0.78298
167.30297,0.78312
167.06190,0.78616
166.82083,0.79098
166.57975,0.79432
166.33868,0.79370
166.09761,0.78974
165.85654,0.78533
165.61547,0.78335
165.37440,0.78530
165.13333,0.79101
164.89226,0.79902
164.65119,0.80749
164.41012,0.81508
164.16905,0.82100
163.92798,0.82506
163.68691,0.82799
163.44584,0.83083
163.20477,0.83419
162.96370,0.83842
162.72263,0.84389
162.48156,0.85044
162.24048,0.85715
161.99941,0.86271
161.75834,0.86577
161.51727,0.86583
161.27620,0.86431
161.03513,0.86394
160.79406,0.86628
160.55299,0.87030
160.31192,0.87344
160.07085,0.87335
159.82978,0.86889
159.58871,0.86096
159.34764,0.85303
159.10657,0.84906
158.86550,0.84985
158.62443,0.85271
158.38336,0.85434
158.14229,0.85288
157.90121,0.84797
157.66014,0.84113
157.41907,0.83548
157.17800,0.83362
156.93693,0.83547
156.69586,0.83847
156.45479,0.83973
156.21372,0.83769
155.97265,0.83212
155.73158,0.82390
155.49051,0.81544
155.24944,0.80944
155.00837,0.80665
154.76730,0.80544
154.52623,0.80317
154.28516,0.79774
154.04409,0.78878
153.80302,0.77809
153.56194,0.76825
153.32087,0.76032
153.07980,0.75325
152.83873,0.74525
152.59766,0.73560
152.35659,0.72513
152.11552,0.71513
151.87445,0.70597
151.63338,0.69637
151.39231,0.68486
151.15124,0.67232
150.91017,0.66164
150.66910,0.65393
150.42803,0.64696
150.18696,0.63813
149.94589,0.62691
149.70482,0.61437
149.46375,0.60237
149.22267,0.59303
148.98160,0.58710
148.74053,0.58269
148.49946,0.57710
148.25839,0.56979
148.01732,0.56234
147.77625,0.55628
147.53518,0.55193
147.29411,0.54880
147.05304,0.54631
146.81197,0.54422
146.57090,0.54303
146.32983,0.54342
146.08876,0.54528
145.84769,0.54764
145.60662,0.54974
145.36555,0.55197
145.12448,0.55516
144.88340,0.55929
144.64233,0.56336
144.40126,0.56642
144.16019,0.56841
143.91912,0.56974
143.67805,0.57043
143.43698,0.56989
143.19591,0.56752
142.95484,0.56345
142.71377,0.55822
142.47270,0.55169
142.23163,0.54331
141.99056,0.53396
141.74949,0.52582
141.50842,0.51974
141.26735,0.51425
141.02628,0.50778
140.78521,0.50066
140.54413,0.49454
140.30306,0.49055
140.06199,0.48881
139.82092,0.48912
139.57985,0.49130
139.33878,0.49449
139.09771,0.49722
138.85664,0.49894
138.61557,0.50069
138.37450,0.50354
138.13343,0.50759
137.89236,0.51266
137.65129,0.51904
137.41022,0.52689
137.16915,0.53612
136.92808,0.54724
136.68701,0.56076
136.44594,0.57549
136.20486,0.58961
135.96379,0.60360
135.72272,0.61947
135.48165,0.63754
135.24058,0.65662
134.99951,0.67681
134.75844,0.69917
134.51737,0.72341
134.27630,0.74735
134.03523,0.76850
133.79416,0.78653
133.55309,0.80470
133.31202,0.82692
133.07095,0.85274
132.82988,0.87757
132.58881,0.89810
132.34774,0.91504
132.10667,0.93015
131.86559,0.94387
131.62452,0.95652
131.38345,0.96918
131.14238,0.98180
130.90131,0.99149
130.66024,0.99401
130.41917,0.98754
130.17810,0.97535
129.93703,0.96375
129.69596,0.95611
129.45489,0.94881
129.21382,0.93492
128.97275,0.91278
128.73168,0.88783
128.49061,0.86539
128.24954,0.84589
128.00847,0.82751
127.76740,0.80970
127.52632,0.79218
127.28525,0.77311
127.04418,0.75115
126.80311,0.72847
126.56204,0.70887
126.32097,0.69318
126.07990,0.67861
125.83883,0.66218
125.59776,0.64394
125.35669,0.62650
125.11562,0.61186
124.87455,0.59935
124.63348,0.58707
124.39241,0.57433
124.15134,0.56193
123.91027,0.55041
123.66920,0.53941
123.42812,0.52853
123.18705,0.51796
122.94598,0.50799
122.70491,0.49873
122.46384,0.49050
122.22277,0.48381
121.98170,0.47863
121.74063,0.47440
121.49956,0.47106
121.25849,0.46905
121.01742,0.46863
120.77635,0.47006
120.53528,0.47383
120.29421,0.48001
120.05314,0.48796
119.81207,0.49717
119.57100,0.50795
119.32993,0.52119
119.08885,0.53779
118.84778,0.55795
118.60671,0.58073
118.36564,0.60488
118.12457,0.63001
117.88350,0.65625
117.64243,0.68279
117.40136,0.70776
117.16029,0.72910
116.91922,0.74521
116.67815,0.75562
116.43708,0.76165
116.19601,0.76501
115.95494,0.76498
115.71387,0.75977
115.47280,0.75117
115.23173,0.74348
114.99066,0.73780
114.74958,0.73193
114.50851,0.72613
114.26744,0.72369
114.02637,0.72552
113.78530,0.72788
113.54423,0.72608
113.30316,0.71845
113.06209,0.70657
112.82102,0.69381
112.57995,0.68410
112.33888,0.68021
112.09781,0.68230
111.85674,0.68863
111.61567,0.69745
111.37460,0.70759
111.13353,0.71791
110.89246,0.72720
110.65139,0.73407
110.41031,0.73681
110.16924,0.73455
109.92817,0.72843
109.68710,0.72088
109.44603,0.71386
109.20496,0.70751
108.96389,0.69955
108.72282,0.68682
108.48175,0.66859
108.24068,0.64769
107.99961,0.62824
107.75854,0.61247
107.51747,0.59913
107.27640,0.58554
107.03533,0.57077
106.79426,0.55534
106.55319,0.53890
106.31212,0.52062
106.07104,0.50183
105.82997,0.48560
105.58890,0.47385
105.34783,0.46596
105.10676,0.45953
104.86569,0.45193
104.62462,0.44168
104.38355,0.42904
104.14248,0.41605
103.90141,0.40562
103.66034,0.39913
103.41927,0.39458
103.17820,0.38807
102.93713,0.37782
102.69606,0.36597
102.45499,0.35601
102.21392,0.34961
101.97285,0.34605
101.73177,0.34298
101.49070,0.33782
101.24963,0.33003
101.00856,0.32227
100.76749,0.31775
100.52642,0.31693
100.28535,0.31713
100.04428,0.31484
99.80321,0.30849
99.56214,0.30010
99.32107,0.29399
99.08000,0.29289
98.83893,0.29496
98.59786,0.29517
98.35679,0.29070
98.11572,0.28373
97.87465,0.27848
97.63358,0.27681
97.39250,0.27715
97.15143,0.27675
96.91036,0.27504
96.66929,0.27456
96.42822,0.27789
96.18715,0.28414
95.94608,0.28930
95.70501,0.29179
95.46394,0.29522
95.22287,0.30275
94.98180,0.31184
94.74073,0.31735
94.49966,0.31921
94.25859,0.32210
94.01752,0.32693
93.77645,0.32861
93.53538,0.32460
93.29431,0.32012
93.05323,0.32061
92.81216,0.32434
92.57109,0.32608
92.33002,0.32488
92.08895,0.32340
91.84788,0.32234
91.60681,0.32129
91.36574,0.32271
91.12467,0.32956
90.88360,0.34069
90.64253,0.35396
90.40146,0.37138
90.16039,0.39526
89.91932,0.42362
89.67825,0.45470
89.43718,0.48996
89.19611,0.52847
88.95504,0.56656
88.71396,0.60405
88.47289,0.64065
88.23182,0.66898
87.99075,0.68175
87.74968,0.67936
87.50861,0.66536
87.26754,0.64326
87.02647,0.61693
86.78540,0.58869
86.54433,0.55981
86.30326,0.53248
86.06219,0.50803
85.82112,0.48574
85.58005,0.46404
85.33898,0.44165
85.09791,0.41867
84.85684,0.39734
84.61577,0.37943
84.37469,0.36378
84.13362,0.34827
83.89255,0.33311
83.65148,0.32040
83.41041,0.31133
83.16934,0.30482
82.92827,0.29829
82.68720,0.28995
82.44613,0.28024
82.20506,0.27105
81.96399,0.26393
81.72292,0.25901
81.48185,0.25529
81.24078,0.25199
80.99971,0.24882
80.75864,0.24526
80.51757,0.24107
80.27650,0.23726
80.03542,0.23487
79.79435,0.23354
79.55328,0.23254
79.31221,0.23188
79.07114,0.23131
78.83007,0.22981
78.58900,0.22694
78.34793,0.22356
78.10686,0.22025
77.86579,0.21630
77.62472,0.21093
77.38365,0.20463
77.14258,0.19865
76.90151,0.19388
76.66044,0.19079
76.41937,0.18989
76.17830,0.19125
75.93723,0.19393
75.69615,0.19600
75.45508,0.19541
75.21401,0.19168
74.97294,0.18693
74.73187,0.18420
74.49080,0.18465
74.24973,0.18680
74.00866,0.18830
73.76759,0.18834
73.52652,0.18780
73.28545,0.18725
73.04438,0.18587
72.80331,0.18312
72.56224,0.18050
72.32117,0.18005
72.08010,0.18170
71.83903,0.18314
71.59796,0.18224
71.35688,0.17918
71.11581,0.17603
70.87474,0.17506
70.63367,0.17762
70.39260,0.18426
70.15153,0.19524
69.91046,0.21039
69.66939,0.22851
69.42832,0.24686
69.18725,0.26158
68.94618,0.26893
68.70511,0.26693
68.46404,0.25669
68.22297,0.24208
67.98190,0.22722
67.74083,0.21391
67.49976,0.20172
67.25869,0.19050
67.01761,0.18145
66.77654,0.17539
66.53547,0.17129
66.29440,0.16731
66.05333,0.16270
65.81226,0.15804
65.57119,0.15453
65.33012,0.15388
65.08905,0.15791
64.84798,0.16705
64.60691,0.17971
64.36584,0.19329
64.12477,0.20506
63.88370,0.21260
63.64263,0.21475
63.40156,0.21218
63.16049,0.20679
62.91942,0.20055
62.67834,0.19444
62.43727,0.18874
62.19620,0.18400
61.95513,0.18052
61.71406,0.17680
61.47299,0.17073
61.23192,0.16256
60.99085,0.15481
60.74978,0.14958
60.50871,0.14735
60.26764,0.14759
60.02657,0.14904
59.78550,0.14977
59.54443,0.14829
59.30336,0.14532
59.06229,0.14375
58.82122,0.14634
58.58015,0.15368
58.33907,0.16449
58.09800,0.17662
57.85693,0.18775
57.61586,0.19555
57.37479,0.19764
57.13372,0.19203
56.89265,0.17841
56.65158,0.15898
56.41051,0.13847
56.16944,0.12287
55.92837,0.11707
55.68730,0.12283
55.44623,0.13854
55.20516,0.15963
54.96409,0.17850
54.72302,0.18641
54.48195,0.17972
54.24088,0.16385
53.99980,0.14869
53.75873,0.14259
53.51766,0.14944
53.27659,0.16757
53.03552,0.18930
52.79445,0.20152
52.55338,0.19392
52.31231,0.17195
52.07124,0.15094
51.83017,0.14241
51.58910,0.15031
51.34803,0.16923
51.10696,0.18293
50.86589,0.17710
50.62482,0.15761
50.38375,0.14144
50.14268,0.14203
49.90161,0.16449
49.66053,0.19406
49.41946,0.19652
49.17839,0.16869
48.93732,0.14730
48.69625,0.15709
48.45518,0.19176
48.21411,0.21254
47.97304,0.19565
47.73197,0.17589
47.49090,0.18347
47.24983,0.20784
47.00876,0.20656
46.76769,0.17437
46.52662,0.15282
46.28555,0.15327
46.04448,0.15134
45.80341,0.13777
45.56234,0.13577
45.32126,0.15199
45.08019,0.16365
44.83912,0.16022
44.59805,0.15727
44.35698,0.15865
44.11591,0.15731
43.87484,0.15976
43.63377,0.17011
43.39270,0.17599
43.15163,0.17292
42.91056,0.17165
42.66949,0.17467
42.42842,0.17527
42.18735,0.17252
41.94628,0.16797
41.70521,0.15996
41.46414,0.14962
41.22307,0.14217
40.98199,0.14242
40.74092,0.15185
40.49985,0.16657
40.25878,0.17931
40.01771,0.18438
39.77664,0.17844
39.53557,0.16334
39.29450,0.15053
39.05343,0.15184
38.81236,0.16699
38.57129,0.18572
38.33022,0.19949
38.08915,0.20821
37.84808,0.21738
37.60701,0.22870
37.36594,0.23670
37.12487,0.23651
36.88380,0.22945
36.64272,0.22034
36.40165,0.21200
36.16058,0.20452
35.91951,0.19950
35.67844,0.19903
35.43737,0.20059
35.19630,0.19990
34.95523,0.19827
34.71416,0.19857
34.47309,0.19715
34.23202,0.18978
33.99095,0.17910
33.74988,0.17058
33.50881,0.16446
33.26774,0.15468
33.02667,0.13940
32.78560,0.12757
32.54453,0.12529
32.30345,0.12447
32.06238,0.11615
31.82131,0.10489
31.58024,0.09891
31.33917,0.09598
31.09810,0.08692
30.85703,0.06661
30.61596,0.04064
30.37489,0.02043
30.13382,0.01113
29.89275,0.00937
29.65168,0.01010
29.41061,0.00846
29.16954,-0.00212
28.92847,-0.02570
28.68740,-0.05682
28.44633,-0.08397
28.20526,-0.09845
27.96418,-0.09940
27.72311,-0.09450
27.48204,-0.09484
27.24097,-0.10661
26.99990,-0.12574
26.75883,-0.13810
26.51776,-0.13131
26.27669,-0.11166
26.03562,-0.09898
25.79455,-0.10443
25.55348,-0.12207
25.31241,-0.14133
25.07134,-0.16093
24.83027,-0.18446
24.58920,-0.20816
24.34813,-0.22133
24.10706,-0.21896
23.86599,-0.20890
23.62491,-0.20548
23.38384,-0.21937
23.14277,-0.24855
22.90170,-0.27629
22.66063,-0.28681
22.41956,-0.28116
22.17849,-0.27152
21.93742,-0.26637
21.69635,-0.26384
21.45528,-0.25886
21.21421,-0.25449
20.97314,-0.25866
20.73207,-0.27037
20.49100,-0.28026
20.24993,-0.28308
20.00886,-0.28388
19.76779,-0.29221
19.52672,-0.31143
19.28564,-0.33225
19.04457,-0.34158
18.80350,-0.34219
18.56243,-0.34739
18.32136,-0.35812
18.08029,-0.35972
17.83922,-0.34192
17.59815,-0.31390
17.35708,-0.29291
17.11601,-0.28613
16.87494,-0.28968
16.63387,-0.29961
16.39280,-0.31412
16.15173,-0.32763
15.91066,-0.33232
15.66959,-0.32546
15.42852,-0.31311
15.18745,-0.30416
14.94637,-0.30527
14.70530,-0.31977
14.46423,-0.34302
14.22316,-0.36285
13.98209,-0.36765
13.74102,-0.35662
13.49995,-0.34156
13.25888,-0.33698
13.01781,-0.34999
12.77674,-0.37176
12.53567,-0.38048
12.29460,-0.36667
12.05353,-0.34620
11.81246,-0.33796
11.57139,-0.34279
11.33032,-0.34880
11.08925,-0.34728
10.84818,-0.33931
10.60710,-0.33365
10.36603,-0.33572
10.12496,-0.34162
9.88389,-0.34605
9.64282,-0.34844
9.40175,-0.35067
9.16068,-0.35573
8.91961,-0.36481
8.67854,-0.37385
8.43747,-0.37742
8.19640,-0.37357
7.95533,-0.36679
7.71426,-0.36357
7.47319,-0.36380
7.23212,-0.35983
6.99105,-0.34897
6.74998,-0.34049
6.50891,-0.34099
6.26783,-0.34810
6.02676,-0.35698
5.78569,-0.36050
5.54462,-0.35499
5.30355,-0.34733
5.06248,-0.34600
4.82141,-0.35194
4.58034,-0.36369
4.33927,-0.37046
4.09820,-0.35673
3.85713,-0.33128
3.61606,-0.31668
3.37499,-0.31735
3.13392,-0.32355
2.89285,-0.32710
2.65178,-0.32286
2.41071,-0.31860
2.16964,-0.32830
1.92856,-0.34507
1.68749,-0.35577
1.44642,-0.35818
1.20535,-0.34917
0.96428,-0.33071
0.72321,-0.33468
0.48214,-0.39691
0.24107,-0.42502
-0.00000,-0.24702
