399.69498,1.46902
399.45391,1.46958
399.21284,1.46751
398.97177,1.46509
398.73070,1.46793
398.48963,1.47533
398.24856,1.47956
398.00749,1.47802
397.76642,1.47647
397.52535,1.47890
397.28428,1.48293
397.04321,1.48405
396.80214,1.48075
396.56107,1.47624
396.32000,1.47499
396.07892,1.47717
395.83785,1.48049
395.59678,1.48538
395.35571,1.49261
395.11464,1.49841
394.87357,1.49698
394.63250,1.48657
394.39143,1.46983
394.15036,1.45167
393.90929,1.43889
393.66822,1.43569
393.42715,1.44028
393.18608,1.44735
392.94501,1.45164
392.70394,1.45035
392.46287,1.44492
392.22180,1.44070
391.98073,1.44136
391.73965,1.44449
391.49858,1.44779
391.25751,1.45234
391.01644,1.45778
390.77537,1.46242
390.53430,1.46754
390.29323,1.47464
390.05216,1.47822
389.81109,1.46982
389.57002,1.44907
389.32895,1.42290
389.08788,1.39850
388.84681,1.38078
388.60574,1.37123
388.36467,1.36808
388.12360,1.36937
387.88253,1.37399
387.64146,1.37863
387.40038,1.37769
387.15931,1.36703
386.91824,1.34642
386.67717,1.32189
386.43610,1.30348
386.19503,1.29724
385.95396,1.30242
385.71289,1.31473
385.47182,1.32730
385.23075,1.33095
384.98968,1.32189
384.74861,1.30703
384.50754,1.29515
384.26647,1.28687
384.02540,1.27601
383.78433,1.25887
383.54326,1.24003
383.30219,1.22557
383.06111,1.21367
382.82004,1.19844
382.57897,1.18182
382.33790,1.17258
382.09683,1.17533
381.85576,1.18890
381.61469,1.21073
381.37362,1.23441
381.13255,1.24667
380.89148,1.23913
380.65041,1.22243
380.40934,1.21320
380.16827,1.21351
379.92720,1.21554
379.68613,1.21897
379.44506,1.23067
379.20399,1.24829
378.96292,1.25820
378.72184,1.25256
378.48077,1.23912
378.23970,1.23002
377.99863,1.22733
377.75756,1.22487
377.51649,1.22039
377.27542,1.21928
377.03435,1.22610
376.79328,1.23668
376.55221,1.24215
376.31114,1.24201
376.07007,1.24637
375.82900,1.25995
375.58793,1.27544
375.34686,1.28755
375.10579,1.30203
374.86472,1.32144
374.62365,1.33492
374.38257,1.33180
374.14150,1.31767
373.90043,1.30776
373.65936,1.31089
373.41829,1.32416
373.17722,1.33807
372.93615,1.34530
372.69508,1.34509
372.45401,1.34168
372.21294,1.34321
371.97187,1.35500
371.73080,1.37341
371.48973,1.38997
371.24866,1.39775
371.00759,1.39249
370.76652,1.37642
370.52545,1.36126
370.28437,1.35592
370.04330,1.35556
369.80223,1.35176
369.56116,1.34592
369.32009,1.34304
369.07902,1.34092
368.83795,1.33389
368.59688,1.32308
368.35581,1.31515
368.11474,1.31345
367.87367,1.31692
367.63260,1.32388
367.39153,1.33118
367.15046,1.33314
366.90939,1.32750
366.66832,1.32001
366.42725,1.31720
366.18618,1.31814
365.94510,1.31725
365.70403,1.31359
365.46296,1.31360
365.22189,1.32242
364.98082,1.33535
364.73975,1.34108
364.49868,1.33450
364.25761,1.32285
364.01654,1.31584
363.77547,1.31490
363.53440,1.31440
363.29333,1.30909
363.05226,1.29773
362.81119,1.28211
362.57012,1.26715
362.32905,1.25926
362.08798,1.26116
361.84691,1.26856
361.60583,1.27214
361.36476,1.26558
361.12369,1.25214
360.88262,1.24026
360.64155,1.23527
360.40048,1.23679
360.15941,1.24147
359.91834,1.24641
359.67727,1.25034
359.43620,1.25347
359.19513,1.25603
358.95406,1.25622
358.71299,1.25149
358.47192,1.24260
358.23085,1.23347
357.98978,1.22692
357.74871,1.22381
357.50764,1.22427
357.26656,1.22661
357.02549,1.22864
356.78442,1.23068
356.54335,1.23301
356.30228,1.23288
356.06121,1.22908
355.82014,1.22514
355.57907,1.22411
355.33800,1.22426
355.09693,1.22347
354.85586,1.22318
354.61479,1.22512
354.37372,1.22843
354.13265,1.23031
353.89158,1.22981
353.65051,1.22896
353.40944,1.22817
353.16837,1.22645
352.92729,1.22513
352.68622,1.22537
352.44515,1.22361
352.20408,1.21586
351.96301,1.20513
351.72194,1.19789
351.48087,1.19527
351.23980,1.19329
350.99873,1.18970
350.75766,1.18666
350.51659,1.18659
350.27552,1.18813
350.03445,1.18894
349.79338,1.19142
349.55231,1.20106
349.31124,1.21774
349.07017,1.23148
348.82910,1.23265
348.58802,1.22480
348.34695,1.21856
348.10588,1.21688
347.86481,1.21501
347.62374,1.21106
347.38267,1.20814
347.14160,1.20776
346.90053,1.20866
346.65946,1.21088
346.41839,1.21630
346.17732,1.22460
345.93625,1.23153
345.69518,1.23348
345.45411,1.23234
345.21304,1.23281
344.97197,1.23709
344.73090,1.24362
344.48983,1.24836
344.24875,1.24940
344.00768,1.24992
343.76661,1.25327
343.52554,1.25794
343.28447,1.26016
343.04340,1.26005
342.80233,1.26088
342.56126,1.26371
342.32019,1.26640
342.07912,1.26667
341.83805,1.26439
341.59698,1.26133
341.35591,1.26048
341.11484,1.26508
340.87377,1.27547
340.63270,1.28603
340.39163,1.28874
340.15056,1.28173
339.90948,1.27067
339.66841,1.26201
339.42734,1.25910
339.18627,1.26247
338.94520,1.27073
338.70413,1.28124
338.46306,1.29180
338.22199,1.30059
337.98092,1.30473
337.73985,1.30435
337.49878,1.30495
337.25771,1.30997
337.01664,1.31606
336.77557,1.31921
336.53450,1.32067
336.29343,1.32396
336.05236,1.32895
335.81129,1.33123
335.57021,1.32759
335.32914,1.32038
335.08807,1.31445
334.84700,1.31205
334.60593,1.31312
334.36486,1.31570
334.12379,1.31357
333.88272,1.30054
333.64165,1.28058
333.40058,1.26651
333.15951,1.26718
332.91844,1.28084
332.67737,1.29827
332.43630,1.30957
332.19523,1.30824
331.95416,1.29330
331.71309,1.27158
331.47202,1.25318
331.23094,1.24356
330.98987,1.24199
330.74880,1.24371
330.50773,1.24207
330.26666,1.23285
330.02559,1.21839
329.78452,1.20544
329.54345,1.19892
329.30238,1.19935
329.06131,1.20478
328.82024,1.21250
328.57917,1.21876
328.33810,1.22035
328.09703,1.21800
327.85596,1.21614
327.61489,1.21761
327.37382,1.22005
327.13275,1.21860
326.89167,1.21261
326.65060,1.20868
326.40953,1.21223
326.16846,1.21885
325.92739,1.21902
325.68632,1.21003
325.44525,1.19898
325.20418,1.19483
324.96311,1.19877
324.72204,1.20228
324.48097,1.19756
324.23990,1.18768
323.99883,1.18153
323.75776,1.18512
323.51669,1.19928
323.27562,1.21706
323.03455,1.22450
322.79348,1.21466
322.55240,1.19835
322.31133,1.19253
322.07026,1.20231
321.82919,1.21726
321.58812,1.22439
321.34705,1.22355
321.10598,1.22490
320.86491,1.23120
320.62384,1.23348
320.38277,1.22708
320.14170,1.21923
319.90063,1.21536
319.65956,1.21119
319.41849,1.20385
319.17742,1.19949
318.93635,1.20258
318.69528,1.20965
318.45421,1.21594
318.21313,1.21995
317.97206,1.22129
317.73099,1.22136
317.48992,1.22380
317.24885,1.22797
317.00778,1.22728
316.76671,1.21880
316.52564,1.20900
316.28457,1.20674
316.04350,1.21504
315.80243,1.23051
315.56136,1.24597
315.32029,1.25357
315.07922,1.24955
314.83815,1.23754
314.59708,1.22496
314.35601,1.21696
314.11494,1.21397
313.87386,1.21326
313.63279,1.21324
313.39172,1.21559
313.15065,1.22180
312.90958,1.22974
312.66851,1.23572
312.42744,1.23843
312.18637,1.23846
311.94530,1.23807
311.70423,1.24261
311.46316,1.25483
311.22209,1.26724
310.98102,1.26975
310.73995,1.26590
310.49888,1.26652
310.25781,1.27069
310.01674,1.27046
309.77567,1.26544
309.53459,1.26208
309.29352,1.26372
309.05245,1.26930
308.81138,1.28010
308.57031,1.29588
308.32924,1.30871
308.08817,1.31143
307.84710,1.30997
307.60603,1.31413
307.36496,1.32199
307.12389,1.32437
306.88282,1.31939
306.64175,1.31266
306.40068,1.30728
306.15961,1.30300
305.91854,1.30085
305.67747,1.30230
305.43640,1.30561
305.19532,1.30711
304.95425,1.30558
304.71318,1.30195
304.47211,1.29764
304.23104,1.29408
303.98997,1.29153
303.74890,1.28924
303.50783,1.28554
303.26676,1.27951
303.02569,1.27389
302.78462,1.27308
302.54355,1.27765
302.30248,1.28392
302.06141,1.28829
301.82034,1.28990
301.57927,1.29089
301.33820,1.29484
301.09713,1.30212
300.85605,1.30772
300.61498,1.30634
300.37391,1.29865
300.13284,1.28991
299.89177,1.28366
299.65070,1.27995
299.40963,1.27785
299.16856,1.27678
298.92749,1.27619
298.68642,1.27574
298.44535,1.27494
298.20428,1.27241
297.96321,1.26777
297.72214,1.26327
297.48107,1.26092
297.24000,1.25832
296.99893,1.25043
296.75786,1.23695
296.51678,1.22387
296.27571,1.21597
296.03464,1.21337
295.79357,1.21585
295.55250,1.22361
295.31143,1.23283
295.07036,1.23755
294.82929,1.23683
294.58822,1.23413
294.34715,1.23109
294.10608,1.22695
293.86501,1.22122
293.62394,1.21402
293.38287,1.20659
293.14180,1.20127
292.90073,1.19797
292.65966,1.19351
292.41859,1.18688
292.17751,1.18138
291.93644,1.17979
291.69537,1.18086
291.45430,1.18162
291.21323,1.18106
290.97216,1.17996
290.73109,1.17843
290.49002,1.17596
290.24895,1.17398
290.00788,1.17536
289.76681,1.18055
289.52574,1.18639
289.28467,1.18872
289.04360,1.18453
288.80253,1.17358
288.56146,1.15982
288.32039,1.14944
288.07932,1.14562
287.83824,1.14606
287.59717,1.14671
287.35610,1.14729
287.11503,1.15040
286.87396,1.15565
286.63289,1.15844
286.39182,1.15533
286.15075,1.14790
285.90968,1.14000
285.66861,1.13426
285.42754,1.13169
285.18647,1.13206
284.94540,1.13360
284.70433,1.13343
284.46326,1.12983
284.22219,1.12440
283.98112,1.12071
283.74005,1.12050
283.49897,1.12230
283.25790,1.12382
283.01683,1.12461
282.77576,1.12559
282.53469,1.12676
282.29362,1.12724
282.05255,1.12747
281.81148,1.12934
281.57041,1.13319
281.32934,1.13633
281.08827,1.13539
280.84720,1.12947
280.60613,1.12093
280.36506,1.11390
280.12399,1.11219
279.88292,1.11761
279.64185,1.12820
279.40078,1.13802
279.15970,1.14176
278.91863,1.14022
278.67756,1.13865
278.43649,1.13949
278.19542,1.13988
277.95435,1.13727
277.71328,1.13349
277.47221,1.13117
277.23114,1.12963
276.99007,1.12629
276.74900,1.12135
276.50793,1.11837
276.26686,1.12014
276.02579,1.12599
275.78472,1.13265
275.54365,1.13576
275.30258,1.13158
275.06151,1.12042
274.82043,1.10809
274.57936,1.10126
274.33829,1.10199
274.09722,1.10775
273.85615,1.11549
273.61508,1.12355
273.37401,1.13018
273.13294,1.13354
272.89187,1.13402
272.65080,1.13391
272.40973,1.13423
272.16866,1.13419
271.92759,1.13359
271.68652,1.13293
271.44545,1.13240
271.20438,1.13339
270.96331,1.13807
270.72224,1.14503
270.48116,1.14930
270.24009,1.14987
269.99902,1.15134
269.75795,1.15553
269.51688,1.15898
269.27581,1.15998
269.03474,1.16144
268.79367,1.16592
268.55260,1.17271
268.31153,1.17997
268.07046,1.18630
267.82939,1.19072
267.58832,1.19356
267.34725,1.19620
267.10618,1.19886
266.86511,1.20104
266.62404,1.20353
266.38297,1.20715
266.14189,1.21050
265.90082,1.21197
265.65975,1.21283
265.41868,1.21541
265.17761,1.21949
264.93654,1.22358
264.69547,1.22803
264.45440,1.23364
264.21333,1.23910
263.97226,1.24373
263.73119,1.25118
263.49012,1.26558
263.24905,1.28396
263.00798,1.29757
262.76691,1.30307
262.52584,1.30674
262.28477,1.31539
262.04370,1.33034
261.80262,1.35029
261.56155,1.37196
261.32048,1.38834
261.07941,1.39464
260.83834,1.39647
260.59727,1.40460
260.35620,1.42207
260.11513,1.44106
259.87406,1.45389
259.63299,1.46336
259.39192,1.47772
259.15085,1.49995
258.90978,1.52689
258.66871,1.55494
258.42764,1.58105
258.18657,1.60019
257.94550,1.60884
257.70443,1.60963
257.46335,1.61073
257.22228,1.62357
256.98121,1.65295
256.74014,1.68591
256.49907,1.69983
256.25800,1.69057
256.01693,1.67733
255.77586,1.67467
255.53479,1.68095
255.29372,1.68849
255.05265,1.69479
254.81158,1.70198
254.57051,1.70651
254.32944,1.69926
254.08837,1.68188
253.84730,1.66960
253.60623,1.67280
253.36516,1.68892
253.12408,1.71215
252.88301,1.74120
252.64194,1.77045
252.40087,1.78242
252.15980,1.76527
251.91873,1.73179
251.67766,1.70472
251.43659,1.69134
251.19552,1.68132
250.95445,1.66226
250.71338,1.63514
250.47231,1.61218
250.23124,1.60118
249.99017,1.59829
249.74910,1.59633
249.50803,1.59502
249.26696,1.60004
249.02589,1.61152
248.78481,1.61672
248.54374,1.60475
248.30267,1.58452
248.06160,1.57567
247.82053,1.58520
247.57946,1.60166
247.33839,1.61310
247.09732,1.62280
246.85625,1.63893
246.61518,1.66148
246.37411,1.68527
246.13304,1.70528
245.89197,1.71636
245.65090,1.71952
245.40983,1.72338
245.16876,1.73007
244.92769,1.73100
244.68661,1.72423
244.44554,1.72102
244.20447,1.73366
243.96340,1.76037
243.72233,1.77880
243.48126,1.77715
243.24019,1.78143
242.99912,1.81856
242.75805,1.88775
242.51698,1.95518
242.27591,1.98749
242.03484,1.98364
241.79377,1.94192
241.55270,1.86862
241.31163,1.79771
241.07056,1.74715
240.82949,1.71119
240.58842,1.67575
240.34734,1.63310
240.10627,1.58830
239.86520,1.55062
239.62413,1.52106
239.38306,1.49251
239.14199,1.45917
238.90092,1.42238
238.65985,1.38693
238.41878,1.35591
238.17771,1.32977
237.93664,1.30647
237.69557,1.28249
237.45450,1.25574
237.21343,1.22829
236.97236,1.20561
236.73129,1.19102
236.49022,1.18067
236.24915,1.16699
236.00807,1.14822
235.76700,1.12965
235.52593,1.11578
235.28486,1.10643
235.04379,1.09889
234.80272,1.09075
234.56165,1.08118
234.32058,1.07122
234.07951,1.06348
233.83844,1.05961
233.59737,1.05691
233.35630,1.05016
233.11523,1.03836
232.87416,1.02612
232.63309,1.01754
232.39202,1.01164
232.15095,1.00422
231.90988,0.99386
231.66880,0.98432
231.42773,0.97934
231.18666,0.97774
230.94559,0.97586
230.70452,0.97279
230.46345,0.96990
230.22238,0.96673
229.98131,0.96112
229.74024,0.95298
229.49917,0.94492
229.25810,0.93907
229.01703,0.93458
228.77596,0.92947
228.53489,0.92375
228.29382,0.91846
228.05275,0.91296
227.81168,0.90555
227.57061,0.89628
227.32953,0.88712
227.08846,0.88057
226.84739,0.87839
226.60632,0.88009
226.36525,0.88216
226.12418,0.88004
225.88311,0.87218
225.64204,0.86224
225.40097,0.85613
225.15990,0.85640
224.91883,0.85998
224.67776,0.86220
224.43669,0.86183
224.19562,0.86083
223.95455,0.86063
223.71348,0.86033
223.47241,0.85838
223.23134,0.85582
222.99026,0.85613
222.74919,0.85997
222.50812,0.86303
222.26705,0.86231
222.02598,0.86112
221.78491,0.86322
221.54384,0.86672
221.30277,0.86824
221.06170,0.86879
220.82063,0.87100
220.57956,0.87508
220.33849,0.88028
220.09742,0.88677
219.85635,0.89443
219.61528,0.90210
219.37421,0.90908
219.13314,0.91608
218.89207,0.92366
218.65099,0.93062
218.40992,0.93505
218.16885,0.93722
217.92778,0.93992
217.68671,0.94604
217.44564,0.95597
217.20457,0.96672
216.96350,0.97481
216.72243,0.98051
216.48136,0.98657
216.24029,0.99314
215.99922,0.99809
215.75815,1.00173
215.51708,1.00741
215.27601,1.01761
215.03494,1.03131
214.79387,1.04454
214.55280,1.05422
214.31172,1.06215
214.07065,1.07224
213.82958,1.08379
213.58851,1.09278
213.34744,1.09907
213.10637,1.10573
212.86530,1.11302
212.62423,1.11768
212.38316,1.11778
212.14209,1.11507
211.90102,1.11201
211.65995,1.10928
211.41888,1.10724
211.17781,1.10715
210.93674,1.10891
210.69567,1.11010
210.45460,1.10869
210.21353,1.10557
209.97245,1.10364
209.73138,1.10499
209.49031,1.10917
209.24924,1.11428
209.00817,1.11862
208.76710,1.12071
208.52603,1.11924
208.28496,1.11491
208.04389,1.11098
207.80282,1.10944
207.56175,1.10755
207.32068,1.10108
207.07961,1.09024
206.83854,1.07913
206.59747,1.07096
206.35640,1.06598
206.11533,1.06229
205.87426,1.05693
205.63318,1.04810
205.39211,1.03692
205.15104,1.02646
204.90997,1.01961
204.66890,1.01787
204.42783,1.01983
204.18676,1.02108
203.94569,1.01824
203.70462,1.01273
203.46355,1.00805
203.22248,1.00484
202.98141,1.00096
202.74034,0.99499
202.49927,0.98710
202.25820,0.97723
202.01713,0.96478
201.77606,0.94980
201.53499,0.93309
201.29391,0.91588
201.05284,0.89998
200.81177,0.88731
200.57070,0.87837
200.32963,0.87141
200.08856,0.86436
199.84749,0.85704
199.60642,0.85046
199.36535,0.84440
199.12428,0.83683
198.88321,0.82651
198.64214,0.81523
198.40107,0.80598
198.16000,0.79923
197.91893,0.79256
197.67786,0.78415
197.43679,0.77499
197.19572,0.76737
196.95464,0.76206
196.71357,0.75774
196.47250,0.75254
196.23143,0.74570
195.99036,0.73762
195.74929,0.72888
195.50822,0.71965
195.26715,0.71033
195.02608,0.70241
194.78501,0.69746
194.54394,0.69526
194.30287,0.69401
194.06180,0.69223
193.82073,0.68957
193.57966,0.68579
193.33859,0.68031
193.09752,0.67292
192.85645,0.66423
192.61537,0.65568
192.37430,0.64895
192.13323,0.64511
191.89216,0.64422
191.65109,0.64515
191.41002,0.64537
191.16895,0.64171
190.92788,0.63304
190.68681,0.62184
190.44574,0.61226
190.20467,0.60682
189.96360,0.60522
189.72253,0.60530
189.48146,0.60455
189.24039,0.60176
188.99932,0.59742
188.75825,0.59271
188.51718,0.58847
188.27610,0.58544
188.03503,0.58463
187.79396,0.58599
187.55289,0.58729
187.31182,0.58526
187.07075,0.57899
186.82968,0.57181
186.58861,0.56863
186.34754,0.57103
186.10647,0.57535
185.86540,0.57638
185.62433,0.57294
185.38326,0.56839
185.14219,0.56649
184.90112,0.56840
184.66005,0.57253
184.41898,0.57579
184.17791,0.57619
183.93683,0.57456
183.69576,0.57296
183.45469,0.57212
183.21362,0.57126
182.97255,0.56987
182.73148,0.56853
182.49041,0.56835
182.24934,0.56973
182.00827,0.57160
181.76720,0.57259
181.52613,0.57287
181.28506,0.57343
181.04399,0.57408
180.80292,0.57398
180.56185,0.57367
180.32078,0.57451
180.07971,0.57624
179.83864,0.57721
179.59756,0.57729
179.35649,0.57861
179.11542,0.58331
178.87435,0.59098
178.63328,0.59854
178.39221,0.60377
178.15114,0.60865
177.91007,0.61614
177.66900,0.62521
177.42793,0.63321
177.18686,0.64162
176.94579,0.65361
176.70472,0.66754
176.46365,0.67878
176.22258,0.68653
175.98151,0.69396
175.74044,0.70314
175.49937,0.71366
175.25829,0.72453
175.01722,0.73526
174.77615,0.74610
174.53508,0.75793
174.29401,0.77112
174.05294,0.78430
173.81187,0.79517
173.57080,0.80274
173.32973,0.80811
173.08866,0.81266
172.84759,0.81673
172.60652,0.82028
172.36545,0.82353
172.12438,0.82647
171.88331,0.82866
171.64224,0.82965
171.40117,0.82990
171.16010,0.83148
170.91902,0.83613
170.67795,0.84204
170.43688,0.84462
170.19581,0.84115
169.95474,0.83284
169.71367,0.82225
169.47260,0.81192
169.23153,0.80451
168.99046,0.80096
168.74939,0.79911
168.50832,0.79660
168.26725,0.79416
168.02618,0.79399
167.78511,0.79600
167.54404,0.79792
167.30297,0.79846
167.06190,0.79846
166.82083,0.79929
166.57975,0.80169
166.33868,0.80556
166.09761,0.80970
165.85654,0.81231
165.61547,0.81296
165.37440,0.81342
165.13333,0.81566
164.89226,0.81945
164.65119,0.82326
164.41012,0.82670
164.16905,0.83052
163.92798,0.83470
163.68691,0.83865
163.44584,0.84267
163.20477,0.84772
162.96370,0.85365
162.72263,0.85871
162.48156,0.86077
162.24048,0.85965
161.99941,0.85777
161.75834,0.85760
161.51727,0.85924
161.27620,0.86121
161.03513,0.86275
160.79406,0.86423
160.55299,0.86544
160.31192,0.86500
160.07085,0.86238
159.82978,0.85972
159.58871,0.85989
159.34764,0.86255
159.10657,0.86432
158.86550,0.86305
158.62443,0.86024
158.38336,0.85878
158.14229,0.85947
157.90121,0.86008
157.66014,0.85824
157.41907,0.85498
157.17800,0.85288
156.93693,0.85131
156.69586,0.84738
156.45479,0.84142
156.21372,0.83699
155.97265,0.83522
155.73158,0.83343
155.49051,0.82978
155.24944,0.82549
155.00837,0.82188
154.76730,0.81785
154.52623,0.81161
154.28516,0.80358
154.04409,0.79576
153.80302,0.78873
153.56194,0.78154
153.32087,0.77399
153.07980,0.76659
152.83873,0.75834
152.59766,0.74700
152.35659,0.73239
152.11552,0.71749
151.87445,0.70489
151.63338,0.69390
151.39231,0.68284
151.15124,0.67235
150.91017,0.66379
150.66910,0.65597
150.42803,0.64676
150.18696,0.63697
149.94589,0.62921
149.70482,0.62391
149.46375,0.61916
149.22267,0.61341
148.98160,0.60652
148.74053,0.59875
148.49946,0.59029
148.25839,0.58204
148.01732,0.57571
147.77625,0.57172
147.53518,0.56796
147.29411,0.56232
147.05304,0.55596
146.81197,0.55220
146.57090,0.55256
146.32983,0.55558
146.08876,0.55903
145.84769,0.56205
145.60662,0.56474
145.36555,0.56664
145.12448,0.56695
144.88340,0.56642
144.64233,0.56745
144.40126,0.57145
144.16019,0.57745
143.91912,0.58335
143.67805,0.58722
143.43698,0.58754
143.19591,0.58355
142.95484,0.57570
142.71377,0.56560
142.47270,0.55545
142.23163,0.54689
141.99056,0.53980
141.74949,0.53279
141.50842,0.52510
141.26735,0.51735
141.02628,0.51035
140.78521,0.50427
140.54413,0.49951
140.30306,0.49708
140.06199,0.49713
139.82092,0.49825
139.57985,0.49945
139.33878,0.50166
139.09771,0.50590
138.85664,0.51121
138.61557,0.51578
138.37450,0.51917
138.13343,0.52233
137.89236,0.52644
137.65129,0.53222
137.41022,0.53973
137.16915,0.54842
136.92808,0.55783
136.68701,0.56800
136.44594,0.57935
136.20486,0.59226
135.96379,0.60704
135.72272,0.62384
135.48165,0.64219
135.24058,0.66048
134.99951,0.67707
134.75844,0.69271
134.51737,0.71079
134.27630,0.73358
134.03523,0.75869
133.79416,0.78193
133.55309,0.80351
133.31202,0.82775
133.07095,0.85617
132.82988,0.88472
132.58881,0.90825
132.34774,0.92502
132.10667,0.93757
131.86559,0.95127
131.62452,0.96923
131.38345,0.98670
131.14238,0.99446
130.90131,0.99003
130.66024,0.98112
130.41917,0.97664
130.17810,0.97796
129.93703,0.97978
129.69596,0.97741
129.45489,0.96987
129.21382,0.95730
128.97275,0.94036
128.73168,0.92236
128.49061,0.90627
128.24954,0.88986
128.00847,0.86832
127.76740,0.84138
127.52632,0.81400
127.28525,0.79061
127.04418,0.77082
126.80311,0.75129
126.56204,0.73082
126.32097,0.71133
126.07990,0.69376
125.83883,0.67596
125.59776,0.65588
125.35669,0.63457
125.11562,0.61502
124.87455,0.59891
124.63348,0.58558
124.39241,0.57373
124.15134,0.56286
123.91027,0.55242
123.66920,0.54120
123.42812,0.52890
123.18705,0.51740
122.94598,0.50896
122.70491,0.50378
122.46384,0.50062
122.22277,0.49851
121.98170,0.49676
121.74063,0.49447
121.49956,0.49113
121.25849,0.48735
121.01742,0.48446
120.77635,0.48392
120.53528,0.48665
120.29421,0.49196
120.05314,0.49772
119.81207,0.50267
119.57100,0.50818
119.32993,0.51748
119.08885,0.53361
118.84778,0.55731
118.60671,0.58584
118.36564,0.61487
118.12457,0.64237
117.88350,0.66946
117.64243,0.69674
117.40136,0.72202
117.16029,0.74257
116.91922,0.75734
116.67815,0.76668
116.43708,0.77191
116.19601,0.77482
115.95494,0.77573
115.71387,0.77298
115.47280,0.76584
115.23173,0.75670
114.99066,0.74866
114.74958,0.74281
114.50851,0.73849
114.26744,0.73402
114.02637,0.72738
113.78530,0.71843
113.54423,0.70994
113.30316,0.70502
113.06209,0.70449
112.82102,0.70730
112.57995,0.71202
112.33888,0.71732
112.09781,0.72187
111.85674,0.72452
111.61567,0.72554
111.37460,0.72758
111.13353,0.73349
110.89246,0.74244
110.65139,0.74979
110.41031,0.75145
110.16924,0.74783
109.92817,0.74185
109.68710,0.73416
109.44603,0.72395
109.20496,0.71300
108.96389,0.70393
108.72282,0.69466
108.48175,0.67988
108.24068,0.65852
107.99961,0.63494
107.75854,0.61255
107.51747,0.59063
107.27640,0.56839
107.03533,0.54846
106.79426,0.53380
106.55319,0.52327
106.31212,0.51281
106.07104,0.50025
105.82997,0.48703
105.58890,0.47571
105.34783,0.46733
105.10676,0.46113
104.86569,0.45552
104.62462,0.44888
104.38355,0.44041
104.14248,0.43051
103.90141,0.42020
103.66034,0.41023
103.41927,0.40071
103.17820,0.39196
102.93713,0.38496
102.69606,0.37997
102.45499,0.37518
102.21392,0.36833
101.97285,0.35966
101.73177,0.35172
101.49070,0.34644
101.24963,0.34385
101.00856,0.34295
100.76749,0.34257
100.52642,0.34144
100.28535,0.33855
100.04428,0.33394
99.80321,0.32883
99.56214,0.32466
99.32107,0.32157
99.08000,0.31771
98.83893,0.31119
98.59786,0.30277
98.35679,0.29504
98.11572,0.28921
97.87465,0.28462
97.63358,0.28120
97.39250,0.28084
97.15143,0.28510
96.91036,0.29266
96.66929,0.30000
96.42822,0.30468
96.18715,0.30665
95.94608,0.30650
95.70501,0.30477
95.46394,0.30347
95.22287,0.30645
94.98180,0.31654
94.74073,0.33212
94.49966,0.34614
94.25859,0.35031
94.01752,0.34299
93.77645,0.33189
93.53538,0.32615
93.29431,0.32939
93.05323,0.33878
92.81216,0.34621
92.57109,0.34373
92.33002,0.33319
92.08895,0.32502
91.84788,0.32607
91.60681,0.33319
91.36574,0.33874
91.12467,0.34125
90.88360,0.34714
90.64253,0.36193
90.40146,0.38388
90.16039,0.40708
89.91932,0.43129
89.67825,0.46458
89.43718,0.50931
89.19611,0.55180
88.95504,0.58085
88.71396,0.60836
88.47289,0.64603
88.23182,0.67847
87.99075,0.68379
87.74968,0.67059
87.50861,0.65810
87.26754,0.64723
87.02647,0.62888
86.78540,0.60160
86.54433,0.57060
86.30326,0.53923
86.06219,0.50959
85.82112,0.48499
85.58005,0.46665
85.33898,0.45086
85.09791,0.43281
84.85684,0.41223
84.61577,0.39215
84.37469,0.37463
84.13362,0.36017
83.89255,0.34863
83.65148,0.33889
83.41041,0.32947
83.16934,0.31998
82.92827,0.31116
82.68720,0.30335
82.44613,0.29560
82.20506,0.28671
81.96399,0.27759
81.72292,0.27100
81.48185,0.26799
81.24078,0.26666
80.99971,0.26505
80.75864,0.26299
80.51757,0.26049
80.27650,0.25709
80.03542,0.25302
79.79435,0.24899
79.55328,0.24537
79.31221,0.24256
79.07114,0.24106
78.83007,0.24029
78.58900,0.23859
78.34793,0.23503
78.10686,0.23024
77.86579,0.22509
77.62472,0.21987
77.38365,0.21483
77.14258,0.21040
76.90151,0.20689
76.66044,0.20448
76.41937,0.20336
76.17830,0.20338
75.93723,0.20405
75.69615,0.20444
75.45508,0.20294
75.21401,0.19852
74.97294,0.19289
74.73187,0.18971
74.49080,0.19109
74.24973,0.19571
74.00866,0.20044
73.76759,0.20343
73.52652,0.20498
73.28545,0.20473
73.04438,0.20073
72.80331,0.19367
72.56224,0.18853
72.32117,0.18832
72.08010,0.18998
71.83903,0.18991
71.59796,0.18901
71.35688,0.18897
71.11581,0.18835
70.87474,0.18591
70.63367,0.18434
70.39260,0.18743
70.15153,0.19606
69.91046,0.20882
69.66939,0.22473
69.42832,0.24285
69.18725,0.25936
68.94618,0.26851
68.70511,0.26883
68.46404,0.26430
68.22297,0.25768
67.98190,0.24738
67.74083,0.23264
67.49976,0.21795
67.25869,0.20924
67.01761,0.20729
66.77654,0.20606
66.53547,0.19956
66.29440,0.19027
66.05333,0.18536
65.81226,0.18755
65.57119,0.19254
65.33012,0.19386
65.08905,0.19095
64.84798,0.19018
64.60691,0.19789
64.36584,0.21554
64.12477,0.23928
63.88370,0.26057
63.64263,0.26861
63.40156,0.25814
63.16049,0.23557
62.91942,0.21325
62.67834,0.20025
62.43727,0.19843
62.19620,0.20370
61.95513,0.20999
61.71406,0.21164
61.47299,0.20416
61.23192,0.18691
60.99085,0.16470
60.74978,0.14434
60.50871,0.13001
60.26764,0.12194
60.02657,0.11855
59.78550,0.11932
59.54443,0.12452
59.30336,0.13257
59.06229,0.14037
58.82122,0.14646
58.58015,0.15181
58.33907,0.15744
58.09800,0.16283
57.85693,0.16669
57.61586,0.16805
57.37479,0.16675
57.13372,0.16327
56.89265,0.15878
56.65158,0.15482
56.41051,0.15236
56.16944,0.15132
55.92837,0.15115
55.68730,0.15176
55.44623,0.15410
55.20516,0.15927
54.96409,0.16664
54.72302,0.17396
54.48195,0.17999
54.24088,0.18603
53.99980,0.19427
53.75873,0.20590
53.51766,0.22041
53.27659,0.23537
53.03552,0.24755
52.79445,0.25453
52.55338,0.25488
52.31231,0.24660
52.07124,0.22723
51.83017,0.19840
51.58910,0.16779
51.34803,0.14298
51.10696,0.12654
50.86589,0.11672
50.62482,0.11083
50.38375,0.10799
50.14268,0.10984
49.90161,0.11965
49.66053,0.14014
49.41946,0.17116
49.17839,0.21051
48.93732,0.25548
48.69625,0.29018
48.45518,0.27877
48.21411,0.22261
47.97304,0.15951
47.73197,0.11519
47.49090,0.10433
47.24983,0.13674
47.00876,0.21506
46.76769,0.29696
46.52662,0.27075
46.28555,0.18749
46.04448,0.13781
45.80341,0.13811
45.56234,0.17605
45.32126,0.20150
45.08019,0.17554
44.83912,0.14993
44.59805,0.15905
44.35698,0.17602
44.11591,0.16340
43.87484,0.14612
43.63377,0.15278
43.39270,0.16652
43.15163,0.16433
42.91056,0.15875
42.66949,0.16530
42.42842,0.17841
42.18735,0.18414
41.94628,0.17856
41.70521,0.16845
41.46414,0.16074
41.22307,0.15654
40.98199,0.15277
40.74092,0.14764
40.49985,0.14333
40.25878,0.14617
40.01771,0.15984
39.77664,0.17696
39.53557,0.18794
39.29450,0.19434
39.05343,0.20279
38.81236,0.21435
38.57129,0.22711
38.33022,0.24109
38.08915,0.25512
37.84808,0.26641
37.60701,0.27387
37.36594,0.27642
37.12487,0.27766
36.88380,0.28109
36.64272,0.27820
36.40165,0.26040
36.16058,0.23770
35.91951,0.22599
35.67844,0.22703
35.43737,0.22910
35.19630,0.22541
34.95523,0.22258
34.71416,0.22257
34.47309,0.21439
34.23202,0.19410
33.99095,0.17483
33.74988,0.16841
33.50881,0.17047
33.26774,0.17007
33.02667,0.16567
32.78560,0.16153
32.54453,0.15616
32.30345,0.14258
32.06238,0.11957
31.82131,0.09572
31.58024,0.07893
31.33917,0.06887
31.09810,0.06113
30.85703,0.05367
30.61596,0.04561
30.37489,0.03401
30.13382,0.01601
29.89275,-0.00653
29.65168,-0.02667
29.41061,-0.03722
29.16954,-0.03484
28.92847,-0.02231
28.68740,-0.00963
28.44633,-0.00878
28.20526,-0.02406
27.96418,-0.04542
27.72311,-0.05745
27.48204,-0.05472
27.24097,-0.04495
26.99990,-0.04016
26.75883,-0.04603
26.51776,-0.06322
26.27669,-0.09191
26.03562,-0.12802
25.79455,-0.16122
25.55348,-0.18072
25.31241,-0.18296
25.07134,-0.17582
24.83027,-0.17408
24.58920,-0.18646
24.34813,-0.20924
24.10706,-0.23020
23.86599,-0.23733
23.62491,-0.22797
23.38384,-0.20788
23.14277,-0.18385
22.90170,-0.16316
22.66063,-0.15403
22.41956,-0.15820
22.17849,-0.16978
21.93742,-0.18417
21.69635,-0.19997
21.45528,-0.21341
21.21421,-0.22109
20.97314,-0.22467
20.73207,-0.22860
20.49100,-0.23705
20.24993,-0.25021
20.00886,-0.26163
19.76779,-0.26477
19.52672,-0.25869
19.28564,-0.24814
19.04457,-0.24347
18.80350,-0.25644
18.56243,-0.28830
18.32136,-0.32254
18.08029,-0.33920
17.83922,-0.33480
17.59815,-0.32382
17.35708,-0.32344
17.11601,-0.33635
16.87494,-0.35492
16.63387,-0.37208
16.39280,-0.38161
16.15173,-0.37913
15.91066,-0.37054
15.66959,-0.36539
15.42852,-0.36220
15.18745,-0.35489
14.94637,-0.34675
14.70530,-0.34655
14.46423,-0.35573
14.22316,-0.36541
13.98209,-0.36989
13.74102,-0.37011
13.49995,-0.37785
13.25888,-0.40148
13.01781,-0.42517
12.77674,-0.42808
12.53567,-0.41087
12.29460,-0.38565
12.05353,-0.36368
11.81246,-0.34856
11.57139,-0.33740
11.33032,-0.33193
11.08925,-0.33474
10.84818,-0.34529
10.60710,-0.36331
10.36603,-0.38528
10.12496,-0.40348
9.88389,-0.41366
9.64282,-0.41639
9.40175,-0.41457
9.16068,-0.41067
8.91961,-0.40346
8.67854,-0.39006
8.43747,-0.37624
8.19640,-0.37012
7.95533,-0.37201
7.71426,-0.37801
7.47319,-0.38527
7.23212,-0.39258
6.99105,-0.40345
6.74998,-0.41530
6.50891,-0.41794
6.26783,-0.41221
6.02676,-0.40622
5.78569,-0.39988
5.54462,-0.38741
5.30355,-0.36920
5.06248,-0.35161
4.82141,-0.34273
4.58034,-0.34994
4.33927,-0.36776
4.09820,-0.37994
3.85713,-0.38465
3.61606,-0.38826
3.37499,-0.38757
3.13392,-0.38115
2.89285,-0.37894
2.65178,-0.38101
2.41071,-0.37383
2.16964,-0.35707
1.92856,-0.33396
1.68749,-0.31175
1.44642,-0.30649
1.20535,-0.31570
0.96428,-0.32673
0.72321,-0.35880
0.48214,-0.43905
0.24107,-0.46140
-0.00000,-0.32384
