399.69498,1.42976
399.45391,1.43729
399.21284,1.45177
398.97177,1.46335
398.73070,1.46489
398.48963,1.45857
398.24856,1.44989
398.00749,1.44185
397.76642,1.43651
397.52535,1.43625
397.28428,1.44009
397.04321,1.44396
396.80214,1.44554
396.56107,1.44403
396.32000,1.43725
396.07892,1.42613
395.83785,1.41830
395.59678,1.41890
395.35571,1.42386
395.11464,1.42690
394.87357,1.42800
394.63250,1.43013
394.39143,1.43066
394.15036,1.42536
393.90929,1.41724
393.66822,1.41355
393.42715,1.41636
393.18608,1.42042
392.94501,1.42041
392.70394,1.41622
392.46287,1.41069
392.22180,1.40624
391.98073,1.40292
391.73965,1.39831
391.49858,1.39152
391.25751,1.38406
391.01644,1.37874
390.77537,1.38023
390.53430,1.39113
390.29323,1.40350
390.05216,1.40153
389.81109,1.38113
389.57002,1.35772
389.32895,1.34867
389.08788,1.35714
388.84681,1.37332
388.60574,1.38572
388.36467,1.39014
388.12360,1.38905
387.88253,1.38676
387.64146,1.38577
387.40038,1.38264
387.15931,1.37045
386.91824,1.35051
386.67717,1.33147
386.43610,1.31942
386.19503,1.31422
385.95396,1.31151
385.71289,1.30841
385.47182,1.30554
385.23075,1.30322
384.98968,1.29855
384.74861,1.28765
384.50754,1.26893
384.26647,1.24582
384.02540,1.22750
383.78433,1.22221
383.54326,1.22808
383.30219,1.23272
383.06111,1.22633
382.82004,1.21265
382.57897,1.20070
382.33790,1.19108
382.09683,1.17917
381.85576,1.16769
381.61469,1.16260
381.37362,1.16024
381.13255,1.15180
380.89148,1.13776
380.65041,1.12833
380.40934,1.13158
380.16827,1.14610
379.92720,1.16333
379.68613,1.17525
379.44506,1.17932
379.20399,1.17734
378.96292,1.17482
378.72184,1.17822
378.48077,1.18774
378.23970,1.19711
377.99863,1.20359
377.75756,1.21214
377.51649,1.22596
377.27542,1.24084
377.03435,1.25201
376.79328,1.25944
376.55221,1.26500
376.31114,1.26984
376.07007,1.27367
375.82900,1.27579
375.58793,1.27799
375.34686,1.28311
375.10579,1.29211
374.86472,1.30250
374.62365,1.30909
374.38257,1.31011
374.14150,1.31058
373.90043,1.31715
373.65936,1.32901
373.41829,1.33749
373.17722,1.33684
372.93615,1.33073
372.69508,1.32532
372.45401,1.32196
372.21294,1.31935
371.97187,1.31753
371.73080,1.31666
371.48973,1.31656
371.24866,1.31872
371.00759,1.32420
370.76652,1.32820
370.52545,1.32407
370.28437,1.31508
370.04330,1.31227
369.80223,1.31990
369.56116,1.33125
369.32009,1.33870
369.07902,1.34076
368.83795,1.33824
368.59688,1.33169
368.35581,1.32417
368.11474,1.31880
367.87367,1.31438
367.63260,1.30925
367.39153,1.30572
367.15046,1.30569
366.90939,1.30525
366.66832,1.29935
366.42725,1.28964
366.18618,1.28144
365.94510,1.27636
365.70403,1.27308
365.46296,1.27110
365.22189,1.26967
364.98082,1.26634
364.73975,1.25935
364.49868,1.24969
364.25761,1.24031
364.01654,1.23529
363.77547,1.23858
363.53440,1.24994
363.29333,1.26249
363.05226,1.26820
362.81119,1.26586
362.57012,1.26018
362.32905,1.25466
362.08798,1.24920
361.84691,1.24279
361.60583,1.23583
361.36476,1.23010
361.12369,1.22678
360.88262,1.22545
360.64155,1.22529
360.40048,1.22569
360.15941,1.22615
359.91834,1.22681
359.67727,1.22824
359.43620,1.22956
359.19513,1.22803
358.95406,1.22199
358.71299,1.21277
358.47192,1.20296
358.23085,1.19411
357.98978,1.18715
357.74871,1.18280
357.50764,1.18089
357.26656,1.18101
357.02549,1.18409
356.78442,1.19124
356.54335,1.20045
356.30228,1.20615
356.06121,1.20387
355.82014,1.19556
355.57907,1.18868
355.33800,1.18961
355.09693,1.19755
354.85586,1.20488
354.61479,1.20596
354.37372,1.20278
354.13265,1.19965
353.89158,1.19740
353.65051,1.19544
353.40944,1.19461
353.16837,1.19518
352.92729,1.19582
352.68622,1.19626
352.44515,1.19737
352.20408,1.19883
351.96301,1.19895
351.72194,1.19639
351.48087,1.19159
351.23980,1.18705
350.99873,1.18598
350.75766,1.18986
350.51659,1.19640
350.27552,1.19994
350.03445,1.19656
349.79338,1.18911
349.55231,1.18354
349.31124,1.18148
349.07017,1.17982
348.82910,1.17669
348.58802,1.17432
348.34695,1.17586
348.10588,1.18179
347.86481,1.18951
347.62374,1.19580
347.38267,1.19913
347.14160,1.19990
346.90053,1.19943
346.65946,1.19885
346.41839,1.19875
346.17732,1.19988
345.93625,1.20343
345.69518,1.20820
345.45411,1.20968
345.21304,1.20682
344.97197,1.20586
344.73090,1.21212
344.48983,1.22169
344.24875,1.22691
344.00768,1.22739
343.76661,1.22873
343.52554,1.23344
343.28447,1.23849
343.04340,1.23888
342.80233,1.23231
342.56126,1.22262
342.32019,1.21752
342.07912,1.22101
341.83805,1.23052
341.59698,1.24145
341.35591,1.25173
341.11484,1.26057
340.87377,1.26690
340.63270,1.27122
340.39163,1.27438
340.15056,1.27419
339.90948,1.26813
339.66841,1.25855
339.42734,1.25091
339.18627,1.24865
338.94520,1.25271
338.70413,1.26204
338.46306,1.27264
338.22199,1.28040
337.98092,1.28561
337.73985,1.28989
337.49878,1.29053
337.25771,1.28410
337.01664,1.27321
336.77557,1.26356
336.53450,1.25770
336.29343,1.25564
336.05236,1.25709
335.81129,1.26016
335.57021,1.26169
335.32914,1.26102
335.08807,1.26049
334.84700,1.26168
334.60593,1.26387
334.36486,1.26586
334.12379,1.26676
333.88272,1.26522
333.64165,1.25981
333.40058,1.25097
333.15951,1.24136
332.91844,1.23420
332.67737,1.23232
332.43630,1.23664
332.19523,1.24282
331.95416,1.24357
331.71309,1.23612
331.47202,1.22319
331.23094,1.20860
330.98987,1.19599
330.74880,1.18920
330.50773,1.18945
330.26666,1.19254
330.02559,1.19264
329.78452,1.18954
329.54345,1.18727
329.30238,1.18556
329.06131,1.17953
328.82024,1.16945
328.57917,1.16360
328.33810,1.16783
328.09703,1.17721
327.85596,1.18325
327.61489,1.18473
327.37382,1.18463
327.13275,1.18112
326.89167,1.17131
326.65060,1.16022
326.40953,1.15690
326.16846,1.16327
325.92739,1.17181
325.68632,1.17431
325.44525,1.17017
325.20418,1.16331
324.96311,1.15593
324.72204,1.14910
324.48097,1.14593
324.23990,1.14986
323.99883,1.15917
323.75776,1.16798
323.51669,1.17365
323.27562,1.17808
323.03455,1.18243
322.79348,1.18589
322.55240,1.18854
322.31133,1.19041
322.07026,1.18913
321.82919,1.18352
321.58812,1.17706
321.34705,1.17415
321.10598,1.17565
320.86491,1.17868
320.62384,1.17982
320.38277,1.17925
320.14170,1.17927
319.90063,1.17890
319.65956,1.17641
319.41849,1.17630
319.17742,1.18410
318.93635,1.19443
318.69528,1.19624
318.45421,1.19052
318.21313,1.18634
317.97206,1.18377
317.73099,1.17738
317.48992,1.17026
317.24885,1.17025
317.00778,1.17732
316.76671,1.18567
316.52564,1.19256
316.28457,1.19668
316.04350,1.19556
315.80243,1.19039
315.56136,1.18680
315.32029,1.18830
315.07922,1.19378
314.83815,1.20089
314.59708,1.20801
314.35601,1.21316
314.11494,1.21484
313.87386,1.21437
313.63279,1.21514
313.39172,1.21960
313.15065,1.22758
312.90958,1.23557
312.66851,1.23849
312.42744,1.23541
312.18637,1.22995
311.94530,1.22464
311.70423,1.21998
311.46316,1.21783
311.22209,1.21976
310.98102,1.22472
310.73995,1.23161
310.49888,1.23881
310.25781,1.24435
310.01674,1.24962
309.77567,1.25683
309.53459,1.26416
309.29352,1.26787
309.05245,1.26790
308.81138,1.26915
308.57031,1.27477
308.32924,1.28061
308.08817,1.28138
307.84710,1.27906
307.60603,1.28013
307.36496,1.28731
307.12389,1.29728
306.88282,1.30292
306.64175,1.29773
306.40068,1.28251
306.15961,1.26691
305.91854,1.26033
305.67747,1.26301
305.43640,1.26886
305.19532,1.27349
304.95425,1.27666
304.71318,1.27863
304.47211,1.27821
304.23104,1.27490
303.98997,1.26991
303.74890,1.26472
303.50783,1.26078
303.26676,1.25995
303.02569,1.26361
302.78462,1.27080
302.54355,1.27750
302.30248,1.27821
302.06141,1.26969
301.82034,1.25519
301.57927,1.24423
301.33820,1.24498
301.09713,1.25602
300.85605,1.26688
300.61498,1.26735
300.37391,1.25703
300.13284,1.24429
299.89177,1.23697
299.65070,1.23639
299.40963,1.23814
299.16856,1.23781
298.92749,1.23581
298.68642,1.23588
298.44535,1.23895
298.20428,1.24122
297.96321,1.23966
297.72214,1.23612
297.48107,1.23343
297.24000,1.23066
296.99893,1.22551
296.75786,1.21892
296.51678,1.21375
296.27571,1.21052
296.03464,1.20738
295.79357,1.20360
295.55250,1.20091
295.31143,1.20101
295.07036,1.20257
294.82929,1.20186
294.58822,1.19634
294.34715,1.18762
294.10608,1.18094
293.86501,1.17957
293.62394,1.18032
293.38287,1.17681
293.14180,1.16797
292.90073,1.16010
292.65966,1.15882
292.41859,1.16234
292.17751,1.16434
291.93644,1.16192
291.69537,1.15819
291.45430,1.15638
291.21323,1.15520
290.97216,1.15259
290.73109,1.15051
290.49002,1.15153
290.24895,1.15352
290.00788,1.15277
289.76681,1.15023
289.52574,1.14914
289.28467,1.14929
289.04360,1.14810
288.80253,1.14460
288.56146,1.13962
288.32039,1.13477
288.07932,1.13190
287.83824,1.13162
287.59717,1.13233
287.35610,1.13228
287.11503,1.13127
286.87396,1.12943
286.63289,1.12662
286.39182,1.12402
286.15075,1.12339
285.90968,1.12385
285.66861,1.12222
285.42754,1.11778
285.18647,1.11357
284.94540,1.11116
284.70433,1.10805
284.46326,1.10317
284.22219,1.10057
283.98112,1.10396
283.74005,1.11108
283.49897,1.11661
283.25790,1.11783
283.01683,1.11528
282.77576,1.11043
282.53469,1.10497
282.29362,1.10090
282.05255,1.09947
281.81148,1.10051
281.57041,1.10257
281.32934,1.10396
281.08827,1.10389
280.84720,1.10284
280.60613,1.10156
280.36506,1.10012
280.12399,1.09821
279.88292,1.09593
279.64185,1.09453
279.40078,1.09527
279.15970,1.09727
278.91863,1.09857
278.67756,1.09894
278.43649,1.09957
278.19542,1.10078
277.95435,1.10226
277.71328,1.10397
277.47221,1.10486
277.23114,1.10346
276.99007,1.10089
276.74900,1.10058
276.50793,1.10406
276.26686,1.10890
276.02579,1.11113
275.78472,1.10906
275.54365,1.10496
275.30258,1.10230
275.06151,1.10164
274.82043,1.10130
274.57936,1.10038
274.33829,1.09932
274.09722,1.09898
273.85615,1.09990
273.61508,1.10195
273.37401,1.10456
273.13294,1.10731
272.89187,1.10985
272.65080,1.11135
272.40973,1.11124
272.16866,1.10999
271.92759,1.10849
271.68652,1.10763
271.44545,1.10838
271.20438,1.11117
270.96331,1.11511
270.72224,1.11826
270.48116,1.11935
270.24009,1.11950
269.99902,1.12155
269.75795,1.12689
269.51688,1.13352
269.27581,1.13849
269.03474,1.14159
268.79367,1.14491
268.55260,1.14879
268.31153,1.15079
268.07046,1.15015
267.82939,1.15066
267.58832,1.15638
267.34725,1.16596
267.10618,1.17420
266.86511,1.17859
266.62404,1.18124
266.38297,1.18486
266.14189,1.19040
265.90082,1.19748
265.65975,1.20424
265.41868,1.20824
265.17761,1.20902
264.93654,1.20871
264.69547,1.21003
264.45440,1.21529
264.21333,1.22586
263.97226,1.24027
263.73119,1.25419
263.49012,1.26489
263.24905,1.27390
263.00798,1.28371
262.76691,1.29463
262.52584,1.30560
262.28477,1.31574
262.04370,1.32472
261.80262,1.33296
261.56155,1.34109
261.32048,1.34927
261.07941,1.35791
260.83834,1.36912
260.59727,1.38549
260.35620,1.40526
260.11513,1.42094
259.87406,1.42709
259.63299,1.42888
259.39192,1.43840
259.15085,1.46139
258.90978,1.49103
258.66871,1.51736
258.42764,1.53951
258.18657,1.56283
257.94550,1.58820
257.70443,1.61081
257.46335,1.62743
257.22228,1.63983
256.98121,1.65076
256.74014,1.66173
256.49907,1.67324
256.25800,1.68388
256.01693,1.69201
255.77586,1.69888
255.53479,1.70834
255.29372,1.72230
255.05265,1.73598
254.81158,1.73923
254.57051,1.72357
254.32944,1.68843
254.08837,1.64484
253.84730,1.61139
253.60623,1.59826
253.36516,1.59945
253.12408,1.60661
252.88301,1.61869
252.64194,1.63474
252.40087,1.64804
252.15980,1.65301
251.91873,1.65190
251.67766,1.64787
251.43659,1.64001
251.19552,1.62782
250.95445,1.61440
250.71338,1.60624
250.47231,1.60855
250.23124,1.61816
249.99017,1.62577
249.74910,1.62707
249.50803,1.62572
249.26696,1.62281
249.02589,1.61490
248.78481,1.60204
248.54374,1.58672
248.30267,1.56974
248.06160,1.55586
247.82053,1.55638
247.57946,1.57444
247.33839,1.59559
247.09732,1.60324
246.85625,1.59592
246.61518,1.58596
246.37411,1.58586
246.13304,1.59833
245.89197,1.61821
245.65090,1.63937
245.40983,1.65874
245.16876,1.67591
244.92769,1.69194
244.68661,1.70819
244.44554,1.72353
244.20447,1.73248
243.96340,1.72840
243.72233,1.71548
243.48126,1.70914
243.24019,1.71992
242.99912,1.74909
242.75805,1.79682
242.51698,1.85963
242.27591,1.91182
242.03484,1.90901
241.79377,1.85981
241.55270,1.81732
241.31163,1.79010
241.07056,1.76160
240.82949,1.72362
240.58842,1.68289
240.34734,1.64550
240.10627,1.60991
239.86520,1.57189
239.62413,1.52883
239.38306,1.48244
239.14199,1.43831
238.90092,1.40192
238.65985,1.37411
238.41878,1.34985
238.17771,1.32322
237.93664,1.29427
237.69557,1.26850
237.45450,1.24936
237.21343,1.23422
236.97236,1.21761
236.73129,1.19775
236.49022,1.17866
236.24915,1.16417
236.00807,1.15297
235.76700,1.14052
235.52593,1.12375
235.28486,1.10491
235.04379,1.09065
234.80272,1.08494
234.56165,1.08395
234.32058,1.07999
234.07951,1.06978
233.83844,1.05509
233.59737,1.03760
233.35630,1.01916
233.11523,1.00363
232.87416,0.99414
232.63309,0.99072
232.39202,0.99127
232.15095,0.99250
231.90988,0.99065
231.66880,0.98467
231.42773,0.97788
231.18666,0.97349
230.94559,0.97020
230.70452,0.96431
230.46345,0.95499
230.22238,0.94533
229.98131,0.93781
229.74024,0.93160
229.49917,0.92540
229.25810,0.92022
229.01703,0.91742
228.77596,0.91623
228.53489,0.91453
228.29382,0.91069
228.05275,0.90436
227.81168,0.89688
227.57061,0.89012
227.32953,0.88443
227.08846,0.87921
226.84739,0.87466
226.60632,0.87138
226.36525,0.86940
226.12418,0.86860
225.88311,0.86869
225.64204,0.86836
225.40097,0.86581
225.15990,0.86086
224.91883,0.85562
224.67776,0.85242
224.43669,0.85144
224.19562,0.85131
223.95455,0.85083
223.71348,0.84891
223.47241,0.84479
223.23134,0.84001
222.99026,0.83774
222.74919,0.83912
222.50812,0.84248
222.26705,0.84623
222.02598,0.85004
221.78491,0.85342
221.54384,0.85542
221.30277,0.85562
221.06170,0.85475
220.82063,0.85472
220.57956,0.85798
220.33849,0.86569
220.09742,0.87615
219.85635,0.88555
219.61528,0.89099
219.37421,0.89302
219.13314,0.89491
218.89207,0.90003
218.65099,0.91004
218.40992,0.92404
218.16885,0.93805
217.92778,0.94759
217.68671,0.95165
217.44564,0.95297
217.20457,0.95483
216.96350,0.95915
216.72243,0.96646
216.48136,0.97593
216.24029,0.98594
215.99922,0.99555
215.75815,1.00474
215.51708,1.01357
215.27601,1.02216
215.03494,1.03089
214.79387,1.03986
214.55280,1.04837
214.31172,1.05540
214.07065,1.06062
213.82958,1.06447
213.58851,1.06757
213.34744,1.07114
213.10637,1.07690
212.86530,1.08508
212.62423,1.09276
212.38316,1.09653
212.14209,1.09741
211.90102,1.10037
211.65995,1.10778
211.41888,1.11555
211.17781,1.11797
210.93674,1.11445
210.69567,1.10879
210.45460,1.10477
210.21353,1.10449
209.97245,1.10756
209.73138,1.11041
209.49031,1.10934
209.24924,1.10483
209.00817,1.10100
208.76710,1.10123
208.52603,1.10529
208.28496,1.10927
208.04389,1.10848
207.80282,1.10171
207.56175,1.09220
207.32068,1.08441
207.07961,1.08051
206.83854,1.07916
206.59747,1.07708
206.35640,1.07258
206.11533,1.06638
205.87426,1.05943
205.63318,1.05299
205.39211,1.04915
205.15104,1.04757
204.90997,1.04399
204.66890,1.03565
204.42783,1.02558
204.18676,1.01756
203.94569,1.01054
203.70462,1.00171
203.46355,0.99205
203.22248,0.98477
202.98141,0.98010
202.74034,0.97465
202.49927,0.96593
202.25820,0.95478
202.01713,0.94252
201.77606,0.92915
201.53499,0.91543
201.29391,0.90393
201.05284,0.89625
200.81177,0.89058
200.57070,0.88284
200.32963,0.87129
200.08856,0.85866
199.84749,0.84887
199.60642,0.84263
199.36535,0.83662
199.12428,0.82746
198.88321,0.81615
198.64214,0.80631
198.40107,0.79945
198.16000,0.79366
197.91893,0.78609
197.67786,0.77583
197.43679,0.76438
197.19572,0.75382
196.95464,0.74485
196.71357,0.73704
196.47250,0.73046
196.23143,0.72559
195.99036,0.72164
195.74929,0.71669
195.50822,0.70972
195.26715,0.70166
195.02608,0.69418
194.78501,0.68838
194.54394,0.68396
194.30287,0.67918
194.06180,0.67279
193.82073,0.66564
193.57966,0.65928
193.33859,0.65362
193.09752,0.64753
192.85645,0.64118
192.61537,0.63586
192.37430,0.63165
192.13323,0.62720
191.89216,0.62209
191.65109,0.61738
191.41002,0.61347
191.16895,0.60930
190.92788,0.60460
190.68681,0.60106
190.44574,0.59979
190.20467,0.59915
189.96360,0.59663
189.72253,0.59223
189.48146,0.58833
189.24039,0.58619
188.99932,0.58472
188.75825,0.58279
188.51718,0.58064
188.27610,0.57842
188.03503,0.57568
187.79396,0.57296
187.55289,0.57155
187.31182,0.57116
187.07075,0.56999
186.82968,0.56755
186.58861,0.56539
186.34754,0.56467
186.10647,0.56455
185.86540,0.56356
185.62433,0.56179
185.38326,0.56068
185.14219,0.56091
184.90112,0.56183
184.66005,0.56234
184.41898,0.56156
184.17791,0.55942
183.93683,0.55716
183.69576,0.55585
183.45469,0.55516
183.21362,0.55464
182.97255,0.55467
182.73148,0.55525
182.49041,0.55613
182.24934,0.55805
182.00827,0.56139
181.76720,0.56435
181.52613,0.56502
181.28506,0.56389
181.04399,0.56250
180.80292,0.56156
180.56185,0.56142
180.32078,0.56226
180.07971,0.56322
179.83864,0.56332
179.59756,0.56329
179.35649,0.56484
179.11542,0.56883
178.87435,0.57514
178.63328,0.58328
178.39221,0.59214
178.15114,0.60031
177.91007,0.60744
177.66900,0.61405
177.42793,0.61988
177.18686,0.62466
176.94579,0.63019
176.70472,0.63909
176.46365,0.65156
176.22258,0.66487
175.98151,0.67643
175.74044,0.68664
175.49937,0.69777
175.25829,0.71067
175.01722,0.72375
174.77615,0.73546
174.53508,0.74604
174.29401,0.75672
174.05294,0.76830
173.81187,0.78057
173.57080,0.79259
173.32973,0.80355
173.08866,0.81327
172.84759,0.82154
172.60652,0.82758
172.36545,0.83071
172.12438,0.83152
171.88331,0.83194
171.64224,0.83321
171.40117,0.83400
171.16010,0.83224
170.91902,0.82875
170.67795,0.82666
170.43688,0.82707
170.19581,0.82740
169.95474,0.82456
169.71367,0.81858
169.47260,0.81180
169.23153,0.80581
168.99046,0.80098
168.74939,0.79812
168.50832,0.79787
168.26725,0.79851
168.02618,0.79698
167.78511,0.79262
167.54404,0.78769
167.30297,0.78420
167.06190,0.78196
166.82083,0.78004
166.57975,0.77905
166.33868,0.78094
166.09761,0.78639
165.85654,0.79302
165.61547,0.79733
165.37440,0.79813
165.13333,0.79717
164.89226,0.79751
164.65119,0.80183
164.41012,0.81080
164.16905,0.82173
163.92798,0.83009
163.68691,0.83338
163.44584,0.83317
163.20477,0.83310
162.96370,0.83578
162.72263,0.84135
162.48156,0.84793
162.24048,0.85343
161.99941,0.85689
161.75834,0.85822
161.51727,0.85788
161.27620,0.85736
161.03513,0.85805
160.79406,0.85960
160.55299,0.86085
160.31192,0.86144
160.07085,0.86097
159.82978,0.85801
159.58871,0.85226
159.34764,0.84656
159.10657,0.84485
158.86550,0.84790
158.62443,0.85166
158.38336,0.85060
158.14229,0.84367
157.90121,0.83581
157.66014,0.83268
157.41907,0.83514
157.17800,0.83931
156.93693,0.84096
156.69586,0.83868
156.45479,0.83342
156.21372,0.82691
155.97265,0.82093
155.73158,0.81656
155.49051,0.81331
155.24944,0.81002
155.00837,0.80673
154.76730,0.80452
154.52623,0.80316
154.28516,0.80035
154.04409,0.79395
153.80302,0.78392
153.56194,0.77212
153.32087,0.76081
153.07980,0.75113
152.83873,0.74229
152.59766,0.73245
152.35659,0.72096
152.11552,0.70907
151.87445,0.69855
151.63338,0.69025
151.39231,0.68383
151.15124,0.67760
150.91017,0.66908
150.66910,0.65717
150.42803,0.64372
150.18696,0.63176
149.94589,0.62218
149.70482,0.61343
149.46375,0.60432
149.22267,0.59548
148.98160,0.58797
148.74053,0.58162
148.49946,0.57512
148.25839,0.56716
148.01732,0.55791
147.77625,0.54932
147.53518,0.54357
147.29411,0.54105
147.05304,0.54053
146.81197,0.54107
146.57090,0.54238
146.32983,0.54378
146.08876,0.54458
145.84769,0.54551
145.60662,0.54801
145.36555,0.55212
145.12448,0.55623
144.88340,0.55915
144.64233,0.56149
144.40126,0.56446
144.16019,0.56819
143.91912,0.57152
143.67805,0.57313
143.43698,0.57242
143.19591,0.56946
142.95484,0.56414
142.71377,0.55652
142.47270,0.54758
142.23163,0.53888
141.99056,0.53123
141.74949,0.52446
141.50842,0.51815
141.26735,0.51230
141.02628,0.50722
140.78521,0.50296
140.54413,0.49935
140.30306,0.49648
140.06199,0.49430
139.82092,0.49221
139.57985,0.49033
139.33878,0.49018
139.09771,0.49230
138.85664,0.49493
138.61557,0.49700
138.37450,0.50000
138.13343,0.50541
137.89236,0.51269
137.65129,0.52062
137.41022,0.52879
137.16915,0.53786
136.92808,0.54936
136.68701,0.56390
136.44594,0.57948
136.20486,0.59385
135.96379,0.60781
135.72272,0.62397
135.48165,0.64307
135.24058,0.66344
134.99951,0.68349
134.75844,0.70366
134.51737,0.72553
134.27630,0.74924
134.03523,0.77236
133.79416,0.79269
133.55309,0.81119
133.31202,0.83066
133.07095,0.85227
132.82988,0.87497
132.58881,0.89710
132.34774,0.91659
132.10667,0.93138
131.86559,0.94199
131.62452,0.95198
131.38345,0.96319
131.14238,0.97329
130.90131,0.98007
130.66024,0.98434
130.41917,0.98667
130.17810,0.98493
129.93703,0.97753
129.69596,0.96633
129.45489,0.95356
129.21382,0.93838
128.97275,0.91906
128.73168,0.89655
128.49061,0.87368
128.24954,0.85211
128.00847,0.83162
127.76740,0.81174
127.52632,0.79271
127.28525,0.77471
127.04418,0.75680
126.80311,0.73768
126.56204,0.71728
126.32097,0.69672
126.07990,0.67708
125.83883,0.65897
125.59776,0.64268
125.35669,0.62778
125.11562,0.61324
124.87455,0.59883
124.63348,0.58549
124.39241,0.57376
124.15134,0.56266
123.91027,0.55076
123.66920,0.53813
123.42812,0.52652
123.18705,0.51716
122.94598,0.50941
122.70491,0.50202
122.46384,0.49490
122.22277,0.48860
121.98170,0.48310
121.74063,0.47795
121.49956,0.47355
121.25849,0.47103
121.01742,0.47102
120.77635,0.47322
120.53528,0.47712
120.29421,0.48237
120.05314,0.48832
119.81207,0.49469
119.57100,0.50289
119.32993,0.51540
119.08885,0.53354
118.84778,0.55636
118.60671,0.58161
118.36564,0.60758
118.12457,0.63370
117.88350,0.65981
117.64243,0.68525
117.40136,0.70869
117.16029,0.72832
116.91922,0.74310
116.67815,0.75421
116.43708,0.76389
116.19601,0.77286
115.95494,0.78024
115.71387,0.78521
115.47280,0.78687
115.23173,0.78356
114.99066,0.77391
114.74958,0.75892
114.50851,0.74178
114.26744,0.72567
114.02637,0.71216
113.78530,0.70192
113.54423,0.69612
113.30316,0.69601
113.06209,0.70092
112.82102,0.70813
112.57995,0.71440
112.33888,0.71731
112.09781,0.71637
111.85674,0.71445
111.61567,0.71674
111.37460,0.72629
111.13353,0.74002
110.89246,0.75054
110.65139,0.75255
110.41031,0.74663
110.16924,0.73681
109.92817,0.72668
109.68710,0.71838
109.44603,0.71251
109.20496,0.70766
108.96389,0.70079
108.72282,0.68881
108.48175,0.67061
108.24068,0.64811
107.99961,0.62534
107.75854,0.60656
107.51747,0.59420
107.27640,0.58683
107.03533,0.57891
106.79426,0.56472
106.55319,0.54388
106.31212,0.52192
106.07104,0.50474
105.82997,0.49328
105.58890,0.48385
105.34783,0.47264
105.10676,0.45942
104.86569,0.44662
104.62462,0.43614
104.38355,0.42823
104.14248,0.42188
103.90141,0.41525
103.66034,0.40658
103.41927,0.39587
103.17820,0.38546
102.93713,0.37801
102.69606,0.37382
102.45499,0.37010
102.21392,0.36328
101.97285,0.35265
101.73177,0.34113
101.49070,0.33289
101.24963,0.33017
101.00856,0.33122
100.76749,0.33113
100.52642,0.32645
100.28535,0.31907
100.04428,0.31371
99.80321,0.31206
99.56214,0.31086
99.32107,0.30613
99.08000,0.29851
98.83893,0.29234
98.59786,0.29028
98.35679,0.29053
98.11572,0.28919
97.87465,0.28513
97.63358,0.28122
97.39250,0.28011
97.15143,0.28068
96.91036,0.28007
96.66929,0.27870
96.42822,0.27995
96.18715,0.28487
95.94608,0.29086
95.70501,0.29642
95.46394,0.30337
95.22287,0.31214
94.98180,0.31926
94.74073,0.32210
94.49966,0.32279
94.25859,0.32459
94.01752,0.32712
93.77645,0.32801
93.53538,0.32784
93.29431,0.32927
93.05323,0.33122
92.81216,0.32969
92.57109,0.32551
92.33002,0.32341
92.08895,0.32376
91.84788,0.32322
91.60681,0.32236
91.36574,0.32481
91.12467,0.33164
90.88360,0.34245
90.64253,0.35791
90.40146,0.37799
90.16039,0.40155
89.91932,0.42909
89.67825,0.46159
89.43718,0.49755
89.19611,0.53505
88.95504,0.57421
88.71396,0.61414
88.47289,0.65046
88.23182,0.67828
87.99075,0.69435
87.74968,0.69578
87.50861,0.68169
87.26754,0.65655
87.02647,0.62732
86.78540,0.59799
86.54433,0.56974
86.30326,0.54323
86.06219,0.51794
85.82112,0.49227
85.58005,0.46610
85.33898,0.44114
85.09791,0.41868
84.85684,0.39874
84.61577,0.38059
84.37469,0.36351
84.13362,0.34773
83.89255,0.33427
83.65148,0.32328
83.41041,0.31364
83.16934,0.30431
82.92827,0.29518
82.68720,0.28683
82.44613,0.27994
82.20506,0.27432
81.96399,0.26882
81.72292,0.26292
81.48185,0.25762
81.24078,0.25386
80.99971,0.25142
80.75864,0.24956
80.51757,0.24787
80.27650,0.24615
80.03542,0.24414
79.79435,0.24178
79.55328,0.23954
79.31221,0.23800
79.07114,0.23713
78.83007,0.23624
78.58900,0.23458
78.34793,0.23180
78.10686,0.22773
77.86579,0.22215
77.62472,0.21546
77.38365,0.20928
77.14258,0.20537
76.90151,0.20363
76.66044,0.20226
76.41937,0.20035
76.17830,0.19890
75.93723,0.19875
75.69615,0.19879
75.45508,0.19714
75.21401,0.19328
74.97294,0.18843
74.73187,0.18477
74.49080,0.18422
74.24973,0.18710
74.00866,0.19170
73.76759,0.19565
73.52652,0.19751
73.28545,0.19701
73.04438,0.19455
72.80331,0.19103
72.56224,0.18743
72.32117,0.18406
72.08010,0.18084
71.83903,0.17836
71.59796,0.17787
71.35688,0.17930
71.11581,0.18071
70.87474,0.18096
70.63367,0.18200
70.39260,0.18688
70.15153,0.19676
69.91046,0.21121
69.66939,0.22941
69.42832,0.24910
69.18725,0.26521
68.94618,0.27220
68.70511,0.26868
68.46404,0.25858
68.22297,0.24651
67.98190,0.23390
67.74083,0.22056
67.49976,0.20765
67.25869,0.19698
67.01761,0.18831
66.77654,0.17971
66.53547,0.17041
66.29440,0.16189
66.05333,0.15618
65.81226,0.15390
65.57119,0.15416
65.33012,0.15623
65.08905,0.16097
64.84798,0.16992
64.60691,0.18314
64.36584,0.19851
64.12477,0.21294
63.88370,0.22353
63.64263,0.22842
63.40156,0.22784
63.16049,0.22363
62.91942,0.21748
62.67834,0.20998
62.43727,0.20112
62.19620,0.19110
61.95513,0.18061
61.71406,0.17034
61.47299,0.16039
61.23192,0.15076
60.99085,0.14276
60.74978,0.13888
60.50871,0.14086
60.26764,0.14845
60.02657,0.15972
59.78550,0.17158
59.54443,0.18037
59.30336,0.18319
59.06229,0.17946
58.82122,0.17063
58.58015,0.15915
58.33907,0.14828
58.09800,0.14183
57.85693,0.14275
57.61586,0.15135
57.37479,0.16508
57.13372,0.17960
56.89265,0.18953
56.65158,0.18926
56.41051,0.17688
56.16944,0.15759
55.92837,0.14074
55.68730,0.13422
55.44623,0.14144
55.20516,0.16036
54.96409,0.18258
54.72302,0.19462
54.48195,0.18799
54.24088,0.16968
53.99980,0.15370
53.75873,0.14888
53.51766,0.15745
53.27659,0.17615
53.03552,0.19474
52.79445,0.19921
52.55338,0.18577
52.31231,0.16703
52.07124,0.15924
51.83017,0.17007
51.58910,0.19158
51.34803,0.20071
51.10696,0.18447
50.86589,0.16090
50.62482,0.15342
50.38375,0.16899
50.14268,0.19314
49.90161,0.19647
49.66053,0.17397
49.41946,0.15558
49.17839,0.16299
48.93732,0.18750
48.69625,0.19602
48.45518,0.17986
48.21411,0.16981
47.97304,0.18350
47.73197,0.20574
47.49090,0.20642
47.24983,0.19147
47.00876,0.18877
46.76769,0.19475
46.52662,0.18619
46.28555,0.17049
46.04448,0.16962
45.80341,0.17713
45.56234,0.17529
45.32126,0.17219
45.08019,0.17967
44.83912,0.18855
44.59805,0.18944
44.35698,0.19002
44.11591,0.19586
43.87484,0.20175
43.63377,0.20352
43.39270,0.20116
43.15163,0.19686
42.91056,0.19632
42.66949,0.20251
42.42842,0.20909
42.18735,0.20756
41.94628,0.19851
41.70521,0.18882
41.46414,0.18190
41.22307,0.17730
40.98199,0.17580
40.74092,0.17755
40.49985,0.17907
40.25878,0.18025
40.01771,0.18695
39.77664,0.19970
39.53557,0.21123
39.29450,0.21910
39.05343,0.22587
38.81236,0.22919
38.57129,0.22540
38.33022,0.21717
38.08915,0.21057
37.84808,0.21014
37.60701,0.21722
37.36594,0.22864
37.12487,0.23844
36.88380,0.24043
36.64272,0.23300
36.40165,0.22283
36.16058,0.21838
35.91951,0.22029
35.67844,0.22285
35.43737,0.22157
35.19630,0.21607
34.95523,0.20886
34.71416,0.20385
34.47309,0.20341
34.23202,0.20290
33.99095,0.19326
33.74988,0.17382
33.50881,0.15578
33.26774,0.14619
33.02667,0.13793
32.78560,0.12476
32.54453,0.11248
32.30345,0.10725
32.06238,0.10640
31.82131,0.10286
31.58024,0.09126
31.33917,0.07081
31.09810,0.04596
30.85703,0.02294
30.61596,0.00462
30.37489,-0.00982
30.13382,-0.02187
29.89275,-0.03182
29.65168,-0.03811
29.41061,-0.03881
29.16954,-0.03773
28.92847,-0.04491
28.68740,-0.06404
28.44633,-0.08612
28.20526,-0.10176
27.96418,-0.11375
27.72311,-0.13020
27.48204,-0.14968
27.24097,-0.16340
26.99990,-0.16653
26.75883,-0.16055
26.51776,-0.15099
26.27669,-0.14552
26.03562,-0.14959
25.79455,-0.16326
25.55348,-0.18166
25.31241,-0.19623
25.07134,-0.20091
24.83027,-0.19962
24.58920,-0.20050
24.34813,-0.20452
24.10706,-0.20668
23.86599,-0.20741
23.62491,-0.21415
23.38384,-0.23364
23.14277,-0.26680
22.90170,-0.30419
22.66063,-0.32637
22.41956,-0.32034
22.17849,-0.29606
21.93742,-0.27673
21.69635,-0.27519
21.45528,-0.28565
21.21421,-0.29797
20.97314,-0.31115
20.73207,-0.32637
20.49100,-0.33749
20.24993,-0.33618
20.00886,-0.32189
19.76779,-0.30357
19.52672,-0.29456
19.28564,-0.30343
19.04457,-0.32596
18.80350,-0.34895
18.56243,-0.36085
18.32136,-0.35741
18.08029,-0.34580
17.83922,-0.34323
17.59815,-0.35893
17.35708,-0.37987
17.11601,-0.38519
16.87494,-0.37393
16.63387,-0.36517
16.39280,-0.37077
16.15173,-0.38167
15.91066,-0.38427
15.66959,-0.37999
15.42852,-0.37910
15.18745,-0.38666
14.94637,-0.39960
14.70530,-0.41133
14.46423,-0.41786
14.22316,-0.41922
13.98209,-0.41484
13.74102,-0.40377
13.49995,-0.38703
13.25888,-0.36544
13.01781,-0.34884
12.77674,-0.35332
12.53567,-0.38112
12.29460,-0.41156
12.05353,-0.41869
11.81246,-0.39857
11.57139,-0.36911
11.33032,-0.34696
11.08925,-0.33578
10.84818,-0.33345
10.60710,-0.34052
10.36603,-0.35539
10.12496,-0.36935
9.88389,-0.37713
9.64282,-0.38430
9.40175,-0.39361
9.16068,-0.39792
8.91961,-0.39355
8.67854,-0.38096
8.43747,-0.36420
8.19640,-0.35437
7.95533,-0.35700
7.71426,-0.36666
7.47319,-0.37937
7.23212,-0.39180
6.99105,-0.39894
6.74998,-0.39786
6.50891,-0.38927
6.26783,-0.38056
6.02676,-0.38210
5.78569,-0.38998
5.54462,-0.39030
5.30355,-0.38721
5.06248,-0.38880
4.82141,-0.38981
4.58034,-0.38490
4.33927,-0.37478
4.09820,-0.36397
3.85713,-0.36334
3.61606,-0.37840
3.37499,-0.39607
3.13392,-0.40241
2.89285,-0.40084
2.65178,-0.39684
2.41071,-0.39008
2.16964,-0.38243
1.92856,-0.37205
1.68749,-0.36260
1.44642,-0.36688
1.20535,-0.38218
0.96428,-0.39333
0.72321,-0.41234
0.48214,-0.49073
0.24107,-0.56207
-0.00000,-0.21113
