399.69498,1.44030
399.45391,1.44697
399.21284,1.45205
398.97177,1.45021
398.73070,1.44566
398.48963,1.44606
398.24856,1.45319
398.00749,1.46442
397.76642,1.47702
397.52535,1.48767
397.28428,1.49094
397.04321,1.48379
396.80214,1.47157
396.56107,1.46479
396.32000,1.46915
396.07892,1.47957
395.83785,1.48439
395.59678,1.47814
395.35571,1.46771
395.11464,1.46176
394.87357,1.46014
394.63250,1.45798
394.39143,1.45328
394.15036,1.44546
393.90929,1.43328
393.66822,1.41887
393.42715,1.40877
393.18608,1.40796
392.94501,1.41405
392.70394,1.41885
392.46287,1.41764
392.22180,1.41561
391.98073,1.41920
391.73965,1.42444
391.49858,1.42315
391.25751,1.41680
391.01644,1.41336
390.77537,1.41562
390.53430,1.41979
390.29323,1.42032
390.05216,1.41440
389.81109,1.40416
389.57002,1.39499
389.32895,1.38999
389.08788,1.38721
388.84681,1.38368
388.60574,1.38113
388.36467,1.38310
388.12360,1.38589
387.88253,1.38012
387.64146,1.36203
387.40038,1.33793
387.15931,1.31846
386.91824,1.31255
386.67717,1.32286
386.43610,1.34023
386.19503,1.34766
385.95396,1.33863
385.71289,1.32334
385.47182,1.31234
385.23075,1.30614
384.98968,1.30263
384.74861,1.30235
384.50754,1.30294
384.26647,1.29895
384.02540,1.28958
383.78433,1.27724
383.54326,1.26313
383.30219,1.24904
383.06111,1.23821
382.82004,1.23301
382.57897,1.23034
382.33790,1.22238
382.09683,1.20504
381.85576,1.18370
381.61469,1.16738
381.37362,1.16029
381.13255,1.15984
380.89148,1.15935
380.65041,1.15335
380.40934,1.14310
380.16827,1.13587
379.92720,1.13742
379.68613,1.14686
379.44506,1.16134
379.20399,1.17917
378.96292,1.19516
378.72184,1.20353
378.48077,1.20610
378.23970,1.20914
377.99863,1.21599
377.75756,1.22823
377.51649,1.24739
377.27542,1.27046
377.03435,1.28729
376.79328,1.29011
376.55221,1.28461
376.31114,1.28142
376.07007,1.28176
375.82900,1.27960
375.58793,1.27303
375.34686,1.26704
375.10579,1.26747
374.86472,1.27873
374.62365,1.30155
374.38257,1.32648
374.14150,1.33866
373.90043,1.33594
373.65936,1.32901
373.41829,1.32372
373.17722,1.31943
372.93615,1.31853
372.69508,1.32152
372.45401,1.32120
372.21294,1.31556
371.97187,1.31544
371.73080,1.32733
371.48973,1.34133
371.24866,1.34500
371.00759,1.33988
370.76652,1.33490
370.52545,1.33280
370.28437,1.33058
370.04330,1.32725
369.80223,1.32414
369.56116,1.32259
369.32009,1.32457
369.07902,1.33014
368.83795,1.33382
368.59688,1.32930
368.35581,1.31741
368.11474,1.30584
367.87367,1.30241
367.63260,1.30905
367.39153,1.31888
367.15046,1.32133
366.90939,1.31399
366.66832,1.30366
366.42725,1.29590
366.18618,1.29155
365.94510,1.28992
365.70403,1.28997
365.46296,1.29004
365.22189,1.28775
364.98082,1.28235
364.73975,1.27700
364.49868,1.27553
364.25761,1.27733
364.01654,1.27729
363.77547,1.27316
363.53440,1.26903
363.29333,1.26876
363.05226,1.27035
362.81119,1.26929
362.57012,1.26406
362.32905,1.25675
362.08798,1.25040
361.84691,1.24710
361.60583,1.24716
361.36476,1.24873
361.12369,1.24845
360.88262,1.24531
360.64155,1.24302
360.40048,1.24489
360.15941,1.24803
359.91834,1.24679
359.67727,1.24021
359.43620,1.23127
359.19513,1.22138
358.95406,1.21117
358.71299,1.20310
358.47192,1.19950
358.23085,1.20025
357.98978,1.20336
357.74871,1.20584
357.50764,1.20469
357.26656,1.19967
357.02549,1.19395
356.78442,1.19062
356.54335,1.19050
356.30228,1.19299
356.06121,1.19723
355.82014,1.20207
355.57907,1.20623
355.33800,1.20881
355.09693,1.20821
354.85586,1.20335
354.61479,1.19764
354.37372,1.19600
354.13265,1.19813
353.89158,1.19942
353.65051,1.19782
353.40944,1.19591
353.16837,1.19579
352.92729,1.19556
352.68622,1.19244
352.44515,1.18731
352.20408,1.18442
351.96301,1.18713
351.72194,1.19421
351.48087,1.20002
351.23980,1.19958
350.99873,1.19323
350.75766,1.18460
350.51659,1.17715
350.27552,1.17406
350.03445,1.17787
349.79338,1.18766
349.55231,1.19829
349.31124,1.20471
349.07017,1.20550
348.82910,1.20148
348.58802,1.19507
348.34695,1.19041
348.10588,1.18921
347.86481,1.18814
347.62374,1.18400
347.38267,1.17955
347.14160,1.18068
346.90053,1.18887
346.65946,1.19927
346.41839,1.20653
346.17732,1.21104
345.93625,1.21604
345.69518,1.22084
345.45411,1.22221
345.21304,1.22031
344.97197,1.21865
344.73090,1.21951
344.48983,1.22271
344.24875,1.22682
344.00768,1.23009
343.76661,1.23163
343.52554,1.23202
343.28447,1.23228
343.04340,1.23290
342.80233,1.23425
342.56126,1.23626
342.32019,1.23762
342.07912,1.23825
341.83805,1.24221
341.59698,1.25321
341.35591,1.26880
341.11484,1.28197
340.87377,1.28685
340.63270,1.28322
340.39163,1.27598
340.15056,1.27033
339.90948,1.26811
339.66841,1.26731
339.42734,1.26542
339.18627,1.26359
338.94520,1.26582
338.70413,1.27320
338.46306,1.28129
338.22199,1.28508
337.98092,1.28420
337.73985,1.28222
337.49878,1.28327
337.25771,1.28884
337.01664,1.29585
336.77557,1.29923
336.53450,1.29624
336.29343,1.28842
336.05236,1.27990
335.81129,1.27471
335.57021,1.27371
335.32914,1.27349
335.08807,1.27147
334.84700,1.27053
334.60593,1.27443
334.36486,1.28107
334.12379,1.28277
333.88272,1.27272
333.64165,1.25186
333.40058,1.23085
333.15951,1.22160
332.91844,1.22625
332.67737,1.23616
332.43630,1.24141
332.19523,1.23902
331.95416,1.23141
331.71309,1.22237
331.47202,1.21528
331.23094,1.21060
330.98987,1.20615
330.74880,1.20162
330.50773,1.19830
330.26666,1.19531
330.02559,1.19219
329.78452,1.19317
329.54345,1.20118
329.30238,1.20964
329.06131,1.20921
328.82024,1.20189
328.57917,1.19804
328.33810,1.20062
328.09703,1.20145
327.85596,1.19443
327.61489,1.18483
327.37382,1.18086
327.13275,1.18371
326.89167,1.18919
326.65060,1.19304
326.40953,1.19308
326.16846,1.18909
325.92739,1.18245
325.68632,1.17626
325.44525,1.17317
325.20418,1.17402
324.96311,1.17829
324.72204,1.18406
324.48097,1.18938
324.23990,1.19408
323.99883,1.19747
323.75776,1.19745
323.51669,1.19504
323.27562,1.19459
323.03455,1.19690
322.79348,1.19783
322.55240,1.19498
322.31133,1.19098
322.07026,1.18932
321.82919,1.19008
321.58812,1.19055
321.34705,1.19008
321.10598,1.19216
320.86491,1.19707
320.62384,1.19994
320.38277,1.19754
320.14170,1.19108
319.90063,1.18363
319.65956,1.17940
319.41849,1.18299
319.17742,1.19390
318.93635,1.20411
318.69528,1.20643
318.45421,1.20230
318.21313,1.19695
317.97206,1.19230
317.73099,1.18842
317.48992,1.18706
317.24885,1.18943
317.00778,1.19340
316.76671,1.19581
316.52564,1.19580
316.28457,1.19466
316.04350,1.19467
315.80243,1.19824
315.56136,1.20520
315.32029,1.21227
315.07922,1.21663
314.83815,1.21801
314.59708,1.21782
314.35601,1.21930
314.11494,1.22691
313.87386,1.24069
313.63279,1.25231
313.39172,1.25324
313.15065,1.24540
312.90958,1.23690
312.66851,1.23207
312.42744,1.23079
312.18637,1.23183
311.94530,1.23344
311.70423,1.23502
311.46316,1.23753
311.22209,1.24048
310.98102,1.24247
310.73995,1.24446
310.49888,1.24807
310.25781,1.25115
310.01674,1.24969
309.77567,1.24407
309.53459,1.23843
309.29352,1.23621
309.05245,1.23805
308.81138,1.24199
308.57031,1.24698
308.32924,1.25429
308.08817,1.26287
307.84710,1.26938
307.60603,1.27464
307.36496,1.28299
307.12389,1.29329
306.88282,1.29841
306.64175,1.29435
306.40068,1.28320
306.15961,1.27103
305.91854,1.26495
305.67747,1.26661
305.43640,1.26998
305.19532,1.26968
304.95425,1.26761
304.71318,1.26824
304.47211,1.27439
304.23104,1.28675
303.98997,1.29975
303.74890,1.30395
303.50783,1.29647
303.26676,1.28309
303.02569,1.27249
302.78462,1.27078
302.54355,1.27616
302.30248,1.27944
302.06141,1.27503
301.82034,1.26739
301.57927,1.26244
301.33820,1.26003
301.09713,1.25805
300.85605,1.25619
300.61498,1.25343
300.37391,1.24866
300.13284,1.24497
299.89177,1.24689
299.65070,1.25283
299.40963,1.25549
299.16856,1.25166
298.92749,1.24655
298.68642,1.24546
298.44535,1.24743
298.20428,1.24730
297.96321,1.24109
297.72214,1.23030
297.48107,1.22186
297.24000,1.22234
296.99893,1.23067
296.75786,1.23807
296.51678,1.23689
296.27571,1.22871
296.03464,1.22140
295.79357,1.22011
295.55250,1.22267
295.31143,1.22317
295.07036,1.21847
294.82929,1.21007
294.58822,1.20150
294.34715,1.19474
294.10608,1.18949
293.86501,1.18584
293.62394,1.18489
293.38287,1.18552
293.14180,1.18347
292.90073,1.17661
292.65966,1.16870
292.41859,1.16507
292.17751,1.16633
291.93644,1.16877
291.69537,1.16923
291.45430,1.16817
291.21323,1.16849
290.97216,1.17151
290.73109,1.17419
290.49002,1.17142
290.24895,1.16285
290.00788,1.15510
289.76681,1.15405
289.52574,1.15706
289.28467,1.15601
289.04360,1.14810
288.80253,1.13906
288.56146,1.13470
288.32039,1.13495
288.07932,1.13648
287.83824,1.13698
287.59717,1.13573
287.35610,1.13271
287.11503,1.12838
286.87396,1.12370
286.63289,1.11956
286.39182,1.11635
286.15075,1.11420
285.90968,1.11346
285.66861,1.11436
285.42754,1.11619
285.18647,1.11776
284.94540,1.11835
284.70433,1.11807
284.46326,1.11738
284.22219,1.11657
283.98112,1.11524
283.74005,1.11240
283.49897,1.10846
283.25790,1.10644
283.01683,1.10890
282.77576,1.11357
282.53469,1.11536
282.29362,1.11327
282.05255,1.11198
281.81148,1.11518
281.57041,1.12054
281.32934,1.12302
281.08827,1.12108
280.84720,1.11697
280.60613,1.11232
280.36506,1.10732
280.12399,1.10329
279.88292,1.10197
279.64185,1.10226
279.40078,1.10152
279.15970,1.09990
278.91863,1.09975
278.67756,1.10117
278.43649,1.10182
278.19542,1.10093
277.95435,1.10051
277.71328,1.10213
277.47221,1.10435
277.23114,1.10448
276.99007,1.10267
276.74900,1.10226
276.50793,1.10509
276.26686,1.10841
276.02579,1.10873
275.78472,1.10751
275.54365,1.10910
275.30258,1.11384
275.06151,1.11683
274.82043,1.11395
274.57936,1.10651
274.33829,1.09952
274.09722,1.09676
273.85615,1.09815
273.61508,1.10186
273.37401,1.10704
273.13294,1.11314
272.89187,1.11816
272.65080,1.12007
272.40973,1.11886
272.16866,1.11626
271.92759,1.11440
271.68652,1.11513
271.44545,1.11877
271.20438,1.12303
270.96331,1.12468
270.72224,1.12307
270.48116,1.12106
270.24009,1.12211
269.99902,1.12703
269.75795,1.13414
269.51688,1.14208
269.27581,1.14972
269.03474,1.15375
268.79367,1.15188
268.55260,1.14706
268.31153,1.14438
268.07046,1.14589
267.82939,1.15078
267.58832,1.15781
267.34725,1.16578
267.10618,1.17318
266.86511,1.17914
266.62404,1.18398
266.38297,1.18848
266.14189,1.19349
265.90082,1.20006
265.65975,1.20788
265.41868,1.21423
265.17761,1.21656
264.93654,1.21642
264.69547,1.21879
264.45440,1.22732
264.21333,1.24089
263.97226,1.25454
263.73119,1.26379
263.49012,1.26835
263.24905,1.27189
263.00798,1.27869
262.76691,1.28972
262.52584,1.30241
262.28477,1.31448
262.04370,1.32627
261.80262,1.33830
261.56155,1.34883
261.32048,1.35647
261.07941,1.36461
260.83834,1.37943
260.59727,1.40199
260.35620,1.42461
260.11513,1.43902
259.87406,1.44728
259.63299,1.45939
259.39192,1.48177
259.15085,1.51182
258.90978,1.53983
258.66871,1.55567
258.42764,1.55905
258.18657,1.56024
257.94550,1.56803
257.70443,1.58317
257.46335,1.60040
257.22228,1.61487
256.98121,1.62777
256.74014,1.64333
256.49907,1.66260
256.25800,1.68326
256.01693,1.70180
255.77586,1.71337
255.53479,1.71348
255.29372,1.70244
255.05265,1.68731
254.81158,1.67606
254.57051,1.67139
254.32944,1.67361
254.08837,1.68440
253.84730,1.70203
253.60623,1.71617
253.36516,1.71572
253.12408,1.70266
252.88301,1.69113
252.64194,1.68928
252.40087,1.69170
252.15980,1.68925
251.91873,1.68175
251.67766,1.67669
251.43659,1.67525
251.19552,1.67001
250.95445,1.65647
250.71338,1.63783
250.47231,1.62119
250.23124,1.61280
249.99017,1.61281
249.74910,1.61338
249.50803,1.60677
249.26696,1.59507
249.02589,1.58638
248.78481,1.58712
248.54374,1.59928
248.30267,1.61766
248.06160,1.62986
247.82053,1.62778
247.57946,1.61767
247.33839,1.61075
247.09732,1.61108
246.85625,1.61836
246.61518,1.63538
246.37411,1.66561
246.13304,1.70293
245.89197,1.72940
245.65090,1.73275
245.40983,1.72167
245.16876,1.71396
244.92769,1.71771
244.68661,1.72689
244.44554,1.73211
244.20447,1.73362
243.96340,1.74023
243.72233,1.75498
243.48126,1.77287
243.24019,1.79409
242.99912,1.82659
242.75805,1.86819
242.51698,1.90055
242.27591,1.90796
242.03484,1.89084
241.79377,1.85854
241.55270,1.81103
241.31163,1.76093
241.07056,1.71903
240.82949,1.68010
240.58842,1.63891
240.34734,1.59778
240.10627,1.56028
239.86520,1.52726
239.62413,1.49865
239.38306,1.47217
239.14199,1.44209
238.90092,1.40574
238.65985,1.36771
238.41878,1.33455
238.17771,1.30910
237.93664,1.29027
237.69557,1.27440
237.45450,1.25703
237.21343,1.23599
236.97236,1.21372
236.73129,1.19498
236.49022,1.18143
236.24915,1.16930
236.00807,1.15371
235.76700,1.13474
235.52593,1.11675
235.28486,1.10260
235.04379,1.09201
234.80272,1.08403
234.56165,1.07725
234.32058,1.06869
234.07951,1.05626
233.83844,1.04203
233.59737,1.03031
233.35630,1.02252
233.11523,1.01671
232.87416,1.01156
232.63309,1.00759
232.39202,1.00431
232.15095,0.99937
231.90988,0.99100
231.66880,0.98074
231.42773,0.97231
231.18666,0.96635
230.94559,0.95916
230.70452,0.94863
230.46345,0.93879
230.22238,0.93431
229.98131,0.93362
229.74024,0.93171
229.49917,0.92763
229.25810,0.92486
229.01703,0.92464
228.77596,0.92323
228.53489,0.91700
228.29382,0.90735
228.05275,0.89832
227.81168,0.89191
227.57061,0.88778
227.32953,0.88527
227.08846,0.88383
226.84739,0.88285
226.60632,0.88125
226.36525,0.87664
226.12418,0.86730
225.88311,0.85603
225.64204,0.84806
225.40097,0.84508
225.15990,0.84481
224.91883,0.84513
224.67776,0.84608
224.43669,0.84794
224.19562,0.84967
223.95455,0.84979
223.71348,0.84784
223.47241,0.84508
223.23134,0.84392
222.99026,0.84538
222.74919,0.84762
222.50812,0.84862
222.26705,0.84934
222.02598,0.85192
221.78491,0.85596
221.54384,0.85915
221.30277,0.86092
221.06170,0.86264
220.82063,0.86512
220.57956,0.86801
220.33849,0.87142
220.09742,0.87614
219.85635,0.88225
219.61528,0.88842
219.37421,0.89338
219.13314,0.89740
218.89207,0.90181
218.65099,0.90723
218.40992,0.91333
218.16885,0.92030
217.92778,0.92937
217.68671,0.94128
217.44564,0.95386
217.20457,0.96276
216.96350,0.96666
216.72243,0.96965
216.48136,0.97608
216.24029,0.98596
215.99922,0.99704
215.75815,1.00805
215.51708,1.01812
215.27601,1.02599
215.03494,1.03143
214.79387,1.03573
214.55280,1.04073
214.31172,1.04757
214.07065,1.05538
213.82958,1.06207
213.58851,1.06734
213.34744,1.07302
213.10637,1.08020
212.86530,1.08756
212.62423,1.09276
212.38316,1.09454
212.14209,1.09378
211.90102,1.09264
211.65995,1.09274
211.41888,1.09445
211.17781,1.09731
210.93674,1.10060
210.69567,1.10425
210.45460,1.10847
210.21353,1.11191
209.97245,1.11206
209.73138,1.10857
209.49031,1.10447
209.24924,1.10318
209.00817,1.10583
208.76710,1.11054
208.52603,1.11243
208.28496,1.10665
208.04389,1.09383
207.80282,1.07990
207.56175,1.07102
207.32068,1.06978
207.07961,1.07381
206.83854,1.07710
206.59747,1.07472
206.35640,1.06700
206.11533,1.05806
205.87426,1.05043
205.63318,1.04363
205.39211,1.03677
205.15104,1.02980
204.90997,1.02288
204.66890,1.01612
204.42783,1.00946
204.18676,1.00240
203.94569,0.99440
203.70462,0.98569
203.46355,0.97788
203.22248,0.97310
202.98141,0.97174
202.74034,0.97063
202.49927,0.96498
202.25820,0.95262
202.01713,0.93554
201.77606,0.91803
201.53499,0.90467
201.29391,0.89784
201.05284,0.89548
200.81177,0.89206
200.57070,0.88313
200.32963,0.86932
200.08856,0.85531
199.84749,0.84537
199.60642,0.84050
199.36535,0.83830
199.12428,0.83466
198.88321,0.82738
198.64214,0.81793
198.40107,0.80873
198.16000,0.79986
197.91893,0.78953
197.67786,0.77707
197.43679,0.76422
197.19572,0.75343
196.95464,0.74555
196.71357,0.73939
196.47250,0.73314
196.23143,0.72611
195.99036,0.71909
195.74929,0.71296
195.50822,0.70742
195.26715,0.70126
195.02608,0.69416
194.78501,0.68743
194.54394,0.68200
194.30287,0.67665
194.06180,0.66985
193.82073,0.66258
193.57966,0.65719
193.33859,0.65371
193.09752,0.64959
192.85645,0.64314
192.61537,0.63581
192.37430,0.63020
192.13323,0.62685
191.89216,0.62383
191.65109,0.61952
191.41002,0.61465
191.16895,0.61070
190.92788,0.60758
190.68681,0.60409
190.44574,0.60006
190.20467,0.59647
189.96360,0.59395
189.72253,0.59217
189.48146,0.59038
189.24039,0.58840
188.99932,0.58683
188.75825,0.58596
188.51718,0.58476
188.27610,0.58219
188.03503,0.57883
187.79396,0.57576
187.55289,0.57287
187.31182,0.56940
187.07075,0.56582
186.82968,0.56360
186.58861,0.56307
186.34754,0.56267
186.10647,0.56114
185.86540,0.55939
185.62433,0.55865
185.38326,0.55813
185.14219,0.55630
184.90112,0.55367
184.66005,0.55216
184.41898,0.55234
184.17791,0.55313
183.93683,0.55393
183.69576,0.55490
183.45469,0.55544
183.21362,0.55480
182.97255,0.55385
182.73148,0.55419
182.49041,0.55588
182.24934,0.55797
182.00827,0.56053
181.76720,0.56382
181.52613,0.56634
181.28506,0.56636
181.04399,0.56485
180.80292,0.56424
180.56185,0.56491
180.32078,0.56533
180.07971,0.56484
179.83864,0.56413
179.59756,0.56390
179.35649,0.56502
179.11542,0.56851
178.87435,0.57394
178.63328,0.57958
178.39221,0.58481
178.15114,0.59065
177.91007,0.59789
177.66900,0.60640
177.42793,0.61571
177.18686,0.62485
176.94579,0.63300
176.70472,0.64113
176.46365,0.65130
176.22258,0.66375
175.98151,0.67635
175.74044,0.68724
175.49937,0.69665
175.25829,0.70577
175.01722,0.71502
174.77615,0.72459
174.53508,0.73556
174.29401,0.74876
174.05294,0.76315
173.81187,0.77704
173.57080,0.78988
173.32973,0.80111
173.08866,0.80915
172.84759,0.81364
172.60652,0.81628
172.36545,0.81821
172.12438,0.81890
171.88331,0.81828
171.64224,0.81791
171.40117,0.81965
171.16010,0.82420
170.91902,0.83031
170.67795,0.83483
170.43688,0.83459
170.19581,0.82925
169.95474,0.82131
169.71367,0.81311
169.47260,0.80512
169.23153,0.79726
168.99046,0.79046
168.74939,0.78638
168.50832,0.78592
168.26725,0.78821
168.02618,0.79109
167.78511,0.79267
167.54404,0.79260
167.30297,0.79143
167.06190,0.78921
166.82083,0.78559
166.57975,0.78137
166.33868,0.77878
166.09761,0.77947
165.85654,0.78280
165.61547,0.78669
165.37440,0.79002
165.13333,0.79363
164.89226,0.79842
164.65119,0.80409
164.41012,0.81041
164.16905,0.81776
163.92798,0.82533
163.68691,0.83120
163.44584,0.83540
163.20477,0.84014
162.96370,0.84601
162.72263,0.85064
162.48156,0.85251
162.24048,0.85336
161.99941,0.85578
161.75834,0.86000
161.51727,0.86397
161.27620,0.86572
161.03513,0.86536
160.79406,0.86428
160.55299,0.86293
160.31192,0.86095
160.07085,0.85871
159.82978,0.85691
159.58871,0.85527
159.34764,0.85263
159.10657,0.84844
158.86550,0.84380
158.62443,0.84058
158.38336,0.83913
158.14229,0.83748
157.90121,0.83416
157.66014,0.83112
157.41907,0.83125
157.17800,0.83377
156.93693,0.83515
156.69586,0.83352
156.45479,0.82999
156.21372,0.82630
155.97265,0.82341
155.73158,0.82174
155.49051,0.82051
155.24944,0.81752
155.00837,0.81101
154.76730,0.80183
154.52623,0.79255
154.28516,0.78501
154.04409,0.77927
153.80302,0.77388
153.56194,0.76726
153.32087,0.75936
153.07980,0.75126
152.83873,0.74317
152.59766,0.73416
152.35659,0.72381
152.11552,0.71274
151.87445,0.70128
151.63338,0.68925
151.39231,0.67726
151.15124,0.66706
150.91017,0.65965
150.66910,0.65322
150.42803,0.64415
150.18696,0.63125
149.94589,0.61756
149.70482,0.60718
149.46375,0.60106
149.22267,0.59622
148.98160,0.58911
148.74053,0.57956
148.49946,0.57050
148.25839,0.56446
148.01732,0.56114
147.77625,0.55835
147.53518,0.55446
147.29411,0.54984
147.05304,0.54570
146.81197,0.54252
146.57090,0.54056
146.32983,0.54035
146.08876,0.54167
145.84769,0.54334
145.60662,0.54478
145.36555,0.54646
145.12448,0.54882
144.88340,0.55195
144.64233,0.55591
144.40126,0.56046
144.16019,0.56462
143.91912,0.56734
143.67805,0.56841
143.43698,0.56829
143.19591,0.56700
142.95484,0.56377
142.71377,0.55829
142.47270,0.55135
142.23163,0.54389
141.99056,0.53584
141.74949,0.52682
141.50842,0.51756
141.26735,0.50966
141.02628,0.50370
140.78521,0.49867
140.54413,0.49363
140.30306,0.48909
140.06199,0.48596
139.82092,0.48447
139.57985,0.48474
139.33878,0.48710
139.09771,0.49065
138.85664,0.49305
138.61557,0.49354
138.37450,0.49470
138.13343,0.49930
137.89236,0.50670
137.65129,0.51436
137.41022,0.52174
137.16915,0.53071
136.92808,0.54259
136.68701,0.55695
136.44594,0.57261
136.20486,0.58830
135.96379,0.60310
135.72272,0.61782
135.48165,0.63471
135.24058,0.65482
134.99951,0.67649
134.75844,0.69755
134.51737,0.71771
134.27630,0.73816
134.03523,0.76027
133.79416,0.78448
133.55309,0.80925
133.31202,0.83191
133.07095,0.85173
132.82988,0.86996
132.58881,0.88707
132.34774,0.90280
132.10667,0.91751
131.86559,0.93057
131.62452,0.94062
131.38345,0.94909
131.14238,0.95904
130.90131,0.96931
130.66024,0.97492
130.41917,0.97361
130.17810,0.96761
129.93703,0.96011
129.69596,0.95272
129.45489,0.94456
129.21382,0.93272
128.97275,0.91482
128.73168,0.89146
128.49061,0.86604
128.24954,0.84204
128.00847,0.82034
127.76740,0.79962
127.52632,0.77924
127.28525,0.76026
127.04418,0.74332
126.80311,0.72712
126.56204,0.71004
126.32097,0.69219
126.07990,0.67491
125.83883,0.65877
125.59776,0.64329
125.35669,0.62801
125.11562,0.61283
124.87455,0.59792
124.63348,0.58404
124.39241,0.57180
124.15134,0.56031
123.91027,0.54814
123.66920,0.53566
123.42812,0.52471
123.18705,0.51606
122.94598,0.50872
122.70491,0.50141
122.46384,0.49359
122.22277,0.48558
121.98170,0.47847
121.74063,0.47318
121.49956,0.46959
121.25849,0.46731
121.01742,0.46692
120.77635,0.46942
120.53528,0.47489
120.29421,0.48233
120.05314,0.49079
119.81207,0.50043
119.57100,0.51209
119.32993,0.52601
119.08885,0.54175
118.84778,0.55906
118.60671,0.57830
118.36564,0.59994
118.12457,0.62376
117.88350,0.64817
117.64243,0.67071
117.40136,0.69011
117.16029,0.70734
116.91922,0.72380
116.67815,0.73939
116.43708,0.75309
116.19601,0.76394
115.95494,0.77070
115.71387,0.77200
115.47280,0.76744
115.23173,0.75858
114.99066,0.74817
114.74958,0.73829
114.50851,0.72904
114.26744,0.71942
114.02637,0.70990
113.78530,0.70324
113.54423,0.70176
113.30316,0.70401
113.06209,0.70591
112.82102,0.70533
112.57995,0.70360
112.33888,0.70222
112.09781,0.70082
111.85674,0.69916
111.61567,0.69886
111.37460,0.70224
111.13353,0.70994
110.89246,0.72002
110.65139,0.72921
110.41031,0.73498
110.16924,0.73617
109.92817,0.73247
109.68710,0.72427
109.44603,0.71248
109.20496,0.69834
108.96389,0.68325
108.72282,0.66871
108.48175,0.65604
108.24068,0.64557
107.99961,0.63515
107.75854,0.62079
107.51747,0.60068
107.27640,0.57787
107.03533,0.55753
106.79426,0.54217
106.55319,0.53019
106.31212,0.51880
106.07104,0.50677
105.82997,0.49375
105.58890,0.47880
105.34783,0.46195
105.10676,0.44627
104.86569,0.43586
104.62462,0.43158
104.38355,0.42965
104.14248,0.42496
103.90141,0.41524
103.66034,0.40212
103.41927,0.38867
103.17820,0.37763
102.93713,0.37084
102.69606,0.36825
102.45499,0.36710
102.21392,0.36347
101.97285,0.35558
101.73177,0.34539
101.49070,0.33663
101.24963,0.33147
101.00856,0.32886
100.76749,0.32582
100.52642,0.32009
100.28535,0.31235
100.04428,0.30588
99.80321,0.30290
99.56214,0.30129
99.32107,0.29711
99.08000,0.29068
98.83893,0.28663
98.59786,0.28755
98.35679,0.29038
98.11572,0.28948
97.87465,0.28334
97.63358,0.27639
97.39250,0.27330
97.15143,0.27423
96.91036,0.27606
96.66929,0.27685
96.42822,0.27813
96.18715,0.28235
95.94608,0.28910
95.70501,0.29524
95.46394,0.29944
95.22287,0.30445
94.98180,0.31270
94.74073,0.32131
94.49966,0.32471
94.25859,0.32248
94.01752,0.32030
93.77645,0.32168
93.53538,0.32352
93.29431,0.32250
93.05323,0.32107
92.81216,0.32240
92.57109,0.32391
92.33002,0.32153
92.08895,0.31718
91.84788,0.31531
91.60681,0.31592
91.36574,0.31699
91.12467,0.32124
90.88360,0.33315
90.64253,0.35066
90.40146,0.36813
90.16039,0.38718
89.91932,0.41433
89.67825,0.44969
89.43718,0.48810
89.19611,0.52813
88.95504,0.57007
88.71396,0.61031
88.47289,0.64500
88.23182,0.67112
87.99075,0.68294
87.74968,0.67856
87.50861,0.66353
87.26754,0.64169
87.02647,0.61419
86.78540,0.58540
86.54433,0.55957
86.30326,0.53581
86.06219,0.51179
85.82112,0.48780
85.58005,0.46472
85.33898,0.44150
85.09791,0.41717
84.85684,0.39363
84.61577,0.37412
84.37469,0.35942
84.13362,0.34740
83.89255,0.33595
83.65148,0.32427
83.41041,0.31217
83.16934,0.30046
82.92827,0.29111
82.68720,0.28495
82.44613,0.28043
82.20506,0.27538
81.96399,0.26883
81.72292,0.26139
81.48185,0.25462
81.24078,0.24964
80.99971,0.24603
80.75864,0.24299
80.51757,0.24065
80.27650,0.23910
80.03542,0.23723
79.79435,0.23394
79.55328,0.22993
79.31221,0.22703
79.07114,0.22590
78.83007,0.22514
78.58900,0.22306
78.34793,0.21951
78.10686,0.21515
77.86579,0.21015
77.62472,0.20460
77.38365,0.19961
77.14258,0.19658
76.90151,0.19577
76.66044,0.19609
76.41937,0.19614
76.17830,0.19557
75.93723,0.19482
75.69615,0.19386
75.45508,0.19203
75.21401,0.18936
74.97294,0.18688
74.73187,0.18543
74.49080,0.18513
74.24973,0.18561
74.00866,0.18600
73.76759,0.18565
73.52652,0.18470
73.28545,0.18343
73.04438,0.18150
72.80331,0.17887
72.56224,0.17672
72.32117,0.17672
72.08010,0.17949
71.83903,0.18387
71.59796,0.18725
71.35688,0.18727
71.11581,0.18392
70.87474,0.17983
70.63367,0.17857
70.39260,0.18288
70.15153,0.19352
69.91046,0.20937
69.66939,0.22825
69.42832,0.24708
69.18725,0.26159
68.94618,0.26770
68.70511,0.26419
68.46404,0.25358
68.22297,0.23984
67.98190,0.22615
67.74083,0.21422
67.49976,0.20427
67.25869,0.19520
67.01761,0.18587
66.77654,0.17670
66.53547,0.16935
66.29440,0.16458
66.05333,0.16171
65.81226,0.15976
65.57119,0.15841
65.33012,0.15814
65.08905,0.16043
64.84798,0.16701
64.60691,0.17783
64.36584,0.18995
64.12477,0.19920
63.88370,0.20318
63.64263,0.20214
63.40156,0.19750
63.16049,0.19074
62.91942,0.18368
62.67834,0.17842
62.43727,0.17584
62.19620,0.17489
61.95513,0.17375
61.71406,0.17128
61.47299,0.16776
61.23192,0.16434
60.99085,0.16196
60.74978,0.16123
60.50871,0.16294
60.26764,0.16738
60.02657,0.17284
59.78550,0.17589
59.54443,0.17350
59.30336,0.16487
59.06229,0.15165
58.82122,0.13711
58.58015,0.12531
58.33907,0.12009
58.09800,0.12364
57.85693,0.13530
57.61586,0.15191
57.37479,0.16893
57.13372,0.18095
56.89265,0.18346
56.65158,0.17592
56.41051,0.16181
56.16944,0.14604
55.92837,0.13289
55.68730,0.12530
55.44623,0.12484
55.20516,0.13220
54.96409,0.14704
54.72302,0.16663
54.48195,0.18421
54.24088,0.19029
53.99980,0.18034
53.75873,0.16097
53.51766,0.14402
53.27659,0.13797
53.03552,0.14579
52.79445,0.16540
52.55338,0.18803
52.31231,0.19728
52.07124,0.18274
51.83017,0.15547
51.58910,0.13494
51.34803,0.13348
51.10696,0.15318
50.86589,0.18129
50.62482,0.18866
50.38375,0.16492
50.14268,0.13776
49.90161,0.13145
49.66053,0.15039
49.41946,0.17733
49.17839,0.18120
48.93732,0.16004
48.69625,0.14473
48.45518,0.15435
48.21411,0.17632
47.97304,0.17609
47.73197,0.15244
47.49090,0.13895
47.24983,0.14903
47.00876,0.16256
46.76769,0.15391
46.52662,0.13802
46.28555,0.13916
46.04448,0.14911
45.80341,0.14595
45.56234,0.13879
45.32126,0.14760
45.08019,0.16268
44.83912,0.16052
44.59805,0.14970
44.35698,0.14918
44.11591,0.15183
43.87484,0.14983
43.63377,0.15296
43.39270,0.16373
43.15163,0.17246
42.91056,0.17485
42.66949,0.17307
42.42842,0.16825
42.18735,0.16411
41.94628,0.16284
41.70521,0.15997
41.46414,0.15297
41.22307,0.14563
40.98199,0.14100
40.74092,0.13904
40.49985,0.13960
40.25878,0.14209
40.01771,0.14364
39.77664,0.14091
39.53557,0.13442
39.29450,0.12939
39.05343,0.12982
38.81236,0.13519
38.57129,0.14422
38.33022,0.15692
38.08915,0.17073
37.84808,0.17967
37.60701,0.18115
37.36594,0.17988
37.12487,0.18154
36.88380,0.18442
36.64272,0.18131
36.40165,0.17029
36.16058,0.15795
35.91951,0.15123
35.67844,0.15031
35.43737,0.14968
35.19630,0.14568
34.95523,0.14181
34.71416,0.14170
34.47309,0.14053
34.23202,0.13141
33.99095,0.11385
33.74988,0.09274
33.50881,0.07622
33.26774,0.07204
33.02667,0.07775
32.78560,0.08154
32.54453,0.07666
32.30345,0.06581
32.06238,0.05271
31.82131,0.03799
31.58024,0.02198
31.33917,0.00432
31.09810,-0.01640
30.85703,-0.03624
30.61596,-0.04574
30.37489,-0.04394
30.13382,-0.04220
29.89275,-0.04841
29.65168,-0.05914
29.41061,-0.07206
29.16954,-0.09270
28.92847,-0.12357
28.68740,-0.15657
28.44633,-0.17890
28.20526,-0.18392
27.96418,-0.17709
27.72311,-0.17207
27.48204,-0.18117
27.24097,-0.20438
26.99990,-0.22752
26.75883,-0.23738
26.51776,-0.23749
26.27669,-0.23660
26.03562,-0.23352
25.79455,-0.22704
25.55348,-0.22527
25.31241,-0.23422
25.07134,-0.24950
24.83027,-0.26239
24.58920,-0.26670
24.34813,-0.26464
24.10706,-0.26737
23.86599,-0.28195
23.62491,-0.30074
23.38384,-0.31296
23.14277,-0.31984
22.90170,-0.33154
22.66063,-0.35733
22.41956,-0.39502
22.17849,-0.43126
21.93742,-0.45092
21.69635,-0.44790
21.45528,-0.43001
21.21421,-0.40864
20.97314,-0.38977
20.73207,-0.37599
20.49100,-0.36992
20.24993,-0.37255
20.00886,-0.38166
19.76779,-0.39633
19.52672,-0.41871
19.28564,-0.44645
19.04457,-0.46758
18.80350,-0.47257
18.56243,-0.46838
18.32136,-0.46490
18.08029,-0.45718
17.83922,-0.43970
17.59815,-0.42411
17.35708,-0.41271
17.11601,-0.39953
16.87494,-0.39086
16.63387,-0.39387
16.39280,-0.41083
16.15173,-0.43387
15.91066,-0.44702
15.66959,-0.44245
15.42852,-0.42595
15.18745,-0.40792
14.94637,-0.39686
14.70530,-0.39599
14.46423,-0.40324
14.22316,-0.41328
13.98209,-0.42059
13.74102,-0.42290
13.49995,-0.42030
13.25888,-0.41279
13.01781,-0.40074
12.77674,-0.38645
12.53567,-0.37448
12.29460,-0.36869
12.05353,-0.36644
11.81246,-0.35787
11.57139,-0.34343
11.33032,-0.34055
11.08925,-0.35805
10.84818,-0.38533
10.60710,-0.40873
10.36603,-0.42147
10.12496,-0.42178
9.88389,-0.41514
9.64282,-0.41213
9.40175,-0.41438
9.16068,-0.41530
8.91961,-0.41202
8.67854,-0.40466
8.43747,-0.39675
8.19640,-0.38999
7.95533,-0.38314
7.71426,-0.37974
7.47319,-0.37981
7.23212,-0.37620
6.99105,-0.36861
6.74998,-0.36802
6.50891,-0.37758
6.26783,-0.38929
6.02676,-0.39899
5.78569,-0.40632
5.54462,-0.40835
5.30355,-0.40538
5.06248,-0.40062
4.82141,-0.39520
4.58034,-0.39339
4.33927,-0.39607
4.09820,-0.39724
3.85713,-0.39864
3.61606,-0.40174
3.37499,-0.39466
3.13392,-0.37428
2.89285,-0.35973
2.65178,-0.36333
2.41071,-0.37962
2.16964,-0.39578
1.92856,-0.39663
1.68749,-0.38200
1.44642,-0.36993
1.20535,-0.36962
0.96428,-0.37821
0.72321,-0.41408
0.48214,-0.51050
0.24107,-0.51972
-0.00000,-0.17520
