399.69498,1.44834
399.45391,1.45008
399.21284,1.45848
398.97177,1.46689
398.73070,1.46450
398.48963,1.45046
398.24856,1.43600
398.00749,1.43167
397.76642,1.43840
397.52535,1.45190
397.28428,1.46840
397.04321,1.48336
396.80214,1.48891
396.56107,1.47976
396.32000,1.46067
396.07892,1.44189
395.83785,1.43005
395.59678,1.42585
395.35571,1.42628
395.11464,1.42901
394.87357,1.43567
394.63250,1.44787
394.39143,1.46104
394.15036,1.46636
393.90929,1.46216
393.66822,1.45820
393.42715,1.46147
393.18608,1.46447
392.94501,1.45370
392.70394,1.42868
392.46287,1.40578
392.22180,1.40097
391.98073,1.41415
391.73965,1.43017
391.49858,1.43517
391.25751,1.42930
391.01644,1.42003
390.77537,1.41075
390.53430,1.40087
390.29323,1.39229
390.05216,1.38958
389.81109,1.39299
389.57002,1.39634
389.32895,1.39434
389.08788,1.38831
388.84681,1.38373
388.60574,1.38368
388.36467,1.38655
388.12360,1.38904
387.88253,1.38661
387.64146,1.37552
387.40038,1.35916
387.15931,1.34747
386.91824,1.34719
386.67717,1.35454
386.43610,1.35650
386.19503,1.34280
385.95396,1.31748
385.71289,1.29293
385.47182,1.27664
385.23075,1.26877
384.98968,1.26607
384.74861,1.26303
384.50754,1.25428
384.26647,1.24055
384.02540,1.22846
383.78433,1.22271
383.54326,1.22253
383.30219,1.22410
383.06111,1.22297
382.82004,1.21563
382.57897,1.20307
382.33790,1.19211
382.09683,1.18864
381.85576,1.19179
381.61469,1.19496
381.37362,1.19408
381.13255,1.19197
380.89148,1.19051
380.65041,1.18729
380.40934,1.18301
380.16827,1.18335
379.92720,1.19077
379.68613,1.19969
379.44506,1.20140
379.20399,1.19283
378.96292,1.18169
378.72184,1.18080
378.48077,1.19539
378.23970,1.21799
377.99863,1.23663
377.75756,1.24590
377.51649,1.24732
377.27542,1.24536
377.03435,1.24580
376.79328,1.25271
376.55221,1.26540
376.31114,1.27943
376.07007,1.29168
375.82900,1.30313
375.58793,1.31343
375.34686,1.31799
375.10579,1.31487
374.86472,1.30929
374.62365,1.30703
374.38257,1.30696
374.14150,1.30432
373.90043,1.29889
373.65936,1.29561
373.41829,1.29836
373.17722,1.30579
372.93615,1.31489
372.69508,1.32486
372.45401,1.33442
372.21294,1.34034
371.97187,1.34177
371.73080,1.34148
371.48973,1.34081
371.24866,1.33822
371.00759,1.33425
370.76652,1.33249
370.52545,1.33579
370.28437,1.34420
370.04330,1.35465
369.80223,1.36072
369.56116,1.35629
369.32009,1.34200
369.07902,1.32567
368.83795,1.31531
368.59688,1.31167
368.35581,1.30929
368.11474,1.30565
367.87367,1.30506
367.63260,1.31057
367.39153,1.31747
367.15046,1.31859
366.90939,1.31289
366.66832,1.30490
366.42725,1.29773
366.18618,1.29030
365.94510,1.28173
365.70403,1.27477
365.46296,1.27235
365.22189,1.27323
364.98082,1.27305
364.73975,1.26940
364.49868,1.26493
364.25761,1.26425
364.01654,1.26781
363.77547,1.27097
363.53440,1.26987
363.29333,1.26485
363.05226,1.25738
362.81119,1.24903
362.57012,1.24383
362.32905,1.24481
362.08798,1.24764
361.84691,1.24413
361.60583,1.23327
361.36476,1.22351
361.12369,1.22315
360.88262,1.23094
360.64155,1.23716
360.40048,1.23508
360.15941,1.22912
359.91834,1.22702
359.67727,1.22875
359.43620,1.22929
359.19513,1.22794
358.95406,1.22781
358.71299,1.22868
358.47192,1.22708
358.23085,1.22236
357.98978,1.21770
357.74871,1.21509
357.50764,1.21297
357.26656,1.20998
357.02549,1.20722
356.78442,1.20560
356.54335,1.20406
356.30228,1.20218
356.06121,1.20220
355.82014,1.20570
355.57907,1.21011
355.33800,1.21211
355.09693,1.21226
354.85586,1.21146
354.61479,1.20651
354.37372,1.19576
354.13265,1.18584
353.89158,1.18550
353.65051,1.19501
353.40944,1.20604
353.16837,1.21131
352.92729,1.21092
352.68622,1.20890
352.44515,1.20794
352.20408,1.20789
351.96301,1.20575
351.72194,1.19832
351.48087,1.18744
351.23980,1.17861
350.99873,1.17437
350.75766,1.17342
350.51659,1.17480
350.27552,1.17919
350.03445,1.18653
349.79338,1.19544
349.55231,1.20306
349.31124,1.20620
349.07017,1.20576
348.82910,1.20584
348.58802,1.20699
348.34695,1.20508
348.10588,1.19868
347.86481,1.19327
347.62374,1.19486
347.38267,1.20277
347.14160,1.21150
346.90053,1.21843
346.65946,1.22594
346.41839,1.23364
346.17732,1.23600
345.93625,1.23146
345.69518,1.22501
345.45411,1.22027
345.21304,1.21687
344.97197,1.21415
344.73090,1.21266
344.48983,1.21314
344.24875,1.21541
344.00768,1.21808
343.76661,1.22022
343.52554,1.22323
343.28447,1.22945
343.04340,1.23923
342.80233,1.25025
342.56126,1.25767
342.32019,1.25708
342.07912,1.25097
341.83805,1.24804
341.59698,1.25248
341.35591,1.25849
341.11484,1.25914
340.87377,1.25665
340.63270,1.25786
340.39163,1.26479
340.15056,1.27391
339.90948,1.28086
339.66841,1.28353
339.42734,1.28372
339.18627,1.28684
338.94520,1.29488
338.70413,1.30166
338.46306,1.30065
338.22199,1.29458
337.98092,1.29128
337.73985,1.29333
337.49878,1.29734
337.25771,1.29987
337.01664,1.30029
336.77557,1.29826
336.53450,1.29359
336.29343,1.28888
336.05236,1.28599
335.81129,1.28164
335.57021,1.27361
335.32914,1.26794
335.08807,1.27092
334.84700,1.27791
334.60593,1.27926
334.36486,1.27396
334.12379,1.26862
333.88272,1.26639
333.64165,1.26398
333.40058,1.25703
333.15951,1.24568
332.91844,1.23540
332.67737,1.23055
332.43630,1.23038
332.19523,1.23370
331.95416,1.24221
331.71309,1.25466
331.47202,1.26189
331.23094,1.25450
330.98987,1.23375
330.74880,1.20926
330.50773,1.18994
330.26666,1.17969
330.02559,1.17826
329.78452,1.18291
329.54345,1.19047
329.30238,1.19834
329.06131,1.20254
328.82024,1.19926
328.57917,1.19047
328.33810,1.18399
328.09703,1.18554
327.85596,1.19323
327.61489,1.20149
327.37382,1.20770
327.13275,1.21015
326.89167,1.20537
326.65060,1.19349
326.40953,1.18178
326.16846,1.17645
325.92739,1.17662
325.68632,1.17971
325.44525,1.18676
325.20418,1.19776
324.96311,1.20624
324.72204,1.20503
324.48097,1.19602
324.23990,1.18849
323.99883,1.18874
323.75776,1.19440
323.51669,1.19814
323.27562,1.19607
323.03455,1.19136
322.79348,1.19115
322.55240,1.19979
322.31133,1.21328
322.07026,1.22084
321.82919,1.21476
321.58812,1.19863
321.34705,1.18308
321.10598,1.17545
320.86491,1.17660
320.62384,1.18422
320.38277,1.19436
320.14170,1.20090
319.90063,1.19943
319.65956,1.19272
319.41849,1.18737
319.17742,1.18675
318.93635,1.18952
318.69528,1.19273
318.45421,1.19496
318.21313,1.19678
317.97206,1.19671
317.73099,1.18987
317.48992,1.17595
317.24885,1.16323
317.00778,1.16003
316.76671,1.16683
316.52564,1.17841
316.28457,1.18813
316.04350,1.19104
315.80243,1.18988
315.56136,1.19442
315.32029,1.20889
315.07922,1.22546
314.83815,1.23355
314.59708,1.23190
314.35601,1.22802
314.11494,1.22816
313.87386,1.23164
313.63279,1.23457
313.39172,1.23429
313.15065,1.22965
312.90958,1.22240
312.66851,1.21815
312.42744,1.22245
312.18637,1.23308
311.94530,1.24178
311.70423,1.24504
311.46316,1.24539
311.22209,1.24349
310.98102,1.23811
310.73995,1.23194
310.49888,1.22990
310.25781,1.23336
310.01674,1.23960
309.77567,1.24552
309.53459,1.25052
309.29352,1.25497
309.05245,1.25801
308.81138,1.25888
308.57031,1.25965
308.32924,1.26418
308.08817,1.27183
307.84710,1.27569
307.60603,1.27169
307.36496,1.26618
307.12389,1.26734
306.88282,1.27268
306.64175,1.27350
306.40068,1.27005
306.15961,1.27047
305.91854,1.27634
305.67747,1.28217
305.43640,1.28641
305.19532,1.29110
304.95425,1.29304
304.71318,1.28704
304.47211,1.27650
304.23104,1.27098
303.98997,1.27545
303.74890,1.28676
303.50783,1.29707
303.26676,1.29937
303.02569,1.29288
302.78462,1.28294
302.54355,1.27483
302.30248,1.27033
302.06141,1.26886
301.82034,1.26800
301.57927,1.26536
301.33820,1.26342
301.09713,1.26555
300.85605,1.26880
300.61498,1.26828
300.37391,1.26507
300.13284,1.26231
299.89177,1.25840
299.65070,1.25199
299.40963,1.24681
299.16856,1.24615
298.92749,1.24824
298.68642,1.24887
298.44535,1.24472
298.20428,1.23613
297.96321,1.22835
297.72214,1.22664
297.48107,1.23004
297.24000,1.23238
296.99893,1.23002
296.75786,1.22465
296.51678,1.21874
296.27571,1.21315
296.03464,1.20928
295.79357,1.20967
295.55250,1.21413
295.31143,1.21790
295.07036,1.21618
294.82929,1.20901
294.58822,1.20030
294.34715,1.19351
294.10608,1.18992
293.86501,1.18986
293.62394,1.19255
293.38287,1.19541
293.14180,1.19583
292.90073,1.19399
292.65966,1.19150
292.41859,1.18804
292.17751,1.18221
291.93644,1.17441
291.69537,1.16654
291.45430,1.16031
291.21323,1.15635
290.97216,1.15430
290.73109,1.15343
290.49002,1.15338
290.24895,1.15381
290.00788,1.15419
289.76681,1.15451
289.52574,1.15513
289.28467,1.15570
289.04360,1.15519
288.80253,1.15317
288.56146,1.15102
288.32039,1.15073
288.07932,1.15177
287.83824,1.15072
287.59717,1.14645
287.35610,1.14305
287.11503,1.14415
286.87396,1.14693
286.63289,1.14572
286.39182,1.13934
286.15075,1.13151
285.90968,1.12593
285.66861,1.12376
285.42754,1.12425
285.18647,1.12543
284.94540,1.12501
284.70433,1.12232
284.46326,1.11890
284.22219,1.11686
283.98112,1.11701
283.74005,1.11799
283.49897,1.11769
283.25790,1.11644
283.01683,1.11641
282.77576,1.11752
282.53469,1.11678
282.29362,1.11259
282.05255,1.10753
281.81148,1.10546
281.57041,1.10745
281.32934,1.11155
281.08827,1.11513
280.84720,1.11664
280.60613,1.11571
280.36506,1.11319
280.12399,1.11095
279.88292,1.11028
279.64185,1.11088
279.40078,1.11218
279.15970,1.11397
278.91863,1.11515
278.67756,1.11427
278.43649,1.11217
278.19542,1.11161
277.95435,1.11353
277.71328,1.11553
277.47221,1.11544
277.23114,1.11470
276.99007,1.11604
276.74900,1.11872
276.50793,1.11972
276.26686,1.11867
276.02579,1.11725
275.78472,1.11487
275.54365,1.10965
275.30258,1.10260
275.06151,1.09763
274.82043,1.09791
274.57936,1.10323
274.33829,1.11013
274.09722,1.11524
273.85615,1.11854
273.61508,1.12142
273.37401,1.12301
273.13294,1.12131
272.89187,1.11720
272.65080,1.11371
272.40973,1.11246
272.16866,1.11323
271.92759,1.11588
271.68652,1.11972
271.44545,1.12230
271.20438,1.12234
270.96331,1.12269
270.72224,1.12637
270.48116,1.13156
270.24009,1.13413
269.99902,1.13326
269.75795,1.13162
269.51688,1.13178
269.27581,1.13443
269.03474,1.13890
268.79367,1.14465
268.55260,1.15171
268.31153,1.15970
268.07046,1.16746
267.82939,1.17383
267.58832,1.17800
267.34725,1.18028
267.10618,1.18223
266.86511,1.18413
266.62404,1.18438
266.38297,1.18344
266.14189,1.18430
265.90082,1.18777
265.65975,1.19202
265.41868,1.19687
265.17761,1.20385
264.93654,1.21258
264.69547,1.22148
264.45440,1.23079
264.21333,1.24158
263.97226,1.25312
263.73119,1.26396
263.49012,1.27460
263.24905,1.28607
263.00798,1.29643
262.76691,1.30251
262.52584,1.30585
262.28477,1.31275
262.04370,1.32732
261.80262,1.34706
261.56155,1.36494
261.32048,1.37434
261.07941,1.37388
260.83834,1.37034
260.59727,1.37494
260.35620,1.39406
260.11513,1.42342
259.87406,1.45072
259.63299,1.46642
259.39192,1.47407
259.15085,1.48555
258.90978,1.50811
258.66871,1.53844
258.42764,1.56545
258.18657,1.58110
257.94550,1.58846
257.70443,1.59697
257.46335,1.61390
257.22228,1.64002
256.98121,1.66884
256.74014,1.68958
256.49907,1.69554
256.25800,1.69186
256.01693,1.69138
255.77586,1.70091
255.53479,1.71565
255.29372,1.72686
255.05265,1.72993
254.81158,1.72507
254.57051,1.71491
254.32944,1.70132
254.08837,1.68568
253.84730,1.67339
253.60623,1.67003
253.36516,1.67244
253.12408,1.67315
252.88301,1.66940
252.64194,1.66200
252.40087,1.65330
252.15980,1.64880
251.91873,1.65353
251.67766,1.66368
251.43659,1.66714
251.19552,1.65789
250.95445,1.64487
250.71338,1.63655
250.47231,1.63028
250.23124,1.62196
249.99017,1.61367
249.74910,1.60834
249.50803,1.60366
249.26696,1.59775
249.02589,1.59460
248.78481,1.59651
248.54374,1.59742
248.30267,1.59287
248.06160,1.58813
247.82053,1.58916
247.57946,1.59668
247.33839,1.60880
247.09732,1.62308
246.85625,1.63418
246.61518,1.63746
246.37411,1.63801
246.13304,1.64691
245.89197,1.66755
245.65090,1.69153
245.40983,1.70796
245.16876,1.71519
244.92769,1.72302
244.68661,1.74428
244.44554,1.78112
244.20447,1.81668
243.96340,1.83295
243.72233,1.84025
243.48126,1.86083
243.24019,1.89281
242.99912,1.92210
242.75805,1.94882
242.51698,1.96567
242.27591,1.94673
242.03484,1.90302
241.79377,1.85830
241.55270,1.82019
241.31163,1.78222
241.07056,1.73923
240.82949,1.69714
240.58842,1.65780
240.34734,1.61779
240.10627,1.57766
239.86520,1.54000
239.62413,1.50412
239.38306,1.46774
239.14199,1.43138
238.90092,1.39741
238.65985,1.36656
238.41878,1.33859
238.17771,1.31401
237.93664,1.29250
237.69557,1.27238
237.45450,1.25270
237.21343,1.23335
236.97236,1.21369
236.73129,1.19290
236.49022,1.17129
236.24915,1.15105
236.00807,1.13592
235.76700,1.12830
235.52593,1.12486
235.28486,1.11833
235.04379,1.10590
234.80272,1.09154
234.56165,1.07897
234.32058,1.06721
234.07951,1.05425
233.83844,1.04123
233.59737,1.03072
233.35630,1.02309
233.11523,1.01665
232.87416,1.00960
232.63309,1.00108
232.39202,0.99227
232.15095,0.98588
231.90988,0.98236
231.66880,0.97856
231.42773,0.97261
231.18666,0.96695
230.94559,0.96372
230.70452,0.96069
230.46345,0.95450
230.22238,0.94519
229.98131,0.93512
229.74024,0.92584
229.49917,0.91782
229.25810,0.91198
229.01703,0.90953
228.77596,0.90966
228.53489,0.90922
228.29382,0.90636
228.05275,0.90263
227.81168,0.89971
227.57061,0.89659
227.32953,0.89196
227.08846,0.88710
226.84739,0.88400
226.60632,0.88267
226.36525,0.88187
226.12418,0.88086
225.88311,0.87858
225.64204,0.87338
225.40097,0.86528
225.15990,0.85677
224.91883,0.85012
224.67776,0.84536
224.43669,0.84165
224.19562,0.83930
223.95455,0.83961
223.71348,0.84274
223.47241,0.84652
223.23134,0.84819
222.99026,0.84674
222.74919,0.84367
222.50812,0.84229
222.26705,0.84525
222.02598,0.85162
221.78491,0.85781
221.54384,0.86218
221.30277,0.86615
221.06170,0.87047
220.82063,0.87375
220.57956,0.87542
220.33849,0.87693
220.09742,0.87999
219.85635,0.88538
219.61528,0.89272
219.37421,0.90066
219.13314,0.90786
218.89207,0.91401
218.65099,0.91899
218.40992,0.92261
218.16885,0.92611
217.92778,0.93162
217.68671,0.93972
217.44564,0.94945
217.20457,0.96030
216.96350,0.97158
216.72243,0.98100
216.48136,0.98683
216.24029,0.99037
215.99922,0.99405
215.75815,0.99904
215.51708,1.00579
215.27601,1.01415
215.03494,1.02235
214.79387,1.02856
214.55280,1.03324
214.31172,1.03849
214.07065,1.04596
213.82958,1.05639
213.58851,1.06938
213.34744,1.08204
213.10637,1.08996
212.86530,1.09165
212.62423,1.09086
212.38316,1.09301
212.14209,1.10013
211.90102,1.10976
211.65995,1.11740
211.41888,1.12022
211.17781,1.11938
210.93674,1.11834
210.69567,1.11866
210.45460,1.11839
210.21353,1.11494
209.97245,1.10887
209.73138,1.10339
209.49031,1.10045
209.24924,1.09896
209.00817,1.09768
208.76710,1.09748
208.52603,1.09901
208.28496,1.10021
208.04389,1.09862
207.80282,1.09488
207.56175,1.09164
207.32068,1.09044
207.07961,1.09045
206.83854,1.08960
206.59747,1.08618
206.35640,1.07924
206.11533,1.06885
205.87426,1.05696
205.63318,1.04692
205.39211,1.04052
205.15104,1.03642
204.90997,1.03297
204.66890,1.02955
204.42783,1.02417
204.18676,1.01464
203.94569,1.00301
203.70462,0.99431
203.46355,0.99159
203.22248,0.99332
202.98141,0.99454
202.74034,0.98942
202.49927,0.97545
202.25820,0.95695
202.01713,0.94151
201.77606,0.93229
201.53499,0.92571
201.29391,0.91675
201.05284,0.90489
200.81177,0.89358
200.57070,0.88515
200.32963,0.87821
200.08856,0.86919
199.84749,0.85620
199.60642,0.84162
199.36535,0.83031
199.12428,0.82478
198.88321,0.82184
198.64214,0.81541
198.40107,0.80338
198.16000,0.78994
197.91893,0.78017
197.67786,0.77469
197.43679,0.77013
197.19572,0.76360
196.95464,0.75580
196.71357,0.74931
196.47250,0.74476
196.23143,0.73952
195.99036,0.73089
195.74929,0.71993
195.50822,0.71027
195.26715,0.70342
195.02608,0.69760
194.78501,0.69133
194.54394,0.68566
194.30287,0.68171
194.06180,0.67855
193.82073,0.67442
193.57966,0.66884
193.33859,0.66276
193.09752,0.65723
192.85645,0.65215
192.61537,0.64677
192.37430,0.64127
192.13323,0.63637
191.89216,0.63135
191.65109,0.62469
191.41002,0.61693
191.16895,0.61087
190.92788,0.60838
190.68681,0.60856
190.44574,0.60903
190.20467,0.60812
189.96360,0.60538
189.72253,0.60084
189.48146,0.59504
189.24039,0.58942
188.99932,0.58566
188.75825,0.58422
188.51718,0.58405
188.27610,0.58360
188.03503,0.58201
187.79396,0.57922
187.55289,0.57576
187.31182,0.57231
187.07075,0.56939
186.82968,0.56702
186.58861,0.56497
186.34754,0.56334
186.10647,0.56233
185.86540,0.56166
185.62433,0.56081
185.38326,0.56019
185.14219,0.56078
184.90112,0.56228
184.66005,0.56290
184.41898,0.56170
184.17791,0.55992
183.93683,0.55920
183.69576,0.55975
183.45469,0.56105
183.21362,0.56264
182.97255,0.56351
182.73148,0.56272
182.49041,0.56113
182.24934,0.56052
182.00827,0.56094
181.76720,0.56109
181.52613,0.56097
181.28506,0.56146
181.04399,0.56204
180.80292,0.56165
180.56185,0.56096
180.32078,0.56162
180.07971,0.56375
179.83864,0.56606
179.59756,0.56813
179.35649,0.57073
179.11542,0.57382
178.87435,0.57649
178.63328,0.57917
178.39221,0.58342
178.15114,0.58948
177.91007,0.59645
177.66900,0.60441
177.42793,0.61374
177.18686,0.62376
176.94579,0.63393
176.70472,0.64474
176.46365,0.65598
176.22258,0.66643
175.98151,0.67620
175.74044,0.68672
175.49937,0.69818
175.25829,0.70967
175.01722,0.72109
174.77615,0.73306
174.53508,0.74589
174.29401,0.75981
174.05294,0.77473
173.81187,0.78887
173.57080,0.79957
173.32973,0.80653
173.08866,0.81215
172.84759,0.81822
172.60652,0.82418
172.36545,0.82835
172.12438,0.82983
171.88331,0.82968
171.64224,0.83023
171.40117,0.83246
171.16010,0.83501
170.91902,0.83614
170.67795,0.83531
170.43688,0.83268
170.19581,0.82855
169.95474,0.82339
169.71367,0.81767
169.47260,0.81182
169.23153,0.80674
168.99046,0.80321
168.74939,0.80063
168.50832,0.79767
168.26725,0.79407
168.02618,0.79091
167.78511,0.78910
167.54404,0.78834
167.30297,0.78771
167.06190,0.78661
166.82083,0.78551
166.57975,0.78604
166.33868,0.78951
166.09761,0.79510
165.85654,0.80022
165.61547,0.80264
165.37440,0.80204
165.13333,0.80013
164.89226,0.79980
164.65119,0.80325
164.41012,0.81043
164.16905,0.81957
163.92798,0.82871
163.68691,0.83629
163.44584,0.84086
163.20477,0.84184
162.96370,0.84105
162.72263,0.84200
162.48156,0.84652
162.24048,0.85292
161.99941,0.85826
161.75834,0.86143
161.51727,0.86361
161.27620,0.86595
161.03513,0.86774
160.79406,0.86791
160.55299,0.86720
160.31192,0.86715
160.07085,0.86710
159.82978,0.86469
159.58871,0.85929
159.34764,0.85300
159.10657,0.84844
158.86550,0.84696
158.62443,0.84816
158.38336,0.85051
158.14229,0.85254
157.90121,0.85339
157.66014,0.85220
157.41907,0.84849
157.17800,0.84342
156.93693,0.83909
156.69586,0.83636
156.45479,0.83462
156.21372,0.83316
155.97265,0.83129
155.73158,0.82779
155.49051,0.82225
155.24944,0.81632
155.00837,0.81205
154.76730,0.80923
154.52623,0.80534
154.28516,0.79870
154.04409,0.79057
153.80302,0.78318
153.56194,0.77643
153.32087,0.76829
153.07980,0.75787
152.83873,0.74608
152.59766,0.73409
152.35659,0.72303
152.11552,0.71411
151.87445,0.70706
151.63338,0.69961
151.39231,0.68968
151.15124,0.67768
150.91017,0.66608
150.66910,0.65706
150.42803,0.65057
150.18696,0.64428
149.94589,0.63557
149.70482,0.62407
149.46375,0.61180
149.22267,0.60120
148.98160,0.59330
148.74053,0.58738
148.49946,0.58210
148.25839,0.57675
148.01732,0.57138
147.77625,0.56618
147.53518,0.56091
147.29411,0.55523
147.05304,0.55005
146.81197,0.54744
146.57090,0.54820
146.32983,0.55055
146.08876,0.55221
145.84769,0.55296
145.60662,0.55427
145.36555,0.55701
145.12448,0.56041
144.88340,0.56311
144.64233,0.56491
144.40126,0.56699
144.16019,0.57017
143.91912,0.57371
143.67805,0.57594
143.43698,0.57550
143.19591,0.57193
142.95484,0.56579
142.71377,0.55879
142.47270,0.55275
142.23163,0.54765
141.99056,0.54173
141.74949,0.53400
141.50842,0.52559
141.26735,0.51816
141.02628,0.51202
140.78521,0.50653
140.54413,0.50153
140.30306,0.49762
140.06199,0.49528
139.82092,0.49429
139.57985,0.49435
139.33878,0.49570
139.09771,0.49852
138.85664,0.50236
138.61557,0.50646
138.37450,0.51023
138.13343,0.51341
137.89236,0.51660
137.65129,0.52119
137.41022,0.52798
137.16915,0.53691
136.92808,0.54804
136.68701,0.56133
136.44594,0.57588
136.20486,0.59088
135.96379,0.60688
135.72272,0.62494
135.48165,0.64478
135.24058,0.66465
134.99951,0.68336
134.75844,0.70162
134.51737,0.72082
134.27630,0.74162
134.03523,0.76407
133.79416,0.78786
133.55309,0.81164
133.31202,0.83358
133.07095,0.85313
132.82988,0.87106
132.58881,0.88846
132.34774,0.90642
132.10667,0.92530
131.86559,0.94335
131.62452,0.95781
131.38345,0.96845
131.14238,0.97777
130.90131,0.98722
130.66024,0.99545
130.41917,0.99959
130.17810,0.99744
129.93703,0.98966
129.69596,0.97930
129.45489,0.96801
129.21382,0.95340
128.97275,0.93232
128.73168,0.90590
128.49061,0.87921
128.24954,0.85632
128.00847,0.83717
127.76740,0.81919
127.52632,0.80061
127.28525,0.78129
127.04418,0.76119
126.80311,0.74013
126.56204,0.71906
126.32097,0.69952
126.07990,0.68180
125.83883,0.66470
125.59776,0.64728
125.35669,0.63036
125.11562,0.61564
124.87455,0.60340
124.63348,0.59189
124.39241,0.57945
124.15134,0.56624
123.91027,0.55341
123.66920,0.54161
123.42812,0.53089
123.18705,0.52101
122.94598,0.51175
122.70491,0.50363
122.46384,0.49780
122.22277,0.49449
121.98170,0.49195
121.74063,0.48817
121.49956,0.48335
121.25849,0.47955
121.01742,0.47844
120.77635,0.48007
120.53528,0.48353
120.29421,0.48792
120.05314,0.49308
119.81207,0.49986
119.57100,0.50972
119.32993,0.52351
119.08885,0.54065
118.84778,0.55970
118.60671,0.57995
118.36564,0.60206
118.12457,0.62671
117.88350,0.65334
117.64243,0.68066
117.40136,0.70700
117.16029,0.73031
116.91922,0.74975
116.67815,0.76596
116.43708,0.77814
116.19601,0.78325
115.95494,0.78042
115.71387,0.77365
115.47280,0.76778
115.23173,0.76385
114.99066,0.75930
114.74958,0.75202
114.50851,0.74337
114.26744,0.73650
114.02637,0.73260
113.78530,0.73004
113.54423,0.72675
113.30316,0.72155
113.06209,0.71406
112.82102,0.70538
112.57995,0.69852
112.33888,0.69687
112.09781,0.70180
111.85674,0.71218
111.61567,0.72546
111.37460,0.73769
111.13353,0.74358
110.89246,0.74030
110.65139,0.73140
110.41031,0.72395
110.16924,0.72249
109.92817,0.72680
109.68710,0.73371
109.44603,0.73816
109.20496,0.73397
108.96389,0.71841
108.72282,0.69538
108.48175,0.67130
108.24068,0.65058
107.99961,0.63507
107.75854,0.62455
107.51747,0.61681
107.27640,0.60774
107.03533,0.59297
106.79426,0.57138
106.55319,0.54686
106.31212,0.52529
106.07104,0.50995
105.82997,0.49958
105.58890,0.49031
105.34783,0.47921
105.10676,0.46646
104.86569,0.45446
104.62462,0.44503
104.38355,0.43736
104.14248,0.42907
103.90141,0.41897
103.66034,0.40777
103.41927,0.39659
103.17820,0.38609
102.93713,0.37736
102.69606,0.37180
102.45499,0.36898
102.21392,0.36591
101.97285,0.35961
101.73177,0.35035
101.49070,0.34149
101.24963,0.33642
101.00856,0.33576
100.76749,0.33647
100.52642,0.33372
100.28535,0.32577
100.04428,0.31633
99.80321,0.31061
99.56214,0.31017
99.32107,0.31149
99.08000,0.30892
98.83893,0.30089
98.59786,0.29244
98.35679,0.28921
98.11572,0.29070
97.87465,0.29120
97.63358,0.28770
97.39250,0.28389
97.15143,0.28436
96.91036,0.28807
96.66929,0.29028
96.42822,0.28972
96.18715,0.29032
95.94608,0.29495
95.70501,0.30161
95.46394,0.30733
95.22287,0.31293
94.98180,0.32039
94.74073,0.32781
94.49966,0.33127
94.25859,0.33135
94.01752,0.33211
93.77645,0.33415
93.53538,0.33438
93.29431,0.33273
93.05323,0.33266
92.81216,0.33464
92.57109,0.33511
92.33002,0.33274
92.08895,0.33044
91.84788,0.33030
91.60681,0.33120
91.36574,0.33242
91.12467,0.33637
90.88360,0.34586
90.64253,0.36080
90.40146,0.38001
90.16039,0.40365
89.91932,0.43116
89.67825,0.46122
89.43718,0.49598
89.19611,0.53784
88.95504,0.58105
88.71396,0.61765
88.47289,0.64895
88.23182,0.67656
87.99075,0.69238
87.74968,0.69125
87.50861,0.67907
87.26754,0.66008
87.02647,0.63417
86.78540,0.60435
86.54433,0.57476
86.30326,0.54605
86.06219,0.51775
85.82112,0.49070
85.58005,0.46537
85.33898,0.44147
85.09791,0.41939
84.85684,0.39990
84.61577,0.38271
84.37469,0.36716
84.13362,0.35358
83.89255,0.34228
83.65148,0.33229
83.41041,0.32252
83.16934,0.31290
82.92827,0.30338
82.68720,0.29368
82.44613,0.28443
82.20506,0.27678
81.96399,0.27103
81.72292,0.26695
81.48185,0.26432
81.24078,0.26238
80.99971,0.25999
80.75864,0.25683
80.51757,0.25360
80.27650,0.25095
80.03542,0.24898
79.79435,0.24735
79.55328,0.24534
79.31221,0.24248
79.07114,0.23941
78.83007,0.23712
78.58900,0.23526
78.34793,0.23246
78.10686,0.22828
77.86579,0.22362
77.62472,0.21935
77.38365,0.21573
77.14258,0.21276
76.90151,0.21022
76.66044,0.20771
76.41937,0.20501
76.17830,0.20223
75.93723,0.19978
75.69615,0.19796
75.45508,0.19645
75.21401,0.19474
74.97294,0.19325
74.73187,0.19330
74.49080,0.19566
74.24973,0.19954
74.00866,0.20273
73.76759,0.20304
73.52652,0.20027
73.28545,0.19653
73.04438,0.19368
72.80331,0.19190
72.56224,0.19109
72.32117,0.19189
72.08010,0.19428
71.83903,0.19635
71.59796,0.19580
71.35688,0.19247
71.11581,0.18851
70.87474,0.18631
70.63367,0.18713
70.39260,0.19183
70.15153,0.20158
69.91046,0.21700
69.66939,0.23628
69.42832,0.25531
69.18725,0.26982
68.94618,0.27741
68.70511,0.27758
68.46404,0.27067
68.22297,0.25752
67.98190,0.24012
67.74083,0.22202
67.49976,0.20692
67.25869,0.19639
67.01761,0.18946
66.77654,0.18400
66.53547,0.17801
66.29440,0.17067
66.05333,0.16336
65.81226,0.15892
65.57119,0.15924
65.33012,0.16424
65.08905,0.17286
64.84798,0.18397
64.60691,0.19665
64.36584,0.20981
64.12477,0.22156
63.88370,0.22946
63.64263,0.23236
63.40156,0.23116
63.16049,0.22726
62.91942,0.22130
62.67834,0.21382
62.43727,0.20595
62.19620,0.19863
61.95513,0.19146
61.71406,0.18303
61.47299,0.17260
61.23192,0.16124
60.99085,0.15136
60.74978,0.14545
60.50871,0.14503
60.26764,0.15008
60.02657,0.15874
59.78550,0.16840
59.54443,0.17747
59.30336,0.18561
59.06229,0.19166
58.82122,0.19323
58.58015,0.18925
58.33907,0.18148
58.09800,0.17233
57.85693,0.16292
57.61586,0.15401
57.37479,0.14771
57.13372,0.14749
56.89265,0.15601
56.65158,0.17213
56.41051,0.18935
56.16944,0.19845
55.92837,0.19427
55.68730,0.17943
55.44623,0.16124
55.20516,0.14753
54.96409,0.14412
54.72302,0.15296
54.48195,0.17106
54.24088,0.18999
53.99980,0.19849
53.75873,0.19186
53.51766,0.17649
53.27659,0.16204
53.03552,0.15598
52.79445,0.16268
52.55338,0.18187
52.31231,0.20485
52.07124,0.21332
51.83017,0.19654
51.58910,0.16826
51.34803,0.14974
51.10696,0.15183
50.86589,0.17249
50.62482,0.19437
50.38375,0.19308
50.14268,0.17112
49.90161,0.15705
49.66053,0.17235
49.41946,0.21227
49.17839,0.23468
48.93732,0.20928
48.69625,0.17630
48.45518,0.17182
48.21411,0.19148
47.97304,0.20461
47.73197,0.19683
47.49090,0.19122
47.24983,0.19957
47.00876,0.20452
46.76769,0.19173
46.52662,0.17814
46.28555,0.18019
46.04448,0.18668
45.80341,0.18177
45.56234,0.17559
45.32126,0.18116
45.08019,0.18831
44.83912,0.18622
44.59805,0.18745
44.35698,0.19876
44.11591,0.20644
43.87484,0.20743
43.63377,0.21318
43.39270,0.21959
43.15163,0.21804
42.91056,0.21737
42.66949,0.22325
42.42842,0.22449
42.18735,0.21662
41.94628,0.20999
41.70521,0.20767
41.46414,0.20377
41.22307,0.19793
40.98199,0.19569
40.74092,0.19913
40.49985,0.20559
40.25878,0.21295
40.01771,0.22046
39.77664,0.22504
39.53557,0.22263
39.29450,0.21361
39.05343,0.20459
38.81236,0.20437
38.57129,0.21657
38.33022,0.23529
38.08915,0.25132
37.84808,0.26119
37.60701,0.26367
37.36594,0.25493
37.12487,0.23820
36.88380,0.22570
36.64272,0.22490
36.40165,0.23238
36.16058,0.23919
35.91951,0.24018
35.67844,0.23794
35.43737,0.23493
35.19630,0.22748
34.95523,0.21436
34.71416,0.20216
34.47309,0.19625
34.23202,0.19513
33.99095,0.19452
33.74988,0.19305
33.50881,0.19332
33.26774,0.19394
33.02667,0.18699
32.78560,0.17258
32.54453,0.16374
32.30345,0.16833
32.06238,0.17794
31.82131,0.17751
31.58024,0.16081
31.33917,0.13597
31.09810,0.11508
30.85703,0.10135
30.61596,0.08931
30.37489,0.07340
30.13382,0.05284
29.89275,0.03116
29.65168,0.01272
29.41061,-0.00211
29.16954,-0.01593
28.92847,-0.02792
28.68740,-0.03393
28.44633,-0.03470
28.20526,-0.03755
27.96418,-0.04758
27.72311,-0.06124
27.48204,-0.07084
27.24097,-0.07443
26.99990,-0.07700
26.75883,-0.08199
26.51776,-0.08694
26.27669,-0.08770
26.03562,-0.08352
25.79455,-0.07999
25.55348,-0.08630
25.31241,-0.10642
25.07134,-0.13349
24.83027,-0.15438
24.58920,-0.16073
24.34813,-0.15760
24.10706,-0.15667
23.86599,-0.16261
23.62491,-0.17151
23.38384,-0.17785
23.14277,-0.17881
22.90170,-0.17626
22.66063,-0.17560
22.41956,-0.17937
22.17849,-0.18865
21.93742,-0.20903
21.69635,-0.24212
21.45528,-0.27261
21.21421,-0.28113
20.97314,-0.27240
20.73207,-0.27010
20.49100,-0.28636
20.24993,-0.30755
20.00886,-0.31178
19.76779,-0.30034
19.52672,-0.29522
19.28564,-0.30897
19.04457,-0.33219
18.80350,-0.34918
18.56243,-0.35383
18.32136,-0.34584
18.08029,-0.32681
17.83922,-0.30543
17.59815,-0.29353
17.35708,-0.29805
17.11601,-0.31471
16.87494,-0.32890
16.63387,-0.33328
16.39280,-0.33578
16.15173,-0.34208
15.91066,-0.34794
15.66959,-0.34944
15.42852,-0.35176
15.18745,-0.36367
14.94637,-0.38270
14.70530,-0.39306
14.46423,-0.38058
14.22316,-0.35754
13.98209,-0.34404
13.74102,-0.34882
13.49995,-0.36387
13.25888,-0.36762
13.01781,-0.35898
12.77674,-0.35367
12.53567,-0.35716
12.29460,-0.36188
12.05353,-0.36782
11.81246,-0.38843
11.57139,-0.42636
11.33032,-0.45321
11.08925,-0.43627
10.84818,-0.41314
10.60710,-0.39433
10.36603,-0.39078
10.12496,-0.40336
9.88389,-0.42064
9.64282,-0.42856
9.40175,-0.42015
9.16068,-0.40563
8.91961,-0.39553
8.67854,-0.38984
8.43747,-0.38437
8.19640,-0.37601
7.95533,-0.36362
7.71426,-0.35001
7.47319,-0.34156
7.23212,-0.33881
6.99105,-0.34019
6.74998,-0.34604
6.50891,-0.35197
6.26783,-0.35272
6.02676,-0.34806
5.78569,-0.33935
5.54462,-0.32896
5.30355,-0.32155
5.06248,-0.32027
4.82141,-0.32695
4.58034,-0.34232
4.33927,-0.35687
4.09820,-0.35675
3.85713,-0.34696
3.61606,-0.34242
3.37499,-0.34325
3.13392,-0.34445
2.89285,-0.34668
2.65178,-0.34337
2.41071,-0.33067
2.16964,-0.31880
1.92856,-0.31418
1.68749,-0.31519
1.44642,-0.32333
1.20535,-0.33263
0.96428,-0.33288
0.72321,-0.34331
0.48214,-0.41978
0.24107,-0.50058
-0.00000,-0.15777
