399.69498,1.47062
399.45391,1.46473
399.21284,1.46293
398.97177,1.46337
398.73070,1.45863
398.48963,1.44749
398.24856,1.43771
398.00749,1.43483
397.76642,1.43593
397.52535,1.43563
397.28428,1.43402
397.04321,1.43473
396.80214,1.43750
396.56107,1.43807
396.32000,1.43592
396.07892,1.43665
395.83785,1.44493
395.59678,1.45855
395.35571,1.46875
395.11464,1.46587
394.87357,1.44738
394.63250,1.42232
394.39143,1.40460
394.15036,1.40103
393.90929,1.40712
393.66822,1.41340
393.42715,1.41606
393.18608,1.42059
392.94501,1.43206
392.70394,1.44682
392.46287,1.45558
392.22180,1.45301
391.98073,1.44125
391.73965,1.42750
391.49858,1.42181
391.25751,1.42533
391.01644,1.42819
390.77537,1.42488
390.53430,1.42052
390.29323,1.42026
390.05216,1.42087
389.81109,1.41658
389.57002,1.40637
389.32895,1.39252
389.08788,1.37775
388.84681,1.36441
388.60574,1.35411
388.36467,1.34923
388.12360,1.35379
387.88253,1.36765
387.64146,1.38171
387.40038,1.38389
387.15931,1.37035
386.91824,1.34831
386.67717,1.32704
386.43610,1.31060
386.19503,1.29933
385.95396,1.29301
385.71289,1.29047
385.47182,1.28968
385.23075,1.28820
384.98968,1.28466
384.74861,1.28007
384.50754,1.27576
384.26647,1.27047
384.02540,1.26144
383.78433,1.24894
383.54326,1.23725
383.30219,1.22977
383.06111,1.22459
382.82004,1.21621
382.57897,1.20240
382.33790,1.18757
382.09683,1.17847
381.85576,1.17833
381.61469,1.18466
381.37362,1.19204
381.13255,1.19749
380.89148,1.20232
380.65041,1.20468
380.40934,1.19612
380.16827,1.17624
379.92720,1.15811
379.68613,1.15134
379.44506,1.15339
379.20399,1.15922
378.96292,1.16781
378.72184,1.18018
378.48077,1.19667
378.23970,1.21424
377.99863,1.22479
377.75756,1.22319
377.51649,1.21620
377.27542,1.21440
377.03435,1.22059
376.79328,1.23048
376.55221,1.23893
376.31114,1.24512
376.07007,1.25232
375.82900,1.26182
375.58793,1.26932
375.34686,1.27249
375.10579,1.27776
374.86472,1.29059
374.62365,1.30802
374.38257,1.32536
374.14150,1.34065
373.90043,1.35085
373.65936,1.35096
373.41829,1.34115
373.17722,1.32804
372.93615,1.31810
372.69508,1.31610
372.45401,1.32331
372.21294,1.33439
371.97187,1.34163
371.73080,1.34302
371.48973,1.34225
371.24866,1.34051
371.00759,1.33437
370.76652,1.32425
370.52545,1.31761
370.28437,1.31799
370.04330,1.31823
369.80223,1.31144
369.56116,1.30289
369.32009,1.30141
369.07902,1.30572
368.83795,1.30773
368.59688,1.30522
368.35581,1.30393
368.11474,1.30837
367.87367,1.31593
367.63260,1.31933
367.39153,1.31316
367.15046,1.29962
366.90939,1.28752
366.66832,1.28474
366.42725,1.29234
366.18618,1.30406
365.94510,1.31206
365.70403,1.31316
365.46296,1.30808
365.22189,1.29819
364.98082,1.28588
364.73975,1.27323
364.49868,1.26087
364.25761,1.25167
364.01654,1.24938
363.77547,1.25206
363.53440,1.25325
363.29333,1.25142
363.05226,1.25176
362.81119,1.25728
362.57012,1.26393
362.32905,1.26574
362.08798,1.26212
361.84691,1.25606
361.60583,1.24848
361.36476,1.23994
361.12369,1.23334
360.88262,1.22989
360.64155,1.22657
360.40048,1.22119
360.15941,1.21577
359.91834,1.21287
359.67727,1.21261
359.43620,1.21376
359.19513,1.21491
358.95406,1.21493
358.71299,1.21321
358.47192,1.20960
358.23085,1.20544
357.98978,1.20406
357.74871,1.20789
357.50764,1.21451
357.26656,1.21794
357.02549,1.21472
356.78442,1.20667
356.54335,1.19718
356.30228,1.18838
356.06121,1.18236
355.82014,1.18078
355.57907,1.18215
355.33800,1.18240
355.09693,1.17952
354.85586,1.17553
354.61479,1.17378
354.37372,1.17639
354.13265,1.18340
353.89158,1.19232
353.65051,1.19932
353.40944,1.20157
353.16837,1.19871
352.92729,1.19306
352.68622,1.18839
352.44515,1.18611
352.20408,1.18424
351.96301,1.18224
351.72194,1.18338
351.48087,1.18929
351.23980,1.19522
350.99873,1.19433
350.75766,1.18581
350.51659,1.17593
350.27552,1.17093
350.03445,1.17159
349.79338,1.17472
349.55231,1.17833
349.31124,1.18230
349.07017,1.18481
348.82910,1.18283
348.58802,1.17710
348.34695,1.17227
348.10588,1.17162
347.86481,1.17505
347.62374,1.18126
347.38267,1.18748
347.14160,1.19009
346.90053,1.18919
346.65946,1.18912
346.41839,1.19251
346.17732,1.19730
345.93625,1.20077
345.69518,1.20359
345.45411,1.20754
345.21304,1.21220
344.97197,1.21615
344.73090,1.21928
344.48983,1.22191
344.24875,1.22370
344.00768,1.22499
343.76661,1.22746
343.52554,1.23194
343.28447,1.23681
343.04340,1.23972
342.80233,1.24066
342.56126,1.24102
342.32019,1.24016
342.07912,1.23742
341.83805,1.23618
341.59698,1.24036
341.35591,1.24909
341.11484,1.25915
340.87377,1.26954
340.63270,1.27857
340.39163,1.28096
340.15056,1.27410
339.90948,1.26312
339.66841,1.25502
339.42734,1.25194
339.18627,1.25241
338.94520,1.25600
338.70413,1.26397
338.46306,1.27548
338.22199,1.28601
337.98092,1.29051
337.73985,1.28842
337.49878,1.28303
337.25771,1.27776
337.01664,1.27627
336.77557,1.28046
336.53450,1.28535
336.29343,1.28322
336.05236,1.27627
335.81129,1.27607
335.57021,1.28721
335.32914,1.29873
335.08807,1.29655
334.84700,1.28103
334.60593,1.26358
334.36486,1.25246
334.12379,1.24869
333.88272,1.24990
333.64165,1.25293
333.40058,1.25323
333.15951,1.24770
332.91844,1.23907
332.67737,1.23369
332.43630,1.23337
332.19523,1.23120
331.95416,1.22044
331.71309,1.20597
331.47202,1.19751
331.23094,1.19585
330.98987,1.19467
330.74880,1.19232
330.50773,1.19290
330.26666,1.19631
330.02559,1.19709
329.78452,1.19304
329.54345,1.18672
329.30238,1.17994
329.06131,1.17438
328.82024,1.17419
328.57917,1.18103
328.33810,1.18910
328.09703,1.19063
327.85596,1.18522
327.61489,1.17952
327.37382,1.17931
327.13275,1.18476
326.89167,1.19045
326.65060,1.19024
326.40953,1.18489
326.16846,1.18048
325.92739,1.17892
325.68632,1.17786
325.44525,1.17804
325.20418,1.18175
324.96311,1.18528
324.72204,1.18236
324.48097,1.17460
324.23990,1.16887
323.99883,1.16591
323.75776,1.16111
323.51669,1.15587
323.27562,1.15814
323.03455,1.17022
322.79348,1.18300
322.55240,1.18468
322.31133,1.17329
322.07026,1.15719
321.82919,1.14676
321.58812,1.14967
321.34705,1.16803
321.10598,1.19356
320.86491,1.20862
320.62384,1.20220
320.38277,1.18378
320.14170,1.17094
319.90063,1.17075
319.65956,1.17961
319.41849,1.19159
319.17742,1.20045
318.93635,1.20018
318.69528,1.19041
318.45421,1.17779
318.21313,1.16952
317.97206,1.16750
317.73099,1.16903
317.48992,1.17053
317.24885,1.16949
317.00778,1.16560
316.76671,1.16181
316.52564,1.16305
316.28457,1.17237
316.04350,1.18889
315.80243,1.20800
315.56136,1.22122
315.32029,1.22119
315.07922,1.21209
314.83815,1.20560
314.59708,1.20636
314.35601,1.21017
314.11494,1.21279
313.87386,1.21414
313.63279,1.21455
313.39172,1.21303
313.15065,1.21021
312.90958,1.20816
312.66851,1.20793
312.42744,1.20946
312.18637,1.21328
311.94530,1.22111
311.70423,1.23262
311.46316,1.24233
311.22209,1.24393
310.98102,1.23878
310.73995,1.23456
310.49888,1.23453
310.25781,1.23544
310.01674,1.23521
309.77567,1.23477
309.53459,1.23453
309.29352,1.23565
309.05245,1.24115
308.81138,1.25033
308.57031,1.25628
308.32924,1.25389
308.08817,1.24621
307.84710,1.24072
307.60603,1.24261
307.36496,1.25079
307.12389,1.25831
306.88282,1.25965
306.64175,1.25701
306.40068,1.25654
306.15961,1.26094
305.91854,1.26694
305.67747,1.26854
305.43640,1.26395
305.19532,1.25860
304.95425,1.25861
304.71318,1.26348
304.47211,1.26960
304.23104,1.27678
303.98997,1.28461
303.74890,1.28745
303.50783,1.28016
303.26676,1.26665
303.02569,1.25733
302.78462,1.25824
302.54355,1.26545
302.30248,1.27010
302.06141,1.26779
301.82034,1.26172
301.57927,1.25703
301.33820,1.25428
301.09713,1.25054
300.85605,1.24570
300.61498,1.24402
300.37391,1.24838
300.13284,1.25569
299.89177,1.26056
299.65070,1.26240
299.40963,1.26485
299.16856,1.26967
298.92749,1.27291
298.68642,1.26757
298.44535,1.25329
298.20428,1.23928
297.96321,1.23347
297.72214,1.23378
297.48107,1.23321
297.24000,1.22931
296.99893,1.22521
296.75786,1.22340
296.51678,1.22235
296.27571,1.21918
296.03464,1.21355
295.79357,1.20807
295.55250,1.20549
295.31143,1.20487
295.07036,1.20196
294.82929,1.19522
294.58822,1.18877
294.34715,1.18645
294.10608,1.18664
293.86501,1.18527
293.62394,1.18136
293.38287,1.17720
293.14180,1.17429
292.90073,1.17134
292.65966,1.16699
292.41859,1.16238
292.17751,1.15947
291.93644,1.15852
291.69537,1.15820
291.45430,1.15762
291.21323,1.15704
290.97216,1.15682
290.73109,1.15597
290.49002,1.15260
290.24895,1.14710
290.00788,1.14244
289.76681,1.14039
289.52574,1.14067
289.28467,1.14328
289.04360,1.14818
288.80253,1.15325
288.56146,1.15545
288.32039,1.15333
288.07932,1.14777
287.83824,1.14140
287.59717,1.13673
287.35610,1.13401
287.11503,1.13124
286.87396,1.12637
286.63289,1.11936
286.39182,1.11309
286.15075,1.11161
285.90968,1.11535
285.66861,1.11918
285.42754,1.11794
285.18647,1.11276
284.94540,1.10833
284.70433,1.10669
284.46326,1.10712
284.22219,1.10897
283.98112,1.11111
283.74005,1.11109
283.49897,1.10793
283.25790,1.10350
283.01683,1.10013
282.77576,1.09912
282.53469,1.10087
282.29362,1.10387
282.05255,1.10525
281.81148,1.10443
281.57041,1.10348
281.32934,1.10325
281.08827,1.10270
280.84720,1.10183
280.60613,1.10208
280.36506,1.10401
280.12399,1.10595
279.88292,1.10542
279.64185,1.10218
279.40078,1.09888
279.15970,1.09818
278.91863,1.10043
278.67756,1.10420
278.43649,1.10780
278.19542,1.11079
277.95435,1.11403
277.71328,1.11714
277.47221,1.11784
277.23114,1.11554
276.99007,1.11280
276.74900,1.11140
276.50793,1.10994
276.26686,1.10727
276.02579,1.10521
275.78472,1.10619
275.54365,1.10981
275.30258,1.11278
275.06151,1.11234
274.82043,1.10964
274.57936,1.10855
274.33829,1.11088
274.09722,1.11424
273.85615,1.11527
273.61508,1.11311
273.37401,1.10864
273.13294,1.10352
272.89187,1.10100
272.65080,1.10390
272.40973,1.11043
272.16866,1.11522
271.92759,1.11545
271.68652,1.11291
271.44545,1.11067
271.20438,1.11055
270.96331,1.11308
270.72224,1.11747
270.48116,1.12216
270.24009,1.12597
269.99902,1.12873
269.75795,1.13172
269.51688,1.13659
269.27581,1.14253
269.03474,1.14609
268.79367,1.14491
268.55260,1.14098
268.31153,1.13967
268.07046,1.14543
267.82939,1.15688
267.58832,1.16666
267.34725,1.16868
267.10618,1.16505
266.86511,1.16272
266.62404,1.16513
266.38297,1.17088
266.14189,1.17867
265.90082,1.18928
265.65975,1.20156
265.41868,1.21093
265.17761,1.21480
264.93654,1.21638
264.69547,1.22060
264.45440,1.22901
264.21333,1.24005
263.97226,1.25099
263.73119,1.25924
263.49012,1.26465
263.24905,1.27011
263.00798,1.27746
262.76691,1.28437
262.52584,1.28803
262.28477,1.29040
262.04370,1.29603
261.80262,1.30554
261.56155,1.31573
261.32048,1.32630
261.07941,1.34082
260.83834,1.36024
260.59727,1.38106
260.35620,1.40063
260.11513,1.41949
259.87406,1.43823
259.63299,1.45597
259.39192,1.47117
259.15085,1.48214
258.90978,1.48916
258.66871,1.49553
258.42764,1.50464
258.18657,1.51819
257.94550,1.53749
257.70443,1.56220
257.46335,1.58717
257.22228,1.60706
256.98121,1.62478
256.74014,1.64915
256.49907,1.68102
256.25800,1.70508
256.01693,1.70552
255.77586,1.68931
255.53479,1.67605
255.29372,1.67604
255.05265,1.68428
254.81158,1.68714
254.57051,1.67724
254.32944,1.66291
254.08837,1.65611
253.84730,1.66020
253.60623,1.67142
253.36516,1.68087
253.12408,1.67936
252.88301,1.66880
252.64194,1.66229
252.40087,1.66765
252.15980,1.67598
251.91873,1.67088
251.67766,1.65088
251.43659,1.63420
251.19552,1.63375
250.95445,1.63918
250.71338,1.63159
250.47231,1.61025
250.23124,1.59099
249.99017,1.58444
249.74910,1.58639
249.50803,1.58759
249.26696,1.58753
249.02589,1.59121
248.78481,1.59529
248.54374,1.58970
248.30267,1.57431
248.06160,1.55979
247.82053,1.55164
247.57946,1.54842
247.33839,1.55326
247.09732,1.57053
246.85625,1.59384
246.61518,1.61014
246.37411,1.61494
246.13304,1.61527
245.89197,1.61861
245.65090,1.62941
245.40983,1.65014
245.16876,1.67496
244.92769,1.69057
244.68661,1.69304
244.44554,1.69610
244.20447,1.71534
243.96340,1.75188
243.72233,1.79211
243.48126,1.81994
243.24019,1.83311
242.99912,1.84385
242.75805,1.86166
242.51698,1.88676
242.27591,1.91610
242.03484,1.93378
241.79377,1.91278
241.55270,1.86292
241.31163,1.79843
241.07056,1.72668
240.82949,1.65932
240.58842,1.60632
240.34734,1.56917
240.10627,1.54066
239.86520,1.51170
239.62413,1.47797
239.38306,1.44240
239.14199,1.41247
238.90092,1.39257
238.65985,1.37857
238.41878,1.36290
238.17771,1.34409
237.93664,1.32433
237.69557,1.30156
237.45450,1.27218
237.21343,1.23981
236.97236,1.21375
236.73129,1.19895
236.49022,1.19147
236.24915,1.18337
236.00807,1.16946
235.76700,1.14983
235.52593,1.12872
235.28486,1.11061
235.04379,1.09683
234.80272,1.08596
234.56165,1.07650
234.32058,1.06783
234.07951,1.05931
233.83844,1.05001
233.59737,1.03960
233.35630,1.02937
233.11523,1.02144
232.87416,1.01677
232.63309,1.01394
232.39202,1.00984
232.15095,1.00202
231.90988,0.99079
231.66880,0.97865
231.42773,0.96832
231.18666,0.96121
230.94559,0.95660
230.70452,0.95201
230.46345,0.94617
230.22238,0.94082
229.98131,0.93742
229.74024,0.93452
229.49917,0.93083
229.25810,0.92735
229.01703,0.92411
228.77596,0.91878
228.53489,0.91055
228.29382,0.90191
228.05275,0.89498
227.81168,0.88870
227.57061,0.88096
227.32953,0.87241
227.08846,0.86617
226.84739,0.86428
226.60632,0.86595
226.36525,0.86837
226.12418,0.86866
225.88311,0.86555
225.64204,0.86022
225.40097,0.85518
225.15990,0.85210
224.91883,0.85062
224.67776,0.84942
224.43669,0.84806
224.19562,0.84733
223.95455,0.84739
223.71348,0.84684
223.47241,0.84492
223.23134,0.84338
222.99026,0.84419
222.74919,0.84660
222.50812,0.84839
222.26705,0.84920
222.02598,0.85035
221.78491,0.85226
221.54384,0.85386
221.30277,0.85481
221.06170,0.85644
220.82063,0.85997
220.57956,0.86531
220.33849,0.87175
220.09742,0.87879
219.85635,0.88555
219.61528,0.89030
219.37421,0.89206
219.13314,0.89285
218.89207,0.89675
218.65099,0.90571
218.40992,0.91734
218.16885,0.92746
217.92778,0.93433
217.68671,0.93937
217.44564,0.94450
217.20457,0.95037
216.96350,0.95705
216.72243,0.96522
216.48136,0.97519
216.24029,0.98469
215.99922,0.99068
215.75815,0.99441
215.51708,1.00103
215.27601,1.01293
215.03494,1.02671
214.79387,1.03769
214.55280,1.04460
214.31172,1.04897
214.07065,1.05286
213.82958,1.05764
213.58851,1.06390
213.34744,1.07155
213.10637,1.07938
212.86530,1.08511
212.62423,1.08736
212.38316,1.08749
212.14209,1.08813
211.90102,1.09104
211.65995,1.09687
211.41888,1.10462
211.17781,1.11053
210.93674,1.11113
210.69567,1.10808
210.45460,1.10593
210.21353,1.10691
209.97245,1.11055
209.73138,1.11566
209.49031,1.12093
209.24924,1.12477
209.00817,1.12615
208.76710,1.12520
208.52603,1.12222
208.28496,1.11699
208.04389,1.10966
207.80282,1.10190
207.56175,1.09616
207.32068,1.09328
207.07961,1.09122
206.83854,1.08704
206.59747,1.07983
206.35640,1.07069
206.11533,1.06103
205.87426,1.05257
205.63318,1.04715
205.39211,1.04466
205.15104,1.04213
204.90997,1.03635
204.66890,1.02728
204.42783,1.01816
204.18676,1.01213
203.94569,1.00857
203.70462,1.00362
203.46355,0.99515
203.22248,0.98556
202.98141,0.97798
202.74034,0.97182
202.49927,0.96395
202.25820,0.95298
202.01713,0.94037
201.77606,0.92834
201.53499,0.91796
201.29391,0.90865
201.05284,0.89842
200.81177,0.88588
200.57070,0.87246
200.32963,0.86131
200.08856,0.85396
199.84749,0.84876
199.60642,0.84257
199.36535,0.83362
199.12428,0.82311
198.88321,0.81382
198.64214,0.80711
198.40107,0.80146
198.16000,0.79417
197.91893,0.78439
197.67786,0.77402
197.43679,0.76523
197.19572,0.75784
196.95464,0.75030
196.71357,0.74239
196.47250,0.73528
196.23143,0.72922
195.99036,0.72314
195.74929,0.71628
195.50822,0.70910
195.26715,0.70245
195.02608,0.69655
194.78501,0.69072
194.54394,0.68395
194.30287,0.67614
194.06180,0.66861
193.82073,0.66273
193.57966,0.65829
193.33859,0.65378
193.09752,0.64866
192.85645,0.64426
192.61537,0.64150
192.37430,0.63873
192.13323,0.63337
191.89216,0.62578
191.65109,0.61893
191.41002,0.61448
191.16895,0.61130
190.92788,0.60798
190.68681,0.60435
190.44574,0.60050
190.20467,0.59644
189.96360,0.59278
189.72253,0.59044
189.48146,0.58948
189.24039,0.58865
188.99932,0.58657
188.75825,0.58348
188.51718,0.58118
188.27610,0.58073
188.03503,0.58108
187.79396,0.58036
187.55289,0.57749
187.31182,0.57258
187.07075,0.56712
186.82968,0.56299
186.58861,0.56059
186.34754,0.55919
186.10647,0.55858
185.86540,0.55884
185.62433,0.55949
185.38326,0.55995
185.14219,0.56007
184.90112,0.56002
184.66005,0.56001
184.41898,0.55982
184.17791,0.55901
183.93683,0.55789
183.69576,0.55725
183.45469,0.55731
183.21362,0.55794
182.97255,0.55888
182.73148,0.55932
182.49041,0.55890
182.24934,0.55858
182.00827,0.55875
181.76720,0.55829
181.52613,0.55716
181.28506,0.55690
181.04399,0.55768
180.80292,0.55830
180.56185,0.55921
180.32078,0.56206
180.07971,0.56643
179.83864,0.56965
179.59756,0.57021
179.35649,0.56917
179.11542,0.56824
178.87435,0.56881
178.63328,0.57210
178.39221,0.57837
178.15114,0.58663
177.91007,0.59601
177.66900,0.60622
177.42793,0.61652
177.18686,0.62603
176.94579,0.63526
176.70472,0.64537
176.46365,0.65638
176.22258,0.66729
175.98151,0.67715
175.74044,0.68611
175.49937,0.69583
175.25829,0.70823
175.01722,0.72325
174.77615,0.73878
174.53508,0.75258
174.29401,0.76367
174.05294,0.77237
173.81187,0.78003
173.57080,0.78823
173.32973,0.79742
173.08866,0.80672
172.84759,0.81526
172.60652,0.82308
172.36545,0.82989
172.12438,0.83422
171.88331,0.83496
171.64224,0.83313
171.40117,0.83105
171.16010,0.83039
170.91902,0.83137
170.67795,0.83291
170.43688,0.83353
170.19581,0.83177
169.95474,0.82628
169.71367,0.81701
169.47260,0.80635
169.23153,0.79786
168.99046,0.79352
168.74939,0.79270
168.50832,0.79296
168.26725,0.79190
168.02618,0.78922
167.78511,0.78654
167.54404,0.78500
167.30297,0.78427
167.06190,0.78406
166.82083,0.78486
166.57975,0.78685
166.33868,0.78945
166.09761,0.79221
165.85654,0.79467
165.61547,0.79594
165.37440,0.79590
165.13333,0.79622
164.89226,0.79878
164.65119,0.80373
164.41012,0.81010
164.16905,0.81692
163.92798,0.82331
163.68691,0.82875
163.44584,0.83352
163.20477,0.83818
162.96370,0.84312
162.72263,0.84835
162.48156,0.85334
162.24048,0.85739
161.99941,0.86049
161.75834,0.86275
161.51727,0.86397
161.27620,0.86470
161.03513,0.86624
160.79406,0.86851
160.55299,0.86967
160.31192,0.86830
160.07085,0.86457
159.82978,0.85960
159.58871,0.85522
159.34764,0.85347
159.10657,0.85462
158.86550,0.85639
158.62443,0.85574
158.38336,0.85144
158.14229,0.84483
157.90121,0.83869
157.66014,0.83571
157.41907,0.83661
157.17800,0.83894
156.93693,0.83921
156.69586,0.83687
156.45479,0.83439
156.21372,0.83327
155.97265,0.83198
155.73158,0.82843
155.49051,0.82272
155.24944,0.81653
155.00837,0.81104
154.76730,0.80667
154.52623,0.80322
154.28516,0.79922
154.04409,0.79266
153.80302,0.78356
153.56194,0.77430
153.32087,0.76659
153.07980,0.75950
152.83873,0.75100
152.59766,0.74018
152.35659,0.72763
152.11552,0.71480
151.87445,0.70328
151.63338,0.69384
151.39231,0.68576
151.15124,0.67739
150.91017,0.66740
150.66910,0.65591
150.42803,0.64453
150.18696,0.63495
149.94589,0.62689
149.70482,0.61864
149.46375,0.60965
149.22267,0.60124
148.98160,0.59445
148.74053,0.58851
148.49946,0.58193
148.25839,0.57443
148.01732,0.56689
147.77625,0.55995
147.53518,0.55346
147.29411,0.54757
147.05304,0.54361
146.81197,0.54284
146.57090,0.54467
146.32983,0.54689
146.08876,0.54793
145.84769,0.54832
145.60662,0.54965
145.36555,0.55222
145.12448,0.55481
144.88340,0.55678
144.64233,0.55922
144.40126,0.56321
144.16019,0.56780
143.91912,0.57080
143.67805,0.57124
143.43698,0.56997
143.19591,0.56789
142.95484,0.56489
142.71377,0.56061
142.47270,0.55491
142.23163,0.54745
141.99056,0.53832
141.74949,0.52894
141.50842,0.52103
141.26735,0.51465
141.02628,0.50863
140.78521,0.50251
140.54413,0.49722
140.30306,0.49376
140.06199,0.49197
139.82092,0.49108
139.57985,0.49105
139.33878,0.49217
139.09771,0.49382
138.85664,0.49520
138.61557,0.49679
138.37450,0.49958
138.13343,0.50398
137.89236,0.51031
137.65129,0.51887
137.41022,0.52904
137.16915,0.53989
136.92808,0.55138
136.68701,0.56361
136.44594,0.57623
136.20486,0.58946
135.96379,0.60430
135.72272,0.62106
135.48165,0.63915
135.24058,0.65834
134.99951,0.67877
134.75844,0.69953
134.51737,0.71940
134.27630,0.73946
134.03523,0.76235
133.79416,0.78803
133.55309,0.81332
133.31202,0.83694
133.07095,0.86057
132.82988,0.88370
132.58881,0.90258
132.34774,0.91572
132.10667,0.92610
131.86559,0.93706
131.62452,0.94945
131.38345,0.96217
131.14238,0.97326
130.90131,0.98109
130.66024,0.98552
130.41917,0.98722
130.17810,0.98575
129.93703,0.98003
129.69596,0.97030
129.45489,0.95797
129.21382,0.94371
128.97275,0.92705
128.73168,0.90735
128.49061,0.88444
128.24954,0.85936
128.00847,0.83460
127.76740,0.81272
127.52632,0.79448
127.28525,0.77809
127.04418,0.76058
126.80311,0.74023
126.56204,0.71814
126.32097,0.69702
126.07990,0.67892
125.83883,0.66400
125.59776,0.65068
125.35669,0.63694
125.11562,0.62210
124.87455,0.60691
124.63348,0.59211
124.39241,0.57749
124.15134,0.56293
123.91027,0.54931
123.66920,0.53793
123.42812,0.52905
123.18705,0.52130
122.94598,0.51309
122.70491,0.50446
122.46384,0.49656
122.22277,0.48960
121.98170,0.48278
121.74063,0.47620
121.49956,0.47133
121.25849,0.46942
121.01742,0.47061
120.77635,0.47448
120.53528,0.48027
120.29421,0.48664
120.05314,0.49266
119.81207,0.49922
119.57100,0.50815
119.32993,0.52009
119.08885,0.53437
118.84778,0.55111
118.60671,0.57183
118.36564,0.59764
118.12457,0.62740
117.88350,0.65810
117.64243,0.68694
117.40136,0.71255
117.16029,0.73404
116.91922,0.75025
116.67815,0.76118
116.43708,0.76822
116.19601,0.77252
115.95494,0.77467
115.71387,0.77527
115.47280,0.77430
115.23173,0.77116
114.99066,0.76655
114.74958,0.76166
114.50851,0.75518
114.26744,0.74459
114.02637,0.73094
113.78530,0.71931
113.54423,0.71371
113.30316,0.71339
113.06209,0.71466
112.82102,0.71475
112.57995,0.71355
112.33888,0.71240
112.09781,0.71196
111.85674,0.71221
111.61567,0.71449
111.37460,0.72091
111.13353,0.73057
110.89246,0.73883
110.65139,0.74205
110.41031,0.74065
110.16924,0.73634
109.92817,0.72933
109.68710,0.71968
109.44603,0.70958
109.20496,0.70262
108.96389,0.69980
108.72282,0.69625
108.48175,0.68393
108.24068,0.66041
107.99961,0.63251
107.75854,0.60923
107.51747,0.59438
107.27640,0.58547
107.03533,0.57622
106.79426,0.56116
106.55319,0.54063
106.31212,0.52062
106.07104,0.50696
105.82997,0.50005
105.58890,0.49476
105.34783,0.48553
105.10676,0.47127
104.86569,0.45521
104.62462,0.44103
104.38355,0.43034
104.14248,0.42245
103.90141,0.41505
103.66034,0.40611
103.41927,0.39616
103.17820,0.38797
102.93713,0.38341
102.69606,0.38117
102.45499,0.37751
102.21392,0.36981
101.97285,0.35914
101.73177,0.34908
101.49070,0.34233
101.24963,0.33878
101.00856,0.33585
100.76749,0.33124
100.52642,0.32553
100.28535,0.32105
100.04428,0.31874
99.80321,0.31699
99.56214,0.31357
99.32107,0.30816
99.08000,0.30249
98.83893,0.29856
98.59786,0.29677
98.35679,0.29522
98.11572,0.29174
97.87465,0.28718
97.63358,0.28459
97.39250,0.28474
97.15143,0.28467
96.91036,0.28211
96.66929,0.27972
96.42822,0.28176
96.18715,0.28779
95.94608,0.29286
95.70501,0.29517
95.46394,0.29889
95.22287,0.30691
94.98180,0.31595
94.74073,0.32161
94.49966,0.32433
94.25859,0.32673
94.01752,0.32834
93.77645,0.32711
93.53538,0.32469
93.29431,0.32511
93.05323,0.32829
92.81216,0.32993
92.57109,0.32857
92.33002,0.32669
92.08895,0.32525
91.84788,0.32383
91.60681,0.32430
91.36574,0.32850
91.12467,0.33573
90.88360,0.34587
90.64253,0.36073
90.40146,0.38060
90.16039,0.40451
89.91932,0.43331
89.67825,0.46770
89.43718,0.50520
89.19611,0.54317
88.95504,0.58174
88.71396,0.62046
88.47289,0.65563
88.23182,0.68246
87.99075,0.69640
87.74968,0.69425
87.50861,0.67814
87.26754,0.65464
87.02647,0.62799
86.78540,0.59863
86.54433,0.56799
86.30326,0.53945
86.06219,0.51402
85.82112,0.48945
85.58005,0.46417
85.33898,0.43916
85.09791,0.41615
84.85684,0.39594
84.61577,0.37844
84.37469,0.36305
84.13362,0.34930
83.89255,0.33703
83.65148,0.32606
83.41041,0.31605
83.16934,0.30684
82.92827,0.29853
82.68720,0.29107
82.44613,0.28369
82.20506,0.27535
81.96399,0.26645
81.72292,0.25934
81.48185,0.25582
81.24078,0.25483
80.99971,0.25350
80.75864,0.25031
80.51757,0.24611
80.27650,0.24241
80.03542,0.23960
79.79435,0.23731
79.55328,0.23561
79.31221,0.23499
79.07114,0.23525
78.83007,0.23527
78.58900,0.23409
78.34793,0.23190
78.10686,0.22928
77.86579,0.22594
77.62472,0.22119
77.38365,0.21557
77.14258,0.21035
76.90151,0.20604
76.66044,0.20246
76.41937,0.19986
76.17830,0.19873
75.93723,0.19868
75.69615,0.19834
75.45508,0.19651
75.21401,0.19299
74.97294,0.18898
74.73187,0.18651
74.49080,0.18702
74.24973,0.19021
74.00866,0.19457
73.76759,0.19882
73.52652,0.20200
73.28545,0.20302
73.04438,0.20130
72.80331,0.19762
72.56224,0.19332
72.32117,0.18922
72.08010,0.18561
71.83903,0.18274
71.59796,0.18070
71.35688,0.17938
71.11581,0.17881
70.87474,0.17982
70.63367,0.18373
70.39260,0.19125
70.15153,0.20259
69.91046,0.21807
69.66939,0.23683
69.42832,0.25490
69.18725,0.26720
68.94618,0.27178
68.70511,0.26989
68.46404,0.26283
68.22297,0.25144
67.98190,0.23760
67.74083,0.22397
67.49976,0.21251
67.25869,0.20370
67.01761,0.19652
66.77654,0.18916
66.53547,0.18059
66.29440,0.17168
66.05333,0.16417
65.81226,0.15897
65.57119,0.15618
65.33012,0.15657
65.08905,0.16131
64.84798,0.17058
64.60691,0.18337
64.36584,0.19810
64.12477,0.21236
63.88370,0.22310
63.64263,0.22875
63.40156,0.23017
63.16049,0.22893
62.91942,0.22581
62.67834,0.22099
62.43727,0.21432
62.19620,0.20574
61.95513,0.19529
61.71406,0.18295
61.47299,0.16883
61.23192,0.15451
60.99085,0.14303
60.74978,0.13724
60.50871,0.13827
60.26764,0.14580
60.02657,0.15862
59.78550,0.17432
59.54443,0.18901
59.30336,0.19835
59.06229,0.19920
58.82122,0.19078
58.58015,0.17601
58.33907,0.16054
58.09800,0.14950
57.85693,0.14597
57.61586,0.15110
57.37479,0.16370
57.13372,0.17937
56.89265,0.19090
56.65158,0.19160
56.41051,0.18060
56.16944,0.16399
55.92837,0.14973
55.68730,0.14328
55.44623,0.14718
55.20516,0.16099
54.96409,0.17916
54.72302,0.19048
54.48195,0.18622
54.24088,0.17060
53.99980,0.15642
53.75873,0.15360
53.51766,0.16507
53.27659,0.18614
53.03552,0.20279
52.79445,0.20015
52.55338,0.18228
52.31231,0.16692
52.07124,0.16549
51.83017,0.17842
51.58910,0.19473
51.34803,0.19581
51.10696,0.17861
50.86589,0.16170
50.62482,0.16115
50.38375,0.17957
50.14268,0.20232
49.90161,0.20449
49.66053,0.18566
49.41946,0.17299
49.17839,0.18371
48.93732,0.20490
48.69625,0.20386
48.45518,0.18248
48.21411,0.17452
47.97304,0.19387
47.73197,0.21788
47.49090,0.21184
47.24983,0.18932
47.00876,0.18315
46.76769,0.19056
46.52662,0.18610
46.28555,0.17425
46.04448,0.17524
45.80341,0.18289
45.56234,0.18141
45.32126,0.17690
45.08019,0.17964
44.83912,0.18473
44.59805,0.18831
44.35698,0.19346
44.11591,0.19643
43.87484,0.19379
43.63377,0.19293
43.39270,0.19733
43.15163,0.20074
42.91056,0.20222
42.66949,0.20782
42.42842,0.21584
42.18735,0.21669
41.94628,0.20864
41.70521,0.19976
41.46414,0.19547
41.22307,0.19350
40.98199,0.19228
40.74092,0.19617
40.49985,0.20885
40.25878,0.22674
40.01771,0.24040
39.77664,0.24026
39.53557,0.22586
39.29450,0.20995
39.05343,0.20580
38.81236,0.21488
38.57129,0.22810
38.33022,0.23439
38.08915,0.23196
37.84808,0.23061
37.60701,0.23677
37.36594,0.24449
37.12487,0.24758
36.88380,0.24827
36.64272,0.24903
36.40165,0.24817
36.16058,0.24541
35.91951,0.24374
35.67844,0.24522
35.43737,0.24848
35.19630,0.25006
34.95523,0.24685
34.71416,0.23845
34.47309,0.22785
34.23202,0.21808
33.99095,0.20782
33.74988,0.19358
33.50881,0.17685
33.26774,0.16269
33.02667,0.15168
32.78560,0.14009
32.54453,0.12678
32.30345,0.11681
32.06238,0.11573
31.82131,0.11986
31.58024,0.11770
31.33917,0.10432
31.09810,0.08827
30.85703,0.07880
30.61596,0.07601
30.37489,0.07592
30.13382,0.07478
29.89275,0.06866
29.65168,0.05466
29.41061,0.03219
29.16954,0.00362
28.92847,-0.02691
28.68740,-0.05634
28.44633,-0.08161
28.20526,-0.09847
27.96418,-0.10561
27.72311,-0.10521
27.48204,-0.09910
27.24097,-0.08980
26.99990,-0.08348
26.75883,-0.08762
26.51776,-0.10509
26.27669,-0.12932
26.03562,-0.14780
25.79455,-0.15461
25.55348,-0.15406
25.31241,-0.15092
25.07134,-0.14879
24.83027,-0.15428
24.58920,-0.17181
24.34813,-0.19686
24.10706,-0.22193
23.86599,-0.24149
23.62491,-0.25179
23.38384,-0.25832
23.14277,-0.27353
22.90170,-0.29761
22.66063,-0.31264
22.41956,-0.30367
22.17849,-0.27903
21.93742,-0.26094
21.69635,-0.26305
21.45528,-0.28268
21.21421,-0.30938
20.97314,-0.33360
20.73207,-0.34613
20.49100,-0.34107
20.24993,-0.32263
20.00886,-0.30102
19.76779,-0.28555
19.52672,-0.28345
19.28564,-0.29481
19.04457,-0.30931
18.80350,-0.31741
18.56243,-0.32134
18.32136,-0.32691
18.08029,-0.33232
17.83922,-0.33279
17.59815,-0.32945
17.35708,-0.32880
17.11601,-0.33457
16.87494,-0.34563
16.63387,-0.36121
16.39280,-0.38165
16.15173,-0.40184
15.91066,-0.41263
15.66959,-0.41230
15.42852,-0.40608
15.18745,-0.39504
14.94637,-0.37934
14.70530,-0.36746
14.46423,-0.37033
14.22316,-0.38894
13.98209,-0.40693
13.74102,-0.40562
13.49995,-0.39041
13.25888,-0.38003
13.01781,-0.38696
12.77674,-0.41293
12.53567,-0.44205
12.29460,-0.45022
12.05353,-0.43795
11.81246,-0.42705
11.57139,-0.42511
11.33032,-0.42119
11.08925,-0.40838
10.84818,-0.39336
10.60710,-0.38650
10.36603,-0.39082
10.12496,-0.40048
9.88389,-0.40935
9.64282,-0.41295
9.40175,-0.40909
9.16068,-0.40332
8.91961,-0.40434
8.67854,-0.41196
8.43747,-0.41670
8.19640,-0.41388
7.95533,-0.40540
7.71426,-0.39561
7.47319,-0.39155
7.23212,-0.39221
6.99105,-0.39213
6.74998,-0.39141
6.50891,-0.39357
6.26783,-0.40380
6.02676,-0.42443
5.78569,-0.44189
5.54462,-0.44311
5.30355,-0.43707
5.06248,-0.42975
4.82141,-0.41327
4.58034,-0.38818
4.33927,-0.36564
4.09820,-0.35291
3.85713,-0.35668
3.61606,-0.37717
3.37499,-0.39990
3.13392,-0.41126
2.89285,-0.40963
2.65178,-0.39795
2.41071,-0.38626
2.16964,-0.38575
1.92856,-0.38955
1.68749,-0.38837
1.44642,-0.39004
1.20535,-0.39541
0.96428,-0.39702
0.72321,-0.41788
0.48214,-0.51101
0.24107,-0.56134
-0.00000,-0.15552
