399.69498,1.46117
399.45391,1.45580
399.21284,1.44953
398.97177,1.44495
398.73070,1.44846
398.48963,1.46131
398.24856,1.47331
398.00749,1.47345
397.76642,1.46773
397.52535,1.47258
397.28428,1.48986
397.04321,1.50030
396.80214,1.48673
396.56107,1.45779
396.32000,1.43490
396.07892,1.42786
395.83785,1.43298
395.59678,1.44239
395.35571,1.44924
395.11464,1.45060
394.87357,1.44964
394.63250,1.45064
394.39143,1.45069
394.15036,1.44372
393.90929,1.43244
393.66822,1.42615
393.42715,1.42765
393.18608,1.43103
392.94501,1.43086
392.70394,1.42720
392.46287,1.42254
392.22180,1.42012
391.98073,1.42314
391.73965,1.43107
391.49858,1.43804
391.25751,1.43640
391.01644,1.42391
390.77537,1.40839
390.53430,1.39982
390.29323,1.39907
390.05216,1.40016
389.81109,1.39971
389.57002,1.39704
389.32895,1.39006
389.08788,1.37778
388.84681,1.36418
388.60574,1.35576
388.36467,1.35472
388.12360,1.35753
387.88253,1.36036
387.64146,1.36196
387.40038,1.36007
387.15931,1.34952
386.91824,1.33152
386.67717,1.31824
386.43610,1.31777
386.19503,1.32108
385.95396,1.31332
385.71289,1.29482
385.47182,1.27849
385.23075,1.27032
384.98968,1.26503
384.74861,1.25714
384.50754,1.24760
384.26647,1.23736
384.02540,1.22134
383.78433,1.19643
383.54326,1.17178
383.30219,1.16129
383.06111,1.16890
382.82004,1.18474
382.57897,1.19462
382.33790,1.19128
382.09683,1.17819
381.85576,1.16791
381.61469,1.17086
381.37362,1.18464
381.13255,1.19591
380.89148,1.19537
380.65041,1.18533
380.40934,1.17138
380.16827,1.15845
379.92720,1.15240
379.68613,1.15570
379.44506,1.16380
379.20399,1.17046
378.96292,1.17463
378.72184,1.17899
378.48077,1.18475
378.23970,1.19095
377.99863,1.19627
377.75756,1.19914
377.51649,1.19953
377.27542,1.20167
377.03435,1.21109
376.79328,1.22888
376.55221,1.24899
376.31114,1.26217
376.07007,1.26538
375.82900,1.26417
375.58793,1.26605
375.34686,1.27454
375.10579,1.28928
374.86472,1.30744
374.62365,1.32205
374.38257,1.32472
374.14150,1.31580
373.90043,1.30586
373.65936,1.30369
373.41829,1.30878
373.17722,1.31468
372.93615,1.31708
372.69508,1.31760
372.45401,1.31978
372.21294,1.32397
371.97187,1.32626
371.73080,1.32173
371.48973,1.31115
371.24866,1.30266
371.00759,1.30278
370.76652,1.30782
370.52545,1.30904
370.28437,1.30541
370.04330,1.30518
369.80223,1.31394
369.56116,1.32708
369.32009,1.33620
369.07902,1.33852
368.83795,1.33612
368.59688,1.33077
368.35581,1.32334
368.11474,1.31583
367.87367,1.31022
367.63260,1.30588
367.39153,1.30002
367.15046,1.29174
366.90939,1.28496
366.66832,1.28506
366.42725,1.29098
366.18618,1.29435
365.94510,1.28977
365.70403,1.28146
365.46296,1.27670
365.22189,1.27764
364.98082,1.28093
364.73975,1.28197
364.49868,1.27844
364.25761,1.27120
364.01654,1.26330
363.77547,1.25771
363.53440,1.25470
363.29333,1.25177
363.05226,1.24695
362.81119,1.24062
362.57012,1.23327
362.32905,1.22561
362.08798,1.22041
361.84691,1.21925
361.60583,1.21908
361.36476,1.21664
361.12369,1.21433
360.88262,1.21719
360.64155,1.22558
360.40048,1.23334
360.15941,1.23340
359.91834,1.22500
359.67727,1.21461
359.43620,1.20882
359.19513,1.20794
358.95406,1.20681
358.71299,1.20105
358.47192,1.19165
358.23085,1.18386
357.98978,1.18281
357.74871,1.18897
357.50764,1.19715
357.26656,1.20158
357.02549,1.20192
356.78442,1.20126
356.54335,1.19991
356.30228,1.19653
356.06121,1.19371
355.82014,1.19547
355.57907,1.19979
355.33800,1.20026
355.09693,1.19527
354.85586,1.18918
354.61479,1.18529
354.37372,1.18384
354.13265,1.18463
353.89158,1.18646
353.65051,1.18639
353.40944,1.18361
353.16837,1.18094
352.92729,1.18022
352.68622,1.18106
352.44515,1.18383
352.20408,1.18841
351.96301,1.19095
351.72194,1.18803
351.48087,1.18296
351.23980,1.18217
350.99873,1.18666
350.75766,1.19080
350.51659,1.18925
350.27552,1.18344
350.03445,1.17938
349.79338,1.18034
349.55231,1.18400
349.31124,1.18627
349.07017,1.18618
348.82910,1.18556
348.58802,1.18538
348.34695,1.18537
348.10588,1.18633
347.86481,1.18911
347.62374,1.19200
347.38267,1.19253
347.14160,1.19097
346.90053,1.19012
346.65946,1.19206
346.41839,1.19629
346.17732,1.20133
345.93625,1.20569
345.69518,1.20723
345.45411,1.20475
345.21304,1.20028
344.97197,1.19733
344.73090,1.19740
344.48983,1.20010
344.24875,1.20484
344.00768,1.21019
343.76661,1.21359
343.52554,1.21422
343.28447,1.21402
343.04340,1.21442
342.80233,1.21474
342.56126,1.21506
342.32019,1.21767
342.07912,1.22431
341.83805,1.23345
341.59698,1.24246
341.35591,1.25106
341.11484,1.25978
340.87377,1.26660
340.63270,1.26852
340.39163,1.26669
340.15056,1.26654
339.90948,1.27275
339.66841,1.28406
339.42734,1.29216
339.18627,1.29051
338.94520,1.28438
338.70413,1.28336
338.46306,1.28847
338.22199,1.29357
337.98092,1.29480
337.73985,1.29247
337.49878,1.28739
337.25771,1.28114
337.01664,1.27811
336.77557,1.28211
336.53450,1.29085
336.29343,1.29860
336.05236,1.30332
335.81129,1.30588
335.57021,1.30435
335.32914,1.29567
335.08807,1.28195
334.84700,1.26956
334.60593,1.26251
334.36486,1.25990
334.12379,1.25877
333.88272,1.25747
333.64165,1.25485
333.40058,1.24931
333.15951,1.24156
332.91844,1.23433
332.67737,1.22851
332.43630,1.22300
332.19523,1.21780
331.95416,1.21433
331.71309,1.21368
331.47202,1.21494
331.23094,1.21478
330.98987,1.21135
330.74880,1.20807
330.50773,1.20709
330.26666,1.20359
330.02559,1.19482
329.78452,1.18641
329.54345,1.18187
329.30238,1.17658
329.06131,1.16745
328.82024,1.15846
328.57917,1.15394
328.33810,1.15396
328.09703,1.15713
327.85596,1.16295
327.61489,1.17025
327.37382,1.17599
327.13275,1.17828
326.89167,1.17765
326.65060,1.17381
326.40953,1.16745
326.16846,1.16394
325.92739,1.16875
325.68632,1.17982
325.44525,1.18792
325.20418,1.18586
324.96311,1.17526
324.72204,1.16337
324.48097,1.15748
324.23990,1.16202
323.99883,1.17533
323.75776,1.18934
323.51669,1.19692
323.27562,1.19646
323.03455,1.19018
322.79348,1.18240
322.55240,1.17814
322.31133,1.17965
322.07026,1.18456
321.82919,1.18881
321.58812,1.19014
321.34705,1.18823
321.10598,1.18514
320.86491,1.18296
320.62384,1.17866
320.38277,1.16838
320.14170,1.15622
319.90063,1.15143
319.65956,1.15769
319.41849,1.16960
319.17742,1.17866
318.93635,1.17990
318.69528,1.17462
318.45421,1.16671
318.21313,1.15831
317.97206,1.15228
317.73099,1.15325
317.48992,1.16241
317.24885,1.17502
317.00778,1.18371
316.76671,1.18450
316.52564,1.18048
316.28457,1.17711
316.04350,1.17778
315.80243,1.18381
315.56136,1.19240
315.32029,1.19541
315.07922,1.18703
314.83815,1.17346
314.59708,1.16814
314.35601,1.17908
314.11494,1.20146
313.87386,1.22100
313.63279,1.22706
313.39172,1.22354
313.15065,1.22122
312.90958,1.22232
312.66851,1.22079
312.42744,1.21426
312.18637,1.20722
311.94530,1.20498
311.70423,1.20966
311.46316,1.21850
311.22209,1.22568
310.98102,1.22842
310.73995,1.22957
310.49888,1.23189
310.25781,1.23368
310.01674,1.23273
309.77567,1.23107
309.53459,1.23102
309.29352,1.23110
309.05245,1.23074
308.81138,1.23322
308.57031,1.24021
308.32924,1.24856
308.08817,1.25389
307.84710,1.25371
307.60603,1.24908
307.36496,1.24520
307.12389,1.24680
306.88282,1.25301
306.64175,1.25962
306.40068,1.26460
306.15961,1.26886
305.91854,1.27306
305.67747,1.27557
305.43640,1.27511
305.19532,1.27270
304.95425,1.26998
304.71318,1.26812
304.47211,1.26912
304.23104,1.27472
303.98997,1.28188
303.74890,1.28348
303.50783,1.27677
303.26676,1.26710
303.02569,1.26095
302.78462,1.25898
302.54355,1.25864
302.30248,1.26032
302.06141,1.26583
301.82034,1.27263
301.57927,1.27321
301.33820,1.26319
301.09713,1.24890
300.85605,1.24107
300.61498,1.24276
300.37391,1.24770
300.13284,1.24912
299.89177,1.24656
299.65070,1.24276
299.40963,1.23893
299.16856,1.23526
298.92749,1.23191
298.68642,1.22861
298.44535,1.22658
298.20428,1.22719
297.96321,1.22849
297.72214,1.22692
297.48107,1.22192
297.24000,1.21678
296.99893,1.21492
296.75786,1.21637
296.51678,1.21719
296.27571,1.21297
296.03464,1.20392
295.79357,1.19423
295.55250,1.18688
295.31143,1.18227
295.07036,1.18083
294.82929,1.18234
294.58822,1.18404
294.34715,1.18294
294.10608,1.17876
293.86501,1.17275
293.62394,1.16644
293.38287,1.16248
293.14180,1.16298
292.90073,1.16645
292.65966,1.16816
292.41859,1.16498
292.17751,1.15893
291.93644,1.15504
291.69537,1.15554
291.45430,1.15746
291.21323,1.15683
290.97216,1.15362
290.73109,1.15039
290.49002,1.14785
290.24895,1.14499
290.00788,1.14208
289.76681,1.14063
289.52574,1.14073
289.28467,1.14066
289.04360,1.13970
288.80253,1.13917
288.56146,1.13943
288.32039,1.13826
288.07932,1.13424
287.83824,1.12938
287.59717,1.12681
287.35610,1.12744
287.11503,1.12922
286.87396,1.12869
286.63289,1.12432
286.39182,1.11843
286.15075,1.11459
285.90968,1.11394
285.66861,1.11523
285.42754,1.11638
285.18647,1.11491
284.94540,1.10929
284.70433,1.10137
284.46326,1.09548
284.22219,1.09431
283.98112,1.09693
283.74005,1.10026
283.49897,1.10178
283.25790,1.10114
283.01683,1.10002
282.77576,1.10026
282.53469,1.10211
282.29362,1.10449
282.05255,1.10606
281.81148,1.10574
281.57041,1.10340
281.32934,1.10060
281.08827,1.09968
280.84720,1.10119
280.60613,1.10313
280.36506,1.10317
280.12399,1.10087
279.88292,1.09801
279.64185,1.09716
279.40078,1.09886
279.15970,1.10083
278.91863,1.10142
278.67756,1.10240
278.43649,1.10555
278.19542,1.10818
277.95435,1.10637
277.71328,1.10093
277.47221,1.09679
277.23114,1.09750
276.99007,1.10180
276.74900,1.10546
276.50793,1.10622
276.26686,1.10494
276.02579,1.10296
275.78472,1.10143
275.54365,1.10204
275.30258,1.10494
275.06151,1.10690
274.82043,1.10484
274.57936,1.09991
274.33829,1.09596
274.09722,1.09551
273.85615,1.09836
273.61508,1.10273
273.37401,1.10711
273.13294,1.11135
272.89187,1.11584
272.65080,1.11965
272.40973,1.12112
272.16866,1.12065
271.92759,1.12034
271.68652,1.12034
271.44545,1.11892
271.20438,1.11646
270.96331,1.11571
270.72224,1.11780
270.48116,1.12104
270.24009,1.12340
269.99902,1.12439
269.75795,1.12561
269.51688,1.12971
269.27581,1.13747
269.03474,1.14580
268.79367,1.15046
268.55260,1.15040
268.31153,1.14809
268.07046,1.14665
267.82939,1.14836
267.58832,1.15425
267.34725,1.16299
267.10618,1.17113
266.86511,1.17691
266.62404,1.18186
266.38297,1.18693
266.14189,1.19099
265.90082,1.19461
265.65975,1.20032
265.41868,1.20774
265.17761,1.21329
264.93654,1.21528
264.69547,1.21640
264.45440,1.22067
264.21333,1.22956
263.97226,1.24140
263.73119,1.25347
263.49012,1.26346
263.24905,1.27012
263.00798,1.27552
262.76691,1.28368
262.52584,1.29514
262.28477,1.30713
262.04370,1.31779
261.80262,1.32740
261.56155,1.33718
261.32048,1.34861
261.07941,1.36284
260.83834,1.37902
260.59727,1.39460
260.35620,1.40866
260.11513,1.42370
259.87406,1.44289
259.63299,1.46505
259.39192,1.48414
259.15085,1.49653
258.90978,1.50806
258.66871,1.52565
258.42764,1.54664
258.18657,1.56339
257.94550,1.57509
257.70443,1.58918
257.46335,1.60960
257.22228,1.62969
256.98121,1.64063
256.74014,1.64403
256.49907,1.64948
256.25800,1.65892
256.01693,1.66542
255.77586,1.66852
255.53479,1.67300
255.29372,1.67798
255.05265,1.68114
254.81158,1.68790
254.57051,1.70350
254.32944,1.71800
254.08837,1.71429
253.84730,1.69296
253.60623,1.67103
253.36516,1.65780
253.12408,1.64888
252.88301,1.63723
252.64194,1.62368
252.40087,1.61519
252.15980,1.61194
251.91873,1.60706
251.67766,1.60054
251.43659,1.60038
251.19552,1.60713
250.95445,1.61066
250.71338,1.60671
250.47231,1.60340
250.23124,1.60752
249.99017,1.61465
249.74910,1.61581
249.50803,1.60788
249.26696,1.59470
249.02589,1.58458
248.78481,1.58606
248.54374,1.59720
248.30267,1.60667
248.06160,1.60920
247.82053,1.60914
247.57946,1.60809
247.33839,1.60177
247.09732,1.59137
246.85625,1.58639
246.61518,1.59177
246.37411,1.60244
246.13304,1.61366
245.89197,1.62581
245.65090,1.64022
245.40983,1.65581
245.16876,1.67209
244.92769,1.69112
244.68661,1.70836
244.44554,1.71518
244.20447,1.71381
243.96340,1.71808
243.72233,1.73816
243.48126,1.77441
243.24019,1.82656
242.99912,1.89430
242.75805,1.95563
242.51698,1.96384
242.27591,1.93062
242.03484,1.91126
241.79377,1.89270
241.55270,1.87432
241.31163,1.85267
241.07056,1.80740
240.82949,1.75377
240.58842,1.70601
240.34734,1.66600
240.10627,1.62736
239.86520,1.58188
239.62413,1.53164
239.38306,1.48422
239.14199,1.44198
238.90092,1.40355
238.65985,1.36837
238.41878,1.33748
238.17771,1.31375
237.93664,1.29872
237.69557,1.28830
237.45450,1.27516
237.21343,1.25564
236.97236,1.23160
236.73129,1.20673
236.49022,1.18354
236.24915,1.16268
236.00807,1.14449
235.76700,1.13026
235.52593,1.12001
235.28486,1.11046
235.04379,1.09798
234.80272,1.08289
234.56165,1.06809
234.32058,1.05501
234.07951,1.04365
233.83844,1.03531
233.59737,1.03163
233.35630,1.03110
233.11523,1.02962
232.87416,1.02451
232.63309,1.01599
232.39202,1.00521
232.15095,0.99366
231.90988,0.98373
231.66880,0.97709
231.42773,0.97303
231.18666,0.97018
230.94559,0.96768
230.70452,0.96387
230.46345,0.95726
230.22238,0.94973
229.98131,0.94449
229.74024,0.94144
229.49917,0.93784
229.25810,0.93192
229.01703,0.92367
228.77596,0.91467
228.53489,0.90768
228.29382,0.90340
228.05275,0.89855
227.81168,0.89070
227.57061,0.88238
227.32953,0.87705
227.08846,0.87463
226.84739,0.87244
226.60632,0.86868
226.36525,0.86430
226.12418,0.86187
225.88311,0.86180
225.64204,0.86111
225.40097,0.85735
225.15990,0.85200
224.91883,0.84823
224.67776,0.84712
224.43669,0.84713
224.19562,0.84633
223.95455,0.84414
223.71348,0.84129
223.47241,0.83909
223.23134,0.83849
222.99026,0.83940
222.74919,0.84110
222.50812,0.84337
222.26705,0.84635
222.02598,0.84932
221.78491,0.85151
221.54384,0.85328
221.30277,0.85538
221.06170,0.85791
220.82063,0.86094
220.57956,0.86485
220.33849,0.86954
220.09742,0.87462
219.85635,0.87998
219.61528,0.88536
219.37421,0.89030
219.13314,0.89536
218.89207,0.90219
218.65099,0.91164
218.40992,0.92244
218.16885,0.93192
217.92778,0.93807
217.68671,0.94151
217.44564,0.94532
217.20457,0.95240
216.96350,0.96270
216.72243,0.97308
216.48136,0.98058
216.24029,0.98542
215.99922,0.99019
215.75815,0.99648
215.51708,1.00413
215.27601,1.01318
215.03494,1.02397
214.79387,1.03495
214.55280,1.04295
214.31172,1.04659
214.07065,1.04770
213.82958,1.04949
213.58851,1.05478
213.34744,1.06482
213.10637,1.07720
212.86530,1.08648
212.62423,1.08969
212.38316,1.08988
212.14209,1.09227
211.90102,1.09897
211.65995,1.10798
211.41888,1.11557
211.17781,1.11909
210.93674,1.11834
210.69567,1.11535
210.45460,1.11270
210.21353,1.11120
209.97245,1.10907
209.73138,1.10468
209.49031,1.09981
209.24924,1.09878
209.00817,1.10400
208.76710,1.11257
208.52603,1.11793
208.28496,1.11599
208.04389,1.10948
207.80282,1.10396
207.56175,1.10135
207.32068,1.09913
207.07961,1.09341
206.83854,1.08285
206.59747,1.07087
206.35640,1.06292
206.11533,1.06132
205.87426,1.06262
205.63318,1.06092
205.39211,1.05459
205.15104,1.04724
204.90997,1.04128
204.66890,1.03441
204.42783,1.02412
204.18676,1.01264
203.94569,1.00437
203.70462,1.00047
203.46355,0.99782
203.22248,0.99265
202.98141,0.98361
202.74034,0.97158
202.49927,0.95841
202.25820,0.94563
202.01713,0.93377
201.77606,0.92313
201.53499,0.91448
201.29391,0.90755
201.05284,0.89994
200.81177,0.88956
200.57070,0.87771
200.32963,0.86736
200.08856,0.85908
199.84749,0.85061
199.60642,0.83988
199.36535,0.82764
199.12428,0.81678
198.88321,0.80934
198.64214,0.80430
198.40107,0.79891
198.16000,0.79161
197.91893,0.78283
197.67786,0.77380
197.43679,0.76551
197.19572,0.75816
196.95464,0.75101
196.71357,0.74304
196.47250,0.73406
196.23143,0.72477
195.99036,0.71636
195.74929,0.70986
195.50822,0.70486
195.26715,0.69945
195.02608,0.69258
194.78501,0.68570
194.54394,0.68021
194.30287,0.67473
194.06180,0.66730
193.82073,0.65942
193.57966,0.65433
193.33859,0.65192
193.09752,0.64895
192.85645,0.64410
192.61537,0.63911
192.37430,0.63481
192.13323,0.62984
191.89216,0.62394
191.65109,0.61910
191.41002,0.61641
191.16895,0.61451
190.92788,0.61185
190.68681,0.60820
190.44574,0.60363
190.20467,0.59787
189.96360,0.59148
189.72253,0.58607
189.48146,0.58274
189.24039,0.58133
188.99932,0.58087
188.75825,0.58015
188.51718,0.57849
188.27610,0.57649
188.03503,0.57510
187.79396,0.57400
187.55289,0.57233
187.31182,0.57051
187.07075,0.56949
186.82968,0.56866
186.58861,0.56668
186.34754,0.56377
186.10647,0.56127
185.86540,0.55961
185.62433,0.55852
185.38326,0.55798
185.14219,0.55778
184.90112,0.55738
184.66005,0.55702
184.41898,0.55729
184.17791,0.55808
183.93683,0.55875
183.69576,0.55889
183.45469,0.55828
183.21362,0.55732
182.97255,0.55717
182.73148,0.55816
182.49041,0.55903
182.24934,0.55885
182.00827,0.55838
181.76720,0.55872
181.52613,0.55970
181.28506,0.56022
181.04399,0.55952
180.80292,0.55786
180.56185,0.55618
180.32078,0.55531
180.07971,0.55551
179.83864,0.55666
179.59756,0.55864
179.35649,0.56173
179.11542,0.56644
178.87435,0.57286
178.63328,0.58023
178.39221,0.58714
178.15114,0.59250
177.91007,0.59631
177.66900,0.59980
177.42793,0.60495
177.18686,0.61346
176.94579,0.62557
176.70472,0.63973
176.46365,0.65413
176.22258,0.66818
175.98151,0.68157
175.74044,0.69296
175.49937,0.70158
175.25829,0.70920
175.01722,0.71866
174.77615,0.73103
174.53508,0.74491
174.29401,0.75857
174.05294,0.77168
173.81187,0.78432
173.57080,0.79557
173.32973,0.80467
173.08866,0.81258
172.84759,0.82058
172.60652,0.82776
172.36545,0.83167
172.12438,0.83133
171.88331,0.82900
171.64224,0.82799
171.40117,0.82901
171.16010,0.83023
170.91902,0.83060
170.67795,0.83091
170.43688,0.83070
170.19581,0.82752
169.95474,0.82076
169.71367,0.81320
169.47260,0.80722
169.23153,0.80258
168.99046,0.79840
168.74939,0.79502
168.50832,0.79328
168.26725,0.79316
168.02618,0.79349
167.78511,0.79256
167.54404,0.78975
167.30297,0.78652
167.06190,0.78480
166.82083,0.78520
166.57975,0.78707
166.33868,0.78954
166.09761,0.79169
165.85654,0.79290
165.61547,0.79373
165.37440,0.79567
165.13333,0.79953
164.89226,0.80462
164.65119,0.80966
164.41012,0.81407
164.16905,0.81845
163.92798,0.82379
163.68691,0.83021
163.44584,0.83655
163.20477,0.84179
162.96370,0.84645
162.72263,0.85179
162.48156,0.85791
162.24048,0.86362
161.99941,0.86737
161.75834,0.86795
161.51727,0.86536
161.27620,0.86123
161.03513,0.85784
160.79406,0.85680
160.55299,0.85834
160.31192,0.86087
160.07085,0.86129
159.82978,0.85766
159.58871,0.85166
159.34764,0.84691
159.10657,0.84568
158.86550,0.84752
158.62443,0.84958
158.38336,0.84875
158.14229,0.84445
157.90121,0.83888
157.66014,0.83480
157.41907,0.83328
157.17800,0.83319
156.93693,0.83238
156.69586,0.83001
156.45479,0.82746
156.21372,0.82702
155.97265,0.82944
155.73158,0.83178
155.49051,0.82862
155.24944,0.81855
155.00837,0.80692
154.76730,0.79947
154.52623,0.79642
154.28516,0.79393
154.04409,0.78917
153.80302,0.78242
153.56194,0.77499
153.32087,0.76730
153.07980,0.75892
152.83873,0.74939
152.59766,0.73896
152.35659,0.72806
152.11552,0.71641
151.87445,0.70341
151.63338,0.69004
151.39231,0.67921
151.15124,0.67255
150.91017,0.66769
150.66910,0.66047
150.42803,0.64942
150.18696,0.63665
149.94589,0.62474
149.70482,0.61455
149.46375,0.60553
149.22267,0.59678
148.98160,0.58828
148.74053,0.58105
148.49946,0.57530
148.25839,0.56965
148.01732,0.56312
147.77625,0.55684
147.53518,0.55231
147.29411,0.54911
147.05304,0.54604
146.81197,0.54334
146.57090,0.54232
146.32983,0.54340
146.08876,0.54544
145.84769,0.54713
145.60662,0.54829
145.36555,0.54974
145.12448,0.55218
144.88340,0.55583
144.64233,0.56063
144.40126,0.56599
144.16019,0.57075
143.91912,0.57405
143.67805,0.57550
143.43698,0.57460
143.19591,0.57117
142.95484,0.56616
142.71377,0.56067
142.47270,0.55438
142.23163,0.54628
141.99056,0.53667
141.74949,0.52722
141.50842,0.51911
141.26735,0.51218
141.02628,0.50613
140.78521,0.50128
140.54413,0.49789
140.30306,0.49588
140.06199,0.49509
139.82092,0.49471
139.57985,0.49337
139.33878,0.49102
139.09771,0.48952
138.85664,0.49053
138.61557,0.49393
138.37450,0.49861
138.13343,0.50404
137.89236,0.51065
137.65129,0.51890
137.41022,0.52827
137.16915,0.53784
136.92808,0.54796
136.68701,0.55996
136.44594,0.57427
136.20486,0.59019
135.96379,0.60696
135.72272,0.62418
135.48165,0.64175
135.24058,0.66049
134.99951,0.68148
134.75844,0.70423
134.51737,0.72648
134.27630,0.74684
134.03523,0.76680
133.79416,0.78845
133.55309,0.81141
133.31202,0.83386
133.07095,0.85567
132.82988,0.87764
132.58881,0.89817
132.34774,0.91458
132.10667,0.92751
131.86559,0.94064
131.62452,0.95578
131.38345,0.97103
131.14238,0.98389
130.90131,0.99371
130.66024,1.00015
130.41917,1.00172
130.17810,0.99743
129.93703,0.98825
129.69596,0.97590
129.45489,0.96078
129.21382,0.94231
128.97275,0.92110
128.73168,0.89958
128.49061,0.87961
128.24954,0.86040
128.00847,0.84018
127.76740,0.81917
127.52632,0.79929
127.28525,0.78089
127.04418,0.76185
126.80311,0.74032
126.56204,0.71684
126.32097,0.69338
126.07990,0.67172
125.83883,0.65287
125.59776,0.63692
125.35669,0.62310
125.11562,0.61047
124.87455,0.59856
124.63348,0.58705
124.39241,0.57499
124.15134,0.56133
123.91027,0.54661
123.66920,0.53306
123.42812,0.52240
123.18705,0.51427
122.94598,0.50740
122.70491,0.50105
122.46384,0.49485
122.22277,0.48830
121.98170,0.48164
121.74063,0.47636
121.49956,0.47389
121.25849,0.47400
121.01742,0.47528
120.77635,0.47672
120.53528,0.47832
120.29421,0.48050
120.05314,0.48422
119.81207,0.49122
119.57100,0.50289
119.32993,0.51918
119.08885,0.53921
118.84778,0.56196
118.60671,0.58623
118.36564,0.61125
118.12457,0.63715
117.88350,0.66354
117.64243,0.68833
117.40136,0.70953
117.16029,0.72767
116.91922,0.74504
116.67815,0.76245
116.43708,0.77734
116.19601,0.78585
115.95494,0.78592
115.71387,0.77838
115.47280,0.76666
115.23173,0.75560
114.99066,0.74859
114.74958,0.74534
114.50851,0.74320
114.26744,0.73980
114.02637,0.73431
113.78530,0.72750
113.54423,0.72079
113.30316,0.71509
113.06209,0.71087
112.82102,0.70895
112.57995,0.70971
112.33888,0.71260
112.09781,0.71765
111.85674,0.72508
111.61567,0.73261
111.37460,0.73636
111.13353,0.73542
110.89246,0.73340
110.65139,0.73484
110.41031,0.74120
110.16924,0.74914
109.92817,0.75178
109.68710,0.74348
109.44603,0.72472
109.20496,0.70131
108.96389,0.67959
108.72282,0.66322
108.48175,0.65230
108.24068,0.64346
107.99961,0.63166
107.75854,0.61436
107.51747,0.59402
107.27640,0.57546
107.03533,0.56160
106.79426,0.55258
106.55319,0.54606
106.31212,0.53737
106.07104,0.52195
105.82997,0.50004
105.58890,0.47764
105.34783,0.46195
105.10676,0.45535
104.86569,0.45271
104.62462,0.44575
104.38355,0.43226
104.14248,0.41776
103.90141,0.40765
103.66034,0.40207
103.41927,0.39706
103.17820,0.38904
102.93713,0.37892
102.69606,0.37071
102.45499,0.36625
102.21392,0.36288
101.97285,0.35679
101.73177,0.34800
101.49070,0.33989
101.24963,0.33475
101.00856,0.33179
100.76749,0.32887
100.52642,0.32455
100.28535,0.31887
100.04428,0.31316
99.80321,0.30865
99.56214,0.30500
99.32107,0.30133
99.08000,0.29816
98.83893,0.29614
98.59786,0.29373
98.35679,0.28907
98.11572,0.28386
97.87465,0.28166
97.63358,0.28236
97.39250,0.28216
97.15143,0.27990
96.91036,0.27890
96.66929,0.28095
96.42822,0.28372
96.18715,0.28593
95.94608,0.28974
95.70501,0.29574
95.46394,0.30085
95.22287,0.30370
94.98180,0.30723
94.74073,0.31272
94.49966,0.31673
94.25859,0.31735
94.01752,0.31769
93.77645,0.32029
93.53538,0.32346
93.29431,0.32517
93.05323,0.32554
92.81216,0.32488
92.57109,0.32360
92.33002,0.32270
92.08895,0.32204
91.84788,0.32098
91.60681,0.32075
91.36574,0.32324
91.12467,0.32922
90.88360,0.33974
90.64253,0.35595
90.40146,0.37683
90.16039,0.40063
89.91932,0.42804
89.67825,0.46059
89.43718,0.49767
89.19611,0.53741
88.95504,0.57780
88.71396,0.61587
88.47289,0.64839
88.23182,0.67291
87.99075,0.68707
87.74968,0.68863
87.50861,0.67673
87.26754,0.65342
87.02647,0.62387
86.78540,0.59353
86.54433,0.56480
86.30326,0.53725
86.06219,0.51024
85.82112,0.48434
85.58005,0.46067
85.33898,0.43939
85.09791,0.41943
84.85684,0.39984
84.61577,0.38066
84.37469,0.36261
84.13362,0.34684
83.89255,0.33410
83.65148,0.32383
83.41041,0.31473
83.16934,0.30630
82.92827,0.29855
82.68720,0.29093
82.44613,0.28298
82.20506,0.27515
81.96399,0.26807
81.72292,0.26183
81.48185,0.25652
81.24078,0.25234
80.99971,0.24909
80.75864,0.24649
80.51757,0.24466
80.27650,0.24350
80.03542,0.24205
79.79435,0.23968
79.55328,0.23741
79.31221,0.23672
79.07114,0.23716
78.83007,0.23663
78.58900,0.23405
78.34793,0.23039
78.10686,0.22684
77.86579,0.22339
77.62472,0.21950
77.38365,0.21511
77.14258,0.21065
76.90151,0.20668
76.66044,0.20368
76.41937,0.20168
76.17830,0.20017
75.93723,0.19834
75.69615,0.19548
75.45508,0.19151
75.21401,0.18762
74.97294,0.18556
74.73187,0.18605
74.49080,0.18830
74.24973,0.19094
74.00866,0.19294
73.76759,0.19382
73.52652,0.19359
73.28545,0.19238
73.04438,0.19027
72.80331,0.18777
72.56224,0.18593
72.32117,0.18542
72.08010,0.18556
71.83903,0.18470
71.59796,0.18184
71.35688,0.17768
71.11581,0.17410
70.87474,0.17323
70.63367,0.17665
70.39260,0.18496
70.15153,0.19775
69.91046,0.21446
69.66939,0.23433
69.42832,0.25507
69.18725,0.27220
68.94618,0.28072
68.70511,0.27793
68.46404,0.26541
68.22297,0.24848
67.98190,0.23274
67.74083,0.22051
67.49976,0.21071
67.25869,0.20158
67.01761,0.19257
66.77654,0.18391
66.53547,0.17563
66.29440,0.16774
66.05333,0.16094
65.81226,0.15645
65.57119,0.15515
65.33012,0.15744
65.08905,0.16345
64.84798,0.17279
64.60691,0.18468
64.36584,0.19819
64.12477,0.21183
63.88370,0.22314
63.64263,0.22962
63.40156,0.23026
63.16049,0.22599
62.91942,0.21914
62.67834,0.21209
62.43727,0.20502
62.19620,0.19588
61.95513,0.18317
61.71406,0.16845
61.47299,0.15522
61.23192,0.14579
60.99085,0.14071
60.74978,0.14088
60.50871,0.14797
60.26764,0.16158
60.02657,0.17717
59.78550,0.18808
59.54443,0.18975
59.30336,0.18216
59.06229,0.16904
58.82122,0.15512
58.58015,0.14413
58.33907,0.13904
58.09800,0.14229
57.85693,0.15372
57.61586,0.16889
57.37479,0.18105
57.13372,0.18478
56.89265,0.17914
56.65158,0.16786
56.41051,0.15617
56.16944,0.14846
55.92837,0.14787
55.68730,0.15488
55.44623,0.16576
55.20516,0.17351
54.96409,0.17221
54.72302,0.16278
54.48195,0.15297
54.24088,0.15132
53.99980,0.16281
53.75873,0.18568
53.51766,0.20583
53.27659,0.20313
53.03552,0.18019
52.79445,0.16122
52.55338,0.16333
52.31231,0.18753
52.07124,0.21561
51.83017,0.21663
51.58910,0.18832
51.34803,0.16112
51.10696,0.15563
50.86589,0.16946
50.62482,0.18185
50.38375,0.17691
50.14268,0.16792
49.90161,0.17521
49.66053,0.19521
49.41946,0.20129
49.17839,0.18595
48.93732,0.17553
48.69625,0.18377
48.45518,0.19239
48.21411,0.18388
47.97304,0.17499
47.73197,0.18326
47.49090,0.19517
47.24983,0.18973
47.00876,0.17932
46.76769,0.17911
46.52662,0.17952
46.28555,0.17240
46.04448,0.16861
45.80341,0.17332
45.56234,0.17944
45.32126,0.18515
45.08019,0.19236
44.83912,0.19736
44.59805,0.19824
44.35698,0.19702
44.11591,0.19327
43.87484,0.18905
43.63377,0.18950
43.39270,0.19298
43.15163,0.19353
42.91056,0.19033
42.66949,0.18640
42.42842,0.18369
42.18735,0.18342
41.94628,0.18517
41.70521,0.18652
41.46414,0.18607
41.22307,0.18498
40.98199,0.18561
40.74092,0.18941
40.49985,0.19598
40.25878,0.20421
40.01771,0.21198
39.77664,0.21550
39.53557,0.21496
39.29450,0.21676
39.05343,0.22330
38.81236,0.22844
38.57129,0.22976
38.33022,0.23374
38.08915,0.24325
37.84808,0.25133
37.60701,0.25152
37.36594,0.24535
37.12487,0.23736
36.88380,0.22908
36.64272,0.21980
36.40165,0.21088
36.16058,0.20633
35.91951,0.20868
35.67844,0.21776
35.43737,0.23188
35.19630,0.24564
34.95523,0.24929
34.71416,0.23605
34.47309,0.20980
34.23202,0.18063
33.99095,0.15450
33.74988,0.13395
33.50881,0.12528
33.26774,0.13318
33.02667,0.14973
32.78560,0.15894
32.54453,0.15489
32.30345,0.14734
32.06238,0.14536
31.82131,0.14488
31.58024,0.13723
31.33917,0.12082
31.09810,0.09931
30.85703,0.07626
30.61596,0.05631
30.37489,0.04291
30.13382,0.03246
29.89275,0.01972
29.65168,0.00618
29.41061,-0.00462
29.16954,-0.01558
28.92847,-0.03226
28.68740,-0.05312
28.44633,-0.06998
28.20526,-0.07759
27.96418,-0.07784
27.72311,-0.07524
27.48204,-0.07205
27.24097,-0.06919
26.99990,-0.06930
26.75883,-0.07737
26.51776,-0.09555
26.27669,-0.11687
26.03562,-0.13020
25.79455,-0.13483
25.55348,-0.14101
25.31241,-0.15359
25.07134,-0.16708
24.83027,-0.17654
24.58920,-0.18637
24.34813,-0.20308
24.10706,-0.22527
23.86599,-0.24656
23.62491,-0.26119
23.38384,-0.26635
23.14277,-0.26411
22.90170,-0.25985
22.66063,-0.25704
22.41956,-0.25725
22.17849,-0.26271
21.93742,-0.27598
21.69635,-0.29279
21.45528,-0.30052
21.21421,-0.29436
20.97314,-0.28674
20.73207,-0.29137
20.49100,-0.30567
20.24993,-0.31410
20.00886,-0.30587
19.76779,-0.28792
19.52672,-0.27796
19.28564,-0.28432
19.04457,-0.29740
18.80350,-0.30288
18.56243,-0.30088
18.32136,-0.30565
18.08029,-0.32620
17.83922,-0.35477
17.59815,-0.37840
17.35708,-0.39642
17.11601,-0.41192
16.87494,-0.41957
16.63387,-0.41695
16.39280,-0.40742
16.15173,-0.39344
15.91066,-0.37835
15.66959,-0.36661
15.42852,-0.36073
15.18745,-0.36224
14.94637,-0.37102
14.70530,-0.38165
14.46423,-0.38736
14.22316,-0.38632
13.98209,-0.38086
13.74102,-0.37282
13.49995,-0.36443
13.25888,-0.35732
13.01781,-0.35113
12.77674,-0.35065
12.53567,-0.36192
12.29460,-0.38172
12.05353,-0.40107
11.81246,-0.41060
11.57139,-0.40512
11.33032,-0.39384
11.08925,-0.38956
10.84818,-0.39071
10.60710,-0.38579
10.36603,-0.37126
10.12496,-0.35951
9.88389,-0.36454
9.64282,-0.38831
9.40175,-0.41710
9.16068,-0.43327
8.91961,-0.43197
8.67854,-0.42190
8.43747,-0.41142
8.19640,-0.40180
7.95533,-0.39367
7.71426,-0.39081
7.47319,-0.39368
7.23212,-0.39693
6.99105,-0.39559
6.74998,-0.38699
6.50891,-0.37438
6.26783,-0.37194
6.02676,-0.39082
5.78569,-0.42059
5.54462,-0.43885
5.30355,-0.43693
5.06248,-0.41971
4.82141,-0.39768
4.58034,-0.38643
4.33927,-0.39368
4.09820,-0.41068
3.85713,-0.42353
3.61606,-0.42346
3.37499,-0.41162
3.13392,-0.40074
2.89285,-0.39975
2.65178,-0.40016
2.41071,-0.39341
2.16964,-0.38782
1.92856,-0.38677
1.68749,-0.38544
1.44642,-0.38594
1.20535,-0.38687
0.96428,-0.38495
0.72321,-0.40301
0.48214,-0.48606
0.24107,-0.52126
-0.00000,-0.12606
