399.69498,1.47286
399.45391,1.47673
399.21284,1.47336
398.97177,1.46395
398.73070,1.45603
398.48963,1.45260
398.24856,1.45106
398.00749,1.45090
397.76642,1.45435
397.52535,1.45999
397.28428,1.46148
397.04321,1.45476
396.80214,1.44334
396.56107,1.43357
396.32000,1.42854
396.07892,1.42815
395.83785,1.43099
395.59678,1.43488
395.35571,1.43798
395.11464,1.44033
394.87357,1.44308
394.63250,1.44747
394.39143,1.45515
394.15036,1.46510
393.90929,1.47039
393.66822,1.46328
393.42715,1.44447
393.18608,1.42186
392.94501,1.40411
392.70394,1.39831
392.46287,1.40429
392.22180,1.41182
391.98073,1.41032
391.73965,1.40219
391.49858,1.39896
391.25751,1.40558
391.01644,1.41400
390.77537,1.41303
390.53430,1.40300
390.29323,1.39443
390.05216,1.39365
389.81109,1.39841
389.57002,1.40584
389.32895,1.41569
389.08788,1.42600
388.84681,1.43147
388.60574,1.42650
388.36467,1.41040
388.12360,1.38926
387.88253,1.37104
387.64146,1.35880
387.40038,1.35041
387.15931,1.34483
386.91824,1.34392
386.67717,1.34688
386.43610,1.34755
386.19503,1.33931
385.95396,1.32245
385.71289,1.30405
385.47182,1.29069
385.23075,1.28423
384.98968,1.28307
384.74861,1.28241
384.50754,1.27419
384.26647,1.25495
384.02540,1.23286
383.78433,1.22080
383.54326,1.22313
383.30219,1.23013
383.06111,1.22834
382.82004,1.21704
382.57897,1.20751
382.33790,1.20770
382.09683,1.21320
381.85576,1.21285
381.61469,1.20262
381.37362,1.19099
381.13255,1.18770
380.89148,1.19086
380.65041,1.18989
380.40934,1.18053
380.16827,1.17050
379.92720,1.16822
379.68613,1.17406
379.44506,1.18387
379.20399,1.19409
378.96292,1.20212
378.72184,1.20679
378.48077,1.21033
378.23970,1.21755
377.99863,1.23043
377.75756,1.24452
377.51649,1.25293
377.27542,1.25307
377.03435,1.25009
376.79328,1.25191
376.55221,1.26013
376.31114,1.26810
376.07007,1.27012
375.82900,1.27023
375.58793,1.27658
375.34686,1.28935
375.10579,1.30056
374.86472,1.30482
374.62365,1.30452
374.38257,1.30389
374.14150,1.30340
373.90043,1.30172
373.65936,1.29985
373.41829,1.30058
373.17722,1.30481
372.93615,1.31192
372.69508,1.32186
372.45401,1.33493
372.21294,1.34934
371.97187,1.35945
371.73080,1.35961
371.48973,1.35089
371.24866,1.33983
371.00759,1.33108
370.76652,1.32551
370.52545,1.32393
370.28437,1.32606
370.04330,1.32822
369.80223,1.32732
369.56116,1.32222
369.32009,1.31257
369.07902,1.30123
368.83795,1.29360
368.59688,1.29353
368.35581,1.30089
368.11474,1.31134
367.87367,1.31858
367.63260,1.31930
367.39153,1.31627
367.15046,1.31499
366.90939,1.31783
366.66832,1.32140
366.42725,1.31930
366.18618,1.31027
365.94510,1.30078
365.70403,1.29620
365.46296,1.29430
365.22189,1.28994
364.98082,1.28298
364.73975,1.27697
364.49868,1.27224
364.25761,1.26566
364.01654,1.25676
363.77547,1.24878
363.53440,1.24386
363.29333,1.24151
363.05226,1.24048
362.81119,1.23985
362.57012,1.23926
362.32905,1.23989
362.08798,1.24351
361.84691,1.24953
361.60583,1.25384
361.36476,1.25293
361.12369,1.24783
360.88262,1.24159
360.64155,1.23546
360.40048,1.22977
360.15941,1.22586
359.91834,1.22420
359.67727,1.22248
359.43620,1.21823
359.19513,1.21256
358.95406,1.20903
358.71299,1.20854
358.47192,1.20883
358.23085,1.20849
357.98978,1.20763
357.74871,1.20518
357.50764,1.20059
357.26656,1.19773
357.02549,1.20152
356.78442,1.21066
356.54335,1.21776
356.30228,1.21684
356.06121,1.20923
355.82014,1.20164
355.57907,1.19913
355.33800,1.20000
355.09693,1.19877
354.85586,1.19436
354.61479,1.19112
354.37372,1.19165
354.13265,1.19336
353.89158,1.19200
353.65051,1.18670
353.40944,1.18116
353.16837,1.17906
352.92729,1.17946
352.68622,1.17916
352.44515,1.17849
352.20408,1.18083
351.96301,1.18677
351.72194,1.19229
351.48087,1.19356
351.23980,1.19047
350.99873,1.18512
350.75766,1.17972
350.51659,1.17668
350.27552,1.17774
350.03445,1.18131
349.79338,1.18368
349.55231,1.18388
349.31124,1.18481
349.07017,1.18885
348.82910,1.19476
348.58802,1.19896
348.34695,1.19896
348.10588,1.19588
347.86481,1.19304
347.62374,1.19206
347.38267,1.19137
347.14160,1.18978
346.90053,1.18955
346.65946,1.19324
346.41839,1.19926
346.17732,1.20363
345.93625,1.20538
345.69518,1.20624
345.45411,1.20660
345.21304,1.20602
344.97197,1.20598
344.73090,1.20785
344.48983,1.21017
344.24875,1.21078
344.00768,1.21007
343.76661,1.21109
343.52554,1.21638
343.28447,1.22402
343.04340,1.22901
342.80233,1.23071
342.56126,1.23477
342.32019,1.24512
342.07912,1.25699
341.83805,1.26130
341.59698,1.25583
341.35591,1.24780
341.11484,1.24559
340.87377,1.25167
340.63270,1.26200
340.39163,1.26968
340.15056,1.27062
339.90948,1.26784
339.66841,1.26790
339.42734,1.27311
339.18627,1.27980
338.94520,1.28377
338.70413,1.28380
338.46306,1.28144
338.22199,1.28089
337.98092,1.28600
337.73985,1.29597
337.49878,1.30655
337.25771,1.31472
337.01664,1.31788
336.77557,1.31264
336.53450,1.30121
336.29343,1.29273
336.05236,1.29232
335.81129,1.29531
335.57021,1.29483
335.32914,1.28915
335.08807,1.27948
334.84700,1.26737
334.60593,1.25644
334.36486,1.25166
334.12379,1.25472
333.88272,1.26196
333.64165,1.26728
333.40058,1.26631
333.15951,1.25783
332.91844,1.24378
332.67737,1.22958
332.43630,1.22125
332.19523,1.22039
331.95416,1.22329
331.71309,1.22572
331.47202,1.22687
331.23094,1.22694
330.98987,1.22457
330.74880,1.21972
330.50773,1.21636
330.26666,1.21788
330.02559,1.22049
329.78452,1.21624
329.54345,1.20440
329.30238,1.19331
329.06131,1.18895
328.82024,1.18877
328.57917,1.18827
328.33810,1.18702
328.09703,1.18719
327.85596,1.19076
327.61489,1.19705
327.37382,1.20149
327.13275,1.19949
326.89167,1.19208
326.65060,1.18496
326.40953,1.18164
326.16846,1.17974
325.92739,1.17538
325.68632,1.16994
325.44525,1.16905
325.20418,1.17430
324.96311,1.17983
324.72204,1.18059
324.48097,1.17908
324.23990,1.17907
323.99883,1.17848
323.75776,1.17407
323.51669,1.16911
323.27562,1.16876
323.03455,1.17171
322.79348,1.17482
322.55240,1.18048
322.31133,1.19005
322.07026,1.19595
321.82919,1.19112
321.58812,1.18196
321.34705,1.17837
321.10598,1.17894
320.86491,1.17843
320.62384,1.17935
320.38277,1.18634
320.14170,1.19720
319.90063,1.20663
319.65956,1.21352
319.41849,1.21894
319.17742,1.22160
318.93635,1.21784
318.69528,1.20417
318.45421,1.18356
318.21313,1.16738
317.97206,1.16516
317.73099,1.17438
317.48992,1.18358
317.24885,1.18456
317.00778,1.17900
316.76671,1.17409
316.52564,1.17484
316.28457,1.18150
316.04350,1.19138
315.80243,1.19998
315.56136,1.20385
315.32029,1.20382
315.07922,1.20286
314.83815,1.20212
314.59708,1.20136
314.35601,1.20133
314.11494,1.20149
313.87386,1.20136
313.63279,1.20613
313.39172,1.22131
313.15065,1.24135
312.90958,1.25312
312.66851,1.25207
312.42744,1.24558
312.18637,1.24254
311.94530,1.24601
311.70423,1.25176
311.46316,1.25413
311.22209,1.25287
310.98102,1.25101
310.73995,1.24998
310.49888,1.24956
310.25781,1.24985
310.01674,1.25168
309.77567,1.25580
309.53459,1.26332
309.29352,1.27535
309.05245,1.28905
308.81138,1.29690
308.57031,1.29511
308.32924,1.28983
308.08817,1.28947
307.84710,1.29511
307.60603,1.30198
307.36496,1.30519
307.12389,1.30230
306.88282,1.29405
306.64175,1.28381
306.40068,1.27669
306.15961,1.27665
305.91854,1.28121
305.67747,1.28249
305.43640,1.27593
305.19532,1.26586
304.95425,1.26059
304.71318,1.26389
304.47211,1.27274
304.23104,1.28124
303.98997,1.28485
303.74890,1.28100
303.50783,1.26992
303.26676,1.25714
303.02569,1.25097
302.78462,1.25467
302.54355,1.26362
302.30248,1.27112
302.06141,1.27476
301.82034,1.27580
301.57927,1.27489
301.33820,1.27097
301.09713,1.26464
300.85605,1.25994
300.61498,1.25860
300.37391,1.25646
300.13284,1.25024
299.89177,1.24380
299.65070,1.24234
299.40963,1.24434
299.16856,1.24489
298.92749,1.24364
298.68642,1.24346
298.44535,1.24414
298.20428,1.24227
297.96321,1.23687
297.72214,1.23120
297.48107,1.22836
297.24000,1.22821
296.99893,1.22859
296.75786,1.22782
296.51678,1.22617
296.27571,1.22540
296.03464,1.22607
295.79357,1.22575
295.55250,1.22075
295.31143,1.20977
295.07036,1.19630
294.82929,1.18677
294.58822,1.18513
294.34715,1.18925
294.10608,1.19321
293.86501,1.19294
293.62394,1.18846
293.38287,1.18140
293.14180,1.17343
292.90073,1.16708
292.65966,1.16501
292.41859,1.16821
292.17751,1.17433
291.93644,1.17880
291.69537,1.17906
291.45430,1.17628
291.21323,1.17195
290.97216,1.16575
290.73109,1.15771
290.49002,1.15009
290.24895,1.14564
290.00788,1.14516
289.76681,1.14695
289.52574,1.14800
289.28467,1.14710
289.04360,1.14661
288.80253,1.14910
288.56146,1.15303
288.32039,1.15470
288.07932,1.15339
287.83824,1.15106
287.59717,1.14820
287.35610,1.14361
287.11503,1.13695
286.87396,1.12917
286.63289,1.12204
286.39182,1.11782
286.15075,1.11710
285.90968,1.11736
285.66861,1.11591
285.42754,1.11312
285.18647,1.11095
284.94540,1.11030
284.70433,1.11129
284.46326,1.11401
284.22219,1.11766
283.98112,1.12024
283.74005,1.12031
283.49897,1.11813
283.25790,1.11470
283.01683,1.11094
282.77576,1.10799
282.53469,1.10771
282.29362,1.11112
282.05255,1.11596
281.81148,1.11773
281.57041,1.11415
281.32934,1.10709
281.08827,1.10060
280.84720,1.09824
280.60613,1.10099
280.36506,1.10634
280.12399,1.11067
279.88292,1.11257
279.64185,1.11270
279.40078,1.11141
279.15970,1.10920
278.91863,1.10783
278.67756,1.10903
278.43649,1.11243
278.19542,1.11557
277.95435,1.11583
277.71328,1.11320
277.47221,1.11081
277.23114,1.11109
276.99007,1.11237
276.74900,1.11154
276.50793,1.10898
276.26686,1.10791
276.02579,1.10930
275.78472,1.11022
275.54365,1.10793
275.30258,1.10381
275.06151,1.10181
274.82043,1.10388
274.57936,1.10834
274.33829,1.11237
274.09722,1.11459
273.85615,1.11468
273.61508,1.11241
273.37401,1.10821
273.13294,1.10382
272.89187,1.10107
272.65080,1.10044
272.40973,1.10171
272.16866,1.10482
271.92759,1.10962
271.68652,1.11525
271.44545,1.11991
271.20438,1.12155
270.96331,1.12059
270.72224,1.12014
270.48116,1.12160
270.24009,1.12294
269.99902,1.12346
269.75795,1.12614
269.51688,1.13243
269.27581,1.13850
269.03474,1.13992
268.79367,1.13819
268.55260,1.13897
268.31153,1.14454
268.07046,1.15096
267.82939,1.15359
267.58832,1.15398
267.34725,1.15772
267.10618,1.16647
266.86511,1.17615
266.62404,1.18293
266.38297,1.18725
266.14189,1.19107
265.90082,1.19510
265.65975,1.19891
265.41868,1.20128
265.17761,1.20170
264.93654,1.20315
264.69547,1.21024
264.45440,1.22295
264.21333,1.23658
263.97226,1.24858
263.73119,1.25992
263.49012,1.27014
263.24905,1.27684
263.00798,1.28030
262.76691,1.28423
262.52584,1.29157
262.28477,1.30191
262.04370,1.31264
261.80262,1.32246
261.56155,1.33368
261.32048,1.34907
261.07941,1.36655
260.83834,1.38003
260.59727,1.38744
260.35620,1.39475
260.11513,1.41021
259.87406,1.43564
259.63299,1.46298
259.39192,1.48099
259.15085,1.48813
258.90978,1.49539
258.66871,1.51424
258.42764,1.54391
258.18657,1.57159
257.94550,1.58622
257.70443,1.59009
257.46335,1.59499
257.22228,1.61142
256.98121,1.64105
256.74014,1.67415
256.49907,1.69644
256.25800,1.70627
256.01693,1.71584
255.77586,1.72757
255.53479,1.72858
255.29372,1.71396
255.05265,1.70071
254.81158,1.70634
254.57051,1.72387
254.32944,1.72861
254.08837,1.71013
253.84730,1.68647
253.60623,1.67675
253.36516,1.67979
253.12408,1.68248
252.88301,1.67331
252.64194,1.65172
252.40087,1.63088
252.15980,1.62668
251.91873,1.64127
251.67766,1.65960
251.43659,1.66561
251.19552,1.65924
250.95445,1.64961
250.71338,1.64044
250.47231,1.62972
250.23124,1.61432
249.99017,1.59509
249.74910,1.57920
249.50803,1.57575
249.26696,1.58699
249.02589,1.60322
248.78481,1.61019
248.54374,1.60397
248.30267,1.59240
248.06160,1.58279
247.82053,1.57568
247.57946,1.56966
247.33839,1.56630
247.09732,1.56941
246.85625,1.58126
246.61518,1.59924
246.37411,1.61638
246.13304,1.62761
245.89197,1.63495
245.65090,1.64379
245.40983,1.65656
245.16876,1.67293
244.92769,1.69391
244.68661,1.72026
244.44554,1.74694
244.20447,1.76680
243.96340,1.77895
243.72233,1.78884
243.48126,1.80612
243.24019,1.83950
242.99912,1.88526
242.75805,1.92393
242.51698,1.94212
242.27591,1.94440
242.03484,1.95196
241.79377,1.96834
241.55270,1.88670
241.31163,1.78382
241.07056,1.70910
240.82949,1.66877
240.58842,1.65131
240.34734,1.63813
240.10627,1.61479
239.86520,1.58083
239.62413,1.54186
239.38306,1.49845
239.14199,1.45296
238.90092,1.41228
238.65985,1.37948
238.41878,1.35027
238.17771,1.31932
237.93664,1.28688
237.69557,1.25818
237.45450,1.23826
237.21343,1.22712
236.97236,1.21826
236.73129,1.20449
236.49022,1.18602
236.24915,1.16850
236.00807,1.15396
235.76700,1.13965
235.52593,1.12415
235.28486,1.10946
235.04379,1.09712
234.80272,1.08654
234.56165,1.07729
234.32058,1.06931
234.07951,1.06125
233.83844,1.05203
233.59737,1.04314
233.35630,1.03575
233.11523,1.02743
232.87416,1.01666
232.63309,1.00693
232.39202,1.00087
232.15095,0.99585
231.90988,0.98976
231.66880,0.98541
231.42773,0.98489
231.18666,0.98478
230.94559,0.98072
230.70452,0.97251
230.46345,0.96213
230.22238,0.95064
229.98131,0.93878
229.74024,0.92803
229.49917,0.92037
229.25810,0.91739
229.01703,0.91869
228.77596,0.92122
228.53489,0.92203
228.29382,0.92088
228.05275,0.91813
227.81168,0.91256
227.57061,0.90365
227.32953,0.89408
227.08846,0.88724
226.84739,0.88387
226.60632,0.88196
226.36525,0.87925
226.12418,0.87540
225.88311,0.87103
225.64204,0.86562
225.40097,0.85859
225.15990,0.85125
224.91883,0.84545
224.67776,0.84194
224.43669,0.84065
224.19562,0.84115
223.95455,0.84271
223.71348,0.84526
223.47241,0.84888
223.23134,0.85215
222.99026,0.85333
222.74919,0.85309
222.50812,0.85341
222.26705,0.85451
222.02598,0.85533
221.78491,0.85590
221.54384,0.85729
221.30277,0.85977
221.06170,0.86244
220.82063,0.86487
220.57956,0.86787
220.33849,0.87244
220.09742,0.87867
219.85635,0.88594
219.61528,0.89342
219.37421,0.89982
219.13314,0.90371
218.89207,0.90496
218.65099,0.90559
218.40992,0.90853
218.16885,0.91514
217.92778,0.92445
217.68671,0.93445
217.44564,0.94359
217.20457,0.95119
216.96350,0.95783
216.72243,0.96509
216.48136,0.97389
216.24029,0.98366
215.99922,0.99378
215.75815,1.00480
215.51708,1.01735
215.27601,1.03039
215.03494,1.04130
214.79387,1.04819
214.55280,1.05240
214.31172,1.05783
214.07065,1.06665
213.82958,1.07678
213.58851,1.08428
213.34744,1.08731
213.10637,1.08718
212.86530,1.08667
212.62423,1.08827
212.38316,1.09334
212.14209,1.10160
211.90102,1.11017
211.65995,1.11432
211.41888,1.11184
211.17781,1.10577
210.93674,1.10069
210.69567,1.09851
210.45460,1.09843
210.21353,1.09845
209.97245,1.09664
209.73138,1.09285
209.49031,1.08951
209.24924,1.08968
209.00817,1.09417
208.76710,1.10007
208.52603,1.10245
208.28496,1.09938
208.04389,1.09416
207.80282,1.09075
207.56175,1.08966
207.32068,1.08958
207.07961,1.08970
206.83854,1.08933
206.59747,1.08662
206.35640,1.07940
206.11533,1.06840
205.87426,1.05772
205.63318,1.05040
205.39211,1.04573
205.15104,1.04221
204.90997,1.03942
204.66890,1.03552
204.42783,1.02774
204.18676,1.01711
203.94569,1.00798
203.70462,1.00214
203.46355,0.99751
203.22248,0.99158
202.98141,0.98333
202.74034,0.97325
202.49927,0.96292
202.25820,0.95319
202.01713,0.94312
201.77606,0.93150
201.53499,0.91872
201.29391,0.90679
201.05284,0.89763
200.81177,0.89105
200.57070,0.88390
200.32963,0.87249
200.08856,0.85744
199.84749,0.84410
199.60642,0.83647
199.36535,0.83302
199.12428,0.82887
198.88321,0.82108
198.64214,0.81089
198.40107,0.80095
198.16000,0.79245
197.91893,0.78505
197.67786,0.77747
197.43679,0.76831
197.19572,0.75752
196.95464,0.74706
196.71357,0.73958
196.47250,0.73592
196.23143,0.73358
195.99036,0.72868
195.74929,0.72020
195.50822,0.71074
195.26715,0.70260
195.02608,0.69539
194.78501,0.68836
194.54394,0.68263
194.30287,0.67892
194.06180,0.67491
193.82073,0.66779
193.57966,0.65901
193.33859,0.65305
193.09752,0.65112
192.85645,0.64959
192.61537,0.64503
192.37430,0.63847
192.13323,0.63301
191.89216,0.62941
191.65109,0.62599
191.41002,0.62138
191.16895,0.61596
190.92788,0.61067
190.68681,0.60563
190.44574,0.60064
190.20467,0.59613
189.96360,0.59286
189.72253,0.59093
189.48146,0.59002
189.24039,0.58983
188.99932,0.58974
188.75825,0.58870
188.51718,0.58623
188.27610,0.58304
188.03503,0.58006
187.79396,0.57714
187.55289,0.57382
187.31182,0.57065
187.07075,0.56856
186.82968,0.56713
186.58861,0.56499
186.34754,0.56205
186.10647,0.55984
185.86540,0.55915
185.62433,0.55898
185.38326,0.55821
185.14219,0.55702
184.90112,0.55620
184.66005,0.55608
184.41898,0.55684
184.17791,0.55853
183.93683,0.56011
183.69576,0.56015
183.45469,0.55906
183.21362,0.55897
182.97255,0.56068
182.73148,0.56275
182.49041,0.56369
182.24934,0.56350
182.00827,0.56260
181.76720,0.56123
181.52613,0.56015
181.28506,0.56012
181.04399,0.56055
180.80292,0.56056
180.56185,0.56075
180.32078,0.56209
180.07971,0.56410
179.83864,0.56599
179.59756,0.56770
179.35649,0.56943
179.11542,0.57164
178.87435,0.57534
178.63328,0.58040
178.39221,0.58530
178.15114,0.58989
177.91007,0.59599
177.66900,0.60432
177.42793,0.61346
177.18686,0.62223
176.94579,0.63082
176.70472,0.63967
176.46365,0.64888
176.22258,0.65858
175.98151,0.66895
175.74044,0.67990
175.49937,0.69111
175.25829,0.70278
175.01722,0.71597
174.77615,0.73165
174.53508,0.74898
174.29401,0.76553
174.05294,0.77951
173.81187,0.79108
173.57080,0.80061
173.32973,0.80717
173.08866,0.81032
172.84759,0.81179
172.60652,0.81391
172.36545,0.81753
172.12438,0.82213
171.88331,0.82686
171.64224,0.83081
171.40117,0.83323
171.16010,0.83403
170.91902,0.83375
170.67795,0.83263
170.43688,0.82981
170.19581,0.82441
169.95474,0.81754
169.71367,0.81182
169.47260,0.80840
169.23153,0.80593
168.99046,0.80268
168.74939,0.79865
168.50832,0.79512
168.26725,0.79251
168.02618,0.78988
167.78511,0.78703
167.54404,0.78551
167.30297,0.78658
167.06190,0.78918
166.82083,0.79115
166.57975,0.79146
166.33868,0.79095
166.09761,0.79148
165.85654,0.79411
165.61547,0.79770
165.37440,0.80019
165.13333,0.80134
164.89226,0.80287
164.65119,0.80576
164.41012,0.80902
164.16905,0.81142
163.92798,0.81326
163.68691,0.81583
163.44584,0.81991
163.20477,0.82580
162.96370,0.83374
162.72263,0.84295
162.48156,0.85118
162.24048,0.85666
161.99941,0.85940
161.75834,0.86014
161.51727,0.85974
161.27620,0.85983
161.03513,0.86214
160.79406,0.86633
160.55299,0.86962
160.31192,0.86930
160.07085,0.86520
159.82978,0.85973
159.58871,0.85601
159.34764,0.85566
159.10657,0.85763
158.86550,0.85889
158.62443,0.85698
158.38336,0.85186
158.14229,0.84549
157.90121,0.84060
157.66014,0.83934
157.41907,0.84107
157.17800,0.84220
156.93693,0.83984
156.69586,0.83461
156.45479,0.82881
156.21372,0.82367
155.97265,0.81980
155.73158,0.81787
155.49051,0.81712
155.24944,0.81490
155.00837,0.80947
154.76730,0.80169
154.52623,0.79338
154.28516,0.78594
154.04409,0.78034
153.80302,0.77632
153.56194,0.77166
153.32087,0.76406
153.07980,0.75394
152.83873,0.74401
152.59766,0.73598
152.35659,0.72870
152.11552,0.71957
151.87445,0.70764
151.63338,0.69451
151.39231,0.68266
151.15124,0.67371
150.91017,0.66732
150.66910,0.66063
150.42803,0.65043
150.18696,0.63697
149.94589,0.62387
149.70482,0.61407
149.46375,0.60741
149.22267,0.60162
148.98160,0.59473
148.74053,0.58676
148.49946,0.57926
148.25839,0.57333
148.01732,0.56842
147.77625,0.56305
147.53518,0.55672
147.29411,0.55086
147.05304,0.54731
146.81197,0.54619
146.57090,0.54575
146.32983,0.54459
146.08876,0.54341
145.84769,0.54393
145.60662,0.54680
145.36555,0.55099
145.12448,0.55505
144.88340,0.55837
144.64233,0.56114
144.40126,0.56371
144.16019,0.56651
143.91912,0.57004
143.67805,0.57379
143.43698,0.57558
143.19591,0.57320
142.95484,0.56678
142.71377,0.55875
142.47270,0.55150
142.23163,0.54553
141.99056,0.53954
141.74949,0.53202
141.50842,0.52295
141.26735,0.51388
141.02628,0.50657
140.78521,0.50161
140.54413,0.49811
140.30306,0.49487
140.06199,0.49197
139.82092,0.49048
139.57985,0.49059
139.33878,0.49122
139.09771,0.49182
138.85664,0.49322
138.61557,0.49623
138.37450,0.50055
138.13343,0.50554
137.89236,0.51146
137.65129,0.51889
137.41022,0.52757
137.16915,0.53678
136.92808,0.54677
136.68701,0.55863
136.44594,0.57298
136.20486,0.58947
135.96379,0.60695
135.72272,0.62403
135.48165,0.64052
135.24058,0.65783
134.99951,0.67705
134.75844,0.69803
134.51737,0.72075
134.27630,0.74512
134.03523,0.76957
133.79416,0.79260
133.55309,0.81460
133.31202,0.83617
133.07095,0.85696
132.82988,0.87688
132.58881,0.89535
132.34774,0.91056
132.10667,0.92289
131.86559,0.93650
131.62452,0.95380
131.38345,0.97115
131.14238,0.98292
130.90131,0.98744
130.66024,0.98677
130.41917,0.98363
130.17810,0.98044
129.93703,0.97823
129.69596,0.97437
129.45489,0.96442
129.21382,0.94727
128.97275,0.92580
128.73168,0.90307
128.49061,0.88095
128.24954,0.86068
128.00847,0.84161
127.76740,0.82094
127.52632,0.79743
127.28525,0.77327
127.04418,0.75129
126.80311,0.73219
126.56204,0.71502
126.32097,0.69869
126.07990,0.68260
125.83883,0.66683
125.59776,0.65173
125.35669,0.63730
125.11562,0.62306
124.87455,0.60844
124.63348,0.59336
124.39241,0.57854
124.15134,0.56482
123.91027,0.55214
123.66920,0.54004
123.42812,0.52903
123.18705,0.51997
122.94598,0.51232
122.70491,0.50447
122.46384,0.49608
122.22277,0.48854
121.98170,0.48283
121.74063,0.47868
121.49956,0.47564
121.25849,0.47384
121.01742,0.47355
120.77635,0.47494
120.53528,0.47807
120.29421,0.48273
120.05314,0.48898
119.81207,0.49760
119.57100,0.50930
119.32993,0.52397
119.08885,0.54120
118.84778,0.56083
118.60671,0.58256
118.36564,0.60587
118.12457,0.63059
117.88350,0.65628
117.64243,0.68070
117.40136,0.70060
117.16029,0.71515
116.91922,0.72723
116.67815,0.74011
116.43708,0.75386
116.19601,0.76621
115.95494,0.77504
115.71387,0.77912
115.47280,0.77777
115.23173,0.77181
114.99066,0.76281
114.74958,0.75078
114.50851,0.73524
114.26744,0.71801
114.02637,0.70282
113.78530,0.69244
113.54423,0.68787
113.30316,0.68960
113.06209,0.69716
112.82102,0.70703
112.57995,0.71345
112.33888,0.71318
112.09781,0.70842
111.85674,0.70415
111.61567,0.70398
111.37460,0.70870
111.13353,0.71702
110.89246,0.72713
110.65139,0.73779
110.41031,0.74739
110.16924,0.75192
109.92817,0.74660
109.68710,0.73157
109.44603,0.71348
109.20496,0.69928
108.96389,0.69015
108.72282,0.68187
108.48175,0.66958
108.24068,0.65152
107.99961,0.62957
107.75854,0.60770
107.51747,0.58991
107.27640,0.57830
107.03533,0.57124
106.79426,0.56375
106.55319,0.55116
106.31212,0.53303
106.07104,0.51297
105.82997,0.49514
105.58890,0.48175
105.34783,0.47265
105.10676,0.46594
104.86569,0.45911
104.62462,0.44991
104.38355,0.43718
104.14248,0.42197
103.90141,0.40766
103.66034,0.39737
103.41927,0.39113
103.17820,0.38597
102.93713,0.37898
102.69606,0.36995
102.45499,0.36127
102.21392,0.35553
101.97285,0.35306
101.73177,0.35126
101.49070,0.34684
101.24963,0.33945
101.00856,0.33178
100.76749,0.32605
100.52642,0.32208
100.28535,0.31871
100.04428,0.31496
99.80321,0.31005
99.56214,0.30452
99.32107,0.30094
99.08000,0.30129
98.83893,0.30329
98.59786,0.30157
98.35679,0.29429
98.11572,0.28620
97.87465,0.28295
97.63358,0.28472
97.39250,0.28633
97.15143,0.28381
96.91036,0.27994
96.66929,0.28020
96.42822,0.28523
96.18715,0.29035
95.94608,0.29276
95.70501,0.29542
95.46394,0.30140
95.22287,0.30861
94.98180,0.31332
94.74073,0.31636
94.49966,0.32073
94.25859,0.32574
94.01752,0.32812
93.77645,0.32742
93.53538,0.32623
93.29431,0.32582
93.05323,0.32557
92.81216,0.32562
92.57109,0.32669
92.33002,0.32771
92.08895,0.32692
91.84788,0.32558
91.60681,0.32672
91.36574,0.33055
91.12467,0.33567
90.88360,0.34389
90.64253,0.35802
90.40146,0.37688
90.16039,0.39865
89.91932,0.42546
89.67825,0.45822
89.43718,0.49323
89.19611,0.52870
88.95504,0.56658
88.71396,0.60511
88.47289,0.63962
88.23182,0.66820
87.99075,0.68737
87.74968,0.69078
87.50861,0.67812
87.26754,0.65564
87.02647,0.62889
86.78540,0.60093
86.54433,0.57300
86.30326,0.54489
86.06219,0.51712
85.82112,0.49140
85.58005,0.46805
85.33898,0.44532
85.09791,0.42218
84.85684,0.39990
84.61577,0.38037
84.37469,0.36396
84.13362,0.34989
83.89255,0.33768
83.65148,0.32684
83.41041,0.31620
83.16934,0.30518
82.92827,0.29477
82.68720,0.28601
82.44613,0.27875
82.20506,0.27235
81.96399,0.26648
81.72292,0.26111
81.48185,0.25653
81.24078,0.25293
80.99971,0.25003
80.75864,0.24711
80.51757,0.24383
80.27650,0.24063
80.03542,0.23825
79.79435,0.23685
79.55328,0.23590
79.31221,0.23501
79.07114,0.23396
78.83007,0.23224
78.58900,0.22964
78.34793,0.22679
78.10686,0.22405
77.86579,0.22074
77.62472,0.21620
77.38365,0.21101
77.14258,0.20624
76.90151,0.20228
76.66044,0.19895
76.41937,0.19640
76.17830,0.19496
75.93723,0.19433
75.69615,0.19370
75.45508,0.19256
75.21401,0.19094
74.97294,0.18917
74.73187,0.18806
74.49080,0.18875
74.24973,0.19170
74.00866,0.19606
73.76759,0.19995
73.52652,0.20146
73.28545,0.19990
73.04438,0.19675
72.80331,0.19449
72.56224,0.19390
72.32117,0.19330
72.08010,0.19107
71.83903,0.18764
71.59796,0.18407
71.35688,0.18053
71.11581,0.17745
70.87474,0.17639
70.63367,0.17886
70.39260,0.18557
70.15153,0.19709
69.91046,0.21365
69.66939,0.23378
69.42832,0.25384
69.18725,0.26863
68.94618,0.27335
68.70511,0.26687
68.46404,0.25323
68.22297,0.23834
67.98190,0.22536
67.74083,0.21404
67.49976,0.20337
67.25869,0.19344
67.01761,0.18478
66.77654,0.17739
66.53547,0.17093
66.29440,0.16524
66.05333,0.16046
65.81226,0.15739
65.57119,0.15712
65.33012,0.16015
65.08905,0.16612
64.84798,0.17455
64.60691,0.18508
64.36584,0.19680
64.12477,0.20796
63.88370,0.21646
63.64263,0.22088
63.40156,0.22117
63.16049,0.21820
62.91942,0.21299
62.67834,0.20655
62.43727,0.19981
62.19620,0.19309
61.95513,0.18600
61.71406,0.17793
61.47299,0.16893
61.23192,0.15991
60.99085,0.15185
60.74978,0.14536
60.50871,0.14118
60.26764,0.14000
60.02657,0.14135
59.78550,0.14363
59.54443,0.14610
59.30336,0.15026
59.06229,0.15843
58.82122,0.17068
58.58015,0.18401
58.33907,0.19451
58.09800,0.19931
57.85693,0.19666
57.61586,0.18642
57.37479,0.17075
57.13372,0.15330
56.89265,0.13838
56.65158,0.13032
56.41051,0.13202
56.16944,0.14350
55.92837,0.16136
55.68730,0.17786
55.44623,0.18289
55.20516,0.17335
54.96409,0.15751
54.72302,0.14611
54.48195,0.14502
54.24088,0.15450
53.99980,0.17092
53.75873,0.18728
53.51766,0.19393
53.27659,0.18543
53.03552,0.16831
52.79445,0.15524
52.55338,0.15441
52.31231,0.16637
52.07124,0.18409
51.83017,0.19291
51.58910,0.18150
51.34803,0.15783
51.10696,0.14008
50.86589,0.14046
50.62482,0.16056
50.38375,0.18724
50.14268,0.19349
49.90161,0.17323
49.66053,0.15546
49.41946,0.16331
49.17839,0.19313
48.93732,0.20958
48.69625,0.18651
48.45518,0.15880
48.21411,0.15975
47.97304,0.18632
47.73197,0.20390
47.49090,0.18853
47.24983,0.16903
47.00876,0.16934
46.76769,0.17557
46.52662,0.16895
46.28555,0.16115
46.04448,0.16513
45.80341,0.16877
45.56234,0.16273
45.32126,0.16221
45.08019,0.17247
44.83912,0.17819
44.59805,0.17620
44.35698,0.17736
44.11591,0.17914
43.87484,0.17672
43.63377,0.18032
43.39270,0.19396
43.15163,0.20489
42.91056,0.20456
42.66949,0.19924
42.42842,0.19548
42.18735,0.19410
41.94628,0.19347
41.70521,0.19116
41.46414,0.18761
41.22307,0.18636
40.98199,0.18783
40.74092,0.18876
40.49985,0.18794
40.25878,0.18808
40.01771,0.19157
39.77664,0.19645
39.53557,0.19901
39.29450,0.19896
39.05343,0.19863
38.81236,0.19975
38.57129,0.20299
38.33022,0.20702
38.08915,0.21011
37.84808,0.21510
37.60701,0.22359
37.36594,0.22784
37.12487,0.22312
36.88380,0.21516
36.64272,0.20986
36.40165,0.20724
36.16058,0.20620
35.91951,0.20603
35.67844,0.20420
35.43737,0.19990
35.19630,0.19667
34.95523,0.19698
34.71416,0.19681
34.47309,0.18891
34.23202,0.17216
33.99095,0.15299
33.74988,0.13603
33.50881,0.12260
33.26774,0.11575
33.02667,0.11528
32.78560,0.11404
32.54453,0.10680
32.30345,0.09686
32.06238,0.09070
31.82131,0.09003
31.58024,0.08856
31.33917,0.07474
31.09810,0.04315
30.85703,0.00578
30.61596,-0.01566
30.37489,-0.01416
30.13382,-0.00459
29.89275,-0.00493
29.65168,-0.01999
29.41061,-0.04158
29.16954,-0.05960
28.92847,-0.07184
28.68740,-0.08423
28.44633,-0.10007
28.20526,-0.11221
27.96418,-0.11499
27.72311,-0.11321
27.48204,-0.11365
27.24097,-0.11744
26.99990,-0.12223
26.75883,-0.12659
26.51776,-0.13225
26.27669,-0.14280
26.03562,-0.15900
25.79455,-0.17817
25.55348,-0.19786
25.31241,-0.21677
25.07134,-0.23292
24.83027,-0.24213
24.58920,-0.23810
24.34813,-0.21917
24.10706,-0.19428
23.86599,-0.17856
23.62491,-0.18315
23.38384,-0.20922
23.14277,-0.24913
22.90170,-0.29154
22.66063,-0.32481
22.41956,-0.33677
22.17849,-0.32371
21.93742,-0.29891
21.69635,-0.28420
21.45528,-0.29180
21.21421,-0.31365
20.97314,-0.33097
20.73207,-0.33506
20.49100,-0.33321
20.24993,-0.33589
20.00886,-0.34405
19.76779,-0.35457
19.52672,-0.36378
19.28564,-0.36673
19.04457,-0.36841
18.80350,-0.37979
18.56243,-0.40288
18.32136,-0.42504
18.08029,-0.43109
17.83922,-0.42336
17.59815,-0.41644
17.35708,-0.42255
17.11601,-0.43922
16.87494,-0.45024
16.63387,-0.44285
16.39280,-0.42059
16.15173,-0.39705
15.91066,-0.38075
15.66959,-0.37168
15.42852,-0.37081
15.18745,-0.38266
14.94637,-0.40574
14.70530,-0.42636
14.46423,-0.43112
14.22316,-0.42300
13.98209,-0.41652
13.74102,-0.41945
13.49995,-0.41605
13.25888,-0.38722
13.01781,-0.35562
12.77674,-0.35929
12.53567,-0.39905
12.29460,-0.43956
12.05353,-0.45332
11.81246,-0.44838
11.57139,-0.44652
11.33032,-0.45421
11.08925,-0.46528
10.84818,-0.47660
10.60710,-0.48897
10.36603,-0.49501
10.12496,-0.48028
9.88389,-0.44900
9.64282,-0.41822
9.40175,-0.39836
9.16068,-0.39204
8.91961,-0.39250
8.67854,-0.39114
8.43747,-0.38937
8.19640,-0.39307
7.95533,-0.40045
7.71426,-0.40777
7.47319,-0.41540
7.23212,-0.42159
6.99105,-0.42570
6.74998,-0.43233
6.50891,-0.44054
6.26783,-0.44659
6.02676,-0.45359
5.78569,-0.45883
5.54462,-0.45201
5.30355,-0.43242
5.06248,-0.40769
4.82141,-0.38836
4.58034,-0.38509
4.33927,-0.39298
4.09820,-0.39497
3.85713,-0.39154
3.61606,-0.39619
3.37499,-0.40469
3.13392,-0.40687
2.89285,-0.40572
2.65178,-0.40510
2.41071,-0.40849
2.16964,-0.41700
1.92856,-0.41806
1.68749,-0.40205
1.44642,-0.38625
1.20535,-0.38248
0.96428,-0.38190
0.72321,-0.39169
0.48214,-0.46800
0.24107,-0.56848
-0.00000,-0.17243
