399.69498,1.45114
399.45391,1.44629
399.21284,1.44225
398.97177,1.44340
398.73070,1.45040
398.48963,1.45803
398.24856,1.45873
398.00749,1.45042
397.76642,1.43923
397.52535,1.43427
397.28428,1.44059
397.04321,1.45712
396.80214,1.47718
396.56107,1.49033
396.32000,1.49082
396.07892,1.48364
395.83785,1.47785
395.59678,1.47624
395.35571,1.47267
395.11464,1.46323
394.87357,1.45411
394.63250,1.45130
394.39143,1.45158
394.15036,1.44699
393.90929,1.43626
393.66822,1.42790
393.42715,1.42970
393.18608,1.43881
392.94501,1.44478
392.70394,1.44219
392.46287,1.43478
392.22180,1.42810
391.98073,1.42511
391.73965,1.42631
391.49858,1.42977
391.25751,1.43142
391.01644,1.42668
390.77537,1.41554
390.53430,1.40467
390.29323,1.40056
390.05216,1.40296
389.81109,1.40642
389.57002,1.40611
389.32895,1.40148
389.08788,1.39365
388.84681,1.38327
388.60574,1.37337
388.36467,1.36762
388.12360,1.36431
387.88253,1.35778
387.64146,1.34625
387.40038,1.33438
387.15931,1.32804
386.91824,1.33025
386.67717,1.33855
386.43610,1.34422
386.19503,1.33865
385.95396,1.32335
385.71289,1.30912
385.47182,1.30396
385.23075,1.30557
384.98968,1.30636
384.74861,1.30228
384.50754,1.29356
384.26647,1.28030
384.02540,1.26170
383.78433,1.23716
383.54326,1.20943
383.30219,1.18673
383.06111,1.17707
382.82004,1.18329
382.57897,1.20366
382.33790,1.22909
382.09683,1.24061
381.85576,1.22455
381.61469,1.19080
381.37362,1.16197
381.13255,1.15142
380.89148,1.15599
380.65041,1.16472
380.40934,1.17186
380.16827,1.17687
379.92720,1.17572
379.68613,1.16552
379.44506,1.15377
379.20399,1.15246
378.96292,1.16559
378.72184,1.18583
378.48077,1.20161
378.23970,1.20854
377.99863,1.21247
377.75756,1.22024
377.51649,1.23390
377.27542,1.25206
377.03435,1.27038
376.79328,1.28149
376.55221,1.27982
376.31114,1.26921
376.07007,1.26163
375.82900,1.26519
375.58793,1.27682
375.34686,1.28799
375.10579,1.29614
374.86472,1.30748
374.62365,1.32488
374.38257,1.34005
374.14150,1.34409
373.90043,1.34083
373.65936,1.33965
373.41829,1.34066
373.17722,1.33826
372.93615,1.33353
372.69508,1.33337
372.45401,1.33987
372.21294,1.34653
371.97187,1.34688
371.73080,1.34190
371.48973,1.33542
371.24866,1.32853
371.00759,1.32259
370.76652,1.32106
370.52545,1.32351
370.28437,1.32534
370.04330,1.32578
369.80223,1.32733
369.56116,1.32919
369.32009,1.32756
369.07902,1.32213
368.83795,1.31811
368.59688,1.31976
368.35581,1.32531
368.11474,1.32929
367.87367,1.32833
367.63260,1.32252
367.39153,1.31232
367.15046,1.29914
366.90939,1.28792
366.66832,1.28368
366.42725,1.28568
366.18618,1.28837
365.94510,1.28745
365.70403,1.28368
365.46296,1.28103
365.22189,1.28204
364.98082,1.28550
364.73975,1.28830
364.49868,1.28909
364.25761,1.28890
364.01654,1.28835
363.77547,1.28664
363.53440,1.28269
363.29333,1.27666
363.05226,1.27032
362.81119,1.26510
362.57012,1.26085
362.32905,1.25726
362.08798,1.25497
361.84691,1.25439
361.60583,1.25300
361.36476,1.24680
361.12369,1.23696
360.88262,1.23006
360.64155,1.22894
360.40048,1.22875
360.15941,1.22476
359.91834,1.21878
359.67727,1.21499
359.43620,1.21480
359.19513,1.21648
358.95406,1.21649
358.71299,1.21312
358.47192,1.20972
358.23085,1.21071
357.98978,1.21459
357.74871,1.21562
357.50764,1.21191
357.26656,1.20657
357.02549,1.20166
356.78442,1.19744
356.54335,1.19577
356.30228,1.19807
356.06121,1.20101
355.82014,1.19920
355.57907,1.19190
355.33800,1.18395
355.09693,1.18104
354.85586,1.18483
354.61479,1.19146
354.37372,1.19496
354.13265,1.19331
353.89158,1.19056
353.65051,1.19214
353.40944,1.19955
353.16837,1.20901
352.92729,1.21339
352.68622,1.20729
352.44515,1.19293
352.20408,1.17951
351.96301,1.17546
351.72194,1.18094
351.48087,1.18768
351.23980,1.18808
350.99873,1.18313
350.75766,1.17874
350.51659,1.17789
350.27552,1.17888
350.03445,1.17935
349.79338,1.17968
349.55231,1.18168
349.31124,1.18574
349.07017,1.19118
348.82910,1.19711
348.58802,1.20182
348.34695,1.20333
348.10588,1.20176
347.86481,1.20032
347.62374,1.20314
347.38267,1.21060
347.14160,1.21770
346.90053,1.21946
346.65946,1.21686
346.41839,1.21305
346.17732,1.20839
345.93625,1.20402
345.69518,1.20355
345.45411,1.20703
345.21304,1.20798
344.97197,1.20126
344.73090,1.19172
344.48983,1.18976
344.24875,1.19871
344.00768,1.21086
343.76661,1.21714
343.52554,1.21720
343.28447,1.21712
343.04340,1.22170
342.80233,1.23152
342.56126,1.24350
342.32019,1.25276
342.07912,1.25618
341.83805,1.25512
341.59698,1.25399
341.35591,1.25621
341.11484,1.26142
340.87377,1.26696
340.63270,1.27204
340.39163,1.27902
340.15056,1.28984
339.90948,1.30282
339.66841,1.31181
339.42734,1.31073
339.18627,1.30134
338.94520,1.29113
338.70413,1.28470
338.46306,1.28129
338.22199,1.27929
337.98092,1.27938
337.73985,1.28206
337.49878,1.28494
337.25771,1.28515
337.01664,1.28275
336.77557,1.28010
336.53450,1.27995
336.29343,1.28451
336.05236,1.29210
335.81129,1.29632
335.57021,1.29507
335.32914,1.29418
335.08807,1.29609
334.84700,1.29292
334.60593,1.27850
334.36486,1.26161
334.12379,1.25551
333.88272,1.26141
333.64165,1.26965
333.40058,1.27253
333.15951,1.27076
332.91844,1.26752
332.67737,1.26240
332.43630,1.25361
332.19523,1.24340
331.95416,1.23673
331.71309,1.23459
331.47202,1.23384
331.23094,1.23064
330.98987,1.22207
330.74880,1.20879
330.50773,1.19664
330.26666,1.19196
330.02559,1.19559
329.78452,1.20317
329.54345,1.20948
329.30238,1.21078
329.06131,1.20583
328.82024,1.19703
328.57917,1.18815
328.33810,1.18150
328.09703,1.17876
327.85596,1.18108
327.61489,1.18650
327.37382,1.19017
327.13275,1.18868
326.89167,1.18248
326.65060,1.17489
326.40953,1.17052
326.16846,1.17271
325.92739,1.18120
325.68632,1.19280
325.44525,1.20368
325.20418,1.20993
324.96311,1.20788
324.72204,1.19696
324.48097,1.18115
324.23990,1.16581
323.99883,1.15637
323.75776,1.15803
323.51669,1.17151
323.27562,1.19076
323.03455,1.20772
322.79348,1.21706
322.55240,1.21698
322.31133,1.21023
322.07026,1.20265
321.82919,1.19839
321.58812,1.19808
321.34705,1.20184
321.10598,1.20964
320.86491,1.21697
320.62384,1.21692
320.38277,1.20922
320.14170,1.20109
319.90063,1.19850
319.65956,1.20006
319.41849,1.20065
319.17742,1.20046
318.93635,1.20422
318.69528,1.21051
318.45421,1.21047
318.21313,1.20045
317.97206,1.18962
317.73099,1.18937
317.48992,1.19863
317.24885,1.20500
317.00778,1.20241
316.76671,1.19809
316.52564,1.19825
316.28457,1.20034
316.04350,1.20199
315.80243,1.20295
315.56136,1.19929
315.32029,1.19125
315.07922,1.18995
314.83815,1.20391
314.59708,1.22669
314.35601,1.24449
314.11494,1.25031
313.87386,1.24585
313.63279,1.23535
313.39172,1.22298
313.15065,1.21518
312.90958,1.21851
312.66851,1.23106
312.42744,1.24096
312.18637,1.23969
311.94530,1.23168
311.70423,1.22522
311.46316,1.22462
311.22209,1.23265
310.98102,1.24840
310.73995,1.26178
310.49888,1.26105
310.25781,1.24721
310.01674,1.23218
309.77567,1.22781
309.53459,1.23765
309.29352,1.25455
309.05245,1.26789
308.81138,1.27475
308.57031,1.28017
308.32924,1.28745
308.08817,1.29381
307.84710,1.29614
307.60603,1.29567
307.36496,1.29381
307.12389,1.28880
306.88282,1.28076
306.64175,1.27503
306.40068,1.27629
306.15961,1.28409
305.91854,1.29523
305.67747,1.30619
305.43640,1.31206
305.19532,1.30857
304.95425,1.29803
304.71318,1.28875
304.47211,1.28668
304.23104,1.29070
303.98997,1.29469
303.74890,1.29285
303.50783,1.28474
303.26676,1.27540
303.02569,1.27089
302.78462,1.27185
302.54355,1.27315
302.30248,1.27197
302.06141,1.27213
301.82034,1.27728
301.57927,1.28375
301.33820,1.28482
301.09713,1.27983
300.85605,1.27374
300.61498,1.26874
300.37391,1.26224
300.13284,1.25352
299.89177,1.24620
299.65070,1.24253
299.40963,1.24059
299.16856,1.23838
298.92749,1.23629
298.68642,1.23443
298.44535,1.23130
298.20428,1.22713
297.96321,1.22498
297.72214,1.22655
297.48107,1.22851
297.24000,1.22673
296.99893,1.22273
296.75786,1.22129
296.51678,1.22420
296.27571,1.22712
296.03464,1.22353
295.79357,1.21305
295.55250,1.20237
295.31143,1.19717
295.07036,1.19709
294.82929,1.19790
294.58822,1.19560
294.34715,1.19039
294.10608,1.18660
293.86501,1.18680
293.62394,1.18787
293.38287,1.18556
293.14180,1.18111
292.90073,1.17901
292.65966,1.18061
292.41859,1.18307
292.17751,1.18256
291.93644,1.17733
291.69537,1.16937
291.45430,1.16351
291.21323,1.16333
290.97216,1.16689
290.73109,1.16799
290.49002,1.16291
290.24895,1.15442
290.00788,1.14820
289.76681,1.14683
289.52574,1.14760
289.28467,1.14678
289.04360,1.14475
288.80253,1.14475
288.56146,1.14791
288.32039,1.15149
288.07932,1.15228
287.83824,1.15016
287.59717,1.14713
287.35610,1.14422
287.11503,1.14043
286.87396,1.13471
286.63289,1.12817
286.39182,1.12310
286.15075,1.12032
285.90968,1.11912
285.66861,1.11856
285.42754,1.11796
285.18647,1.11729
284.94540,1.11722
284.70433,1.11786
284.46326,1.11794
284.22219,1.11658
283.98112,1.11491
283.74005,1.11451
283.49897,1.11506
283.25790,1.11501
283.01683,1.11344
282.77576,1.11063
282.53469,1.10788
282.29362,1.10687
282.05255,1.10847
281.81148,1.11191
281.57041,1.11567
281.32934,1.11881
281.08827,1.12079
280.84720,1.12074
280.60613,1.11796
280.36506,1.11346
280.12399,1.10945
279.88292,1.10726
279.64185,1.10675
279.40078,1.10789
279.15970,1.11108
278.91863,1.11532
278.67756,1.11802
278.43649,1.11734
278.19542,1.11391
277.95435,1.10970
277.71328,1.10617
277.47221,1.10372
277.23114,1.10227
276.99007,1.10159
276.74900,1.10164
276.50793,1.10281
276.26686,1.10510
276.02579,1.10760
275.78472,1.10945
275.54365,1.11056
275.30258,1.11080
275.06151,1.10968
274.82043,1.10779
274.57936,1.10710
274.33829,1.10893
274.09722,1.11271
273.85615,1.11699
273.61508,1.12071
273.37401,1.12325
273.13294,1.12425
272.89187,1.12327
272.65080,1.11978
272.40973,1.11473
272.16866,1.11083
271.92759,1.10993
271.68652,1.11161
271.44545,1.11490
271.20438,1.11922
270.96331,1.12348
270.72224,1.12665
270.48116,1.12958
270.24009,1.13444
269.99902,1.14176
269.75795,1.14868
269.51688,1.15182
269.27581,1.15123
269.03474,1.14996
268.79367,1.15068
268.55260,1.15417
268.31153,1.15957
268.07046,1.16495
267.82939,1.16887
267.58832,1.17134
267.34725,1.17239
267.10618,1.17145
266.86511,1.16984
266.62404,1.17108
266.38297,1.17696
266.14189,1.18533
265.90082,1.19246
265.65975,1.19662
265.41868,1.19966
265.17761,1.20528
264.93654,1.21453
264.69547,1.22375
264.45440,1.22930
264.21333,1.23320
263.97226,1.24065
263.73119,1.25299
263.49012,1.26665
263.24905,1.27923
263.00798,1.29229
262.76691,1.30550
262.52584,1.31416
262.28477,1.31713
262.04370,1.32073
261.80262,1.32994
261.56155,1.34198
261.32048,1.35259
261.07941,1.36332
260.83834,1.37879
260.59727,1.40013
260.35620,1.42248
260.11513,1.43808
259.87406,1.44443
259.63299,1.44858
259.39192,1.46051
259.15085,1.48610
258.90978,1.52368
258.66871,1.56367
258.42764,1.59603
258.18657,1.61789
257.94550,1.62986
257.70443,1.63220
257.46335,1.63181
257.22228,1.64124
256.98121,1.66225
256.74014,1.67815
256.49907,1.67701
256.25800,1.67513
256.01693,1.69040
255.77586,1.71686
255.53479,1.73523
255.29372,1.73469
255.05265,1.72434
254.81158,1.72111
254.57051,1.72889
254.32944,1.73281
254.08837,1.71872
253.84730,1.69775
253.60623,1.69039
253.36516,1.69619
253.12408,1.69873
252.88301,1.69061
252.64194,1.67662
252.40087,1.66085
252.15980,1.64656
251.91873,1.64153
251.67766,1.65055
251.43659,1.66366
251.19552,1.66521
250.95445,1.65251
250.71338,1.63300
250.47231,1.61427
250.23124,1.60137
249.99017,1.59658
249.74910,1.59902
249.50803,1.60476
249.26696,1.60774
249.02589,1.60500
248.78481,1.59961
248.54374,1.59379
248.30267,1.58469
248.06160,1.57443
247.82053,1.57407
247.57946,1.58941
247.33839,1.61305
247.09732,1.63379
246.85625,1.64767
246.61518,1.65526
246.37411,1.65523
246.13304,1.64802
245.89197,1.64119
245.65090,1.64342
245.40983,1.65693
245.16876,1.67814
244.92769,1.70002
244.68661,1.71845
244.44554,1.73668
244.20447,1.75979
243.96340,1.78562
243.72233,1.80704
243.48126,1.82277
243.24019,1.83907
242.99912,1.86340
242.75805,1.89984
242.51698,1.93730
242.27591,1.94732
242.03484,1.91199
241.79377,1.86551
241.55270,1.83885
241.31163,1.81400
241.07056,1.76714
240.82949,1.70433
240.58842,1.64780
240.34734,1.60921
240.10627,1.58008
239.86520,1.54443
239.62413,1.50012
239.38306,1.45820
239.14199,1.42567
238.90092,1.39753
238.65985,1.36728
238.41878,1.33718
238.17771,1.31102
237.93664,1.28732
237.69557,1.26340
237.45450,1.23998
237.21343,1.21975
236.97236,1.20331
236.73129,1.18879
236.49022,1.17468
236.24915,1.16131
236.00807,1.14969
235.76700,1.13999
235.52593,1.13025
235.28486,1.11828
235.04379,1.10542
234.80272,1.09466
234.56165,1.08605
234.32058,1.07758
234.07951,1.06865
233.83844,1.05935
233.59737,1.04869
233.35630,1.03611
233.11523,1.02307
232.87416,1.01146
232.63309,1.00181
232.39202,0.99393
232.15095,0.98811
231.90988,0.98437
231.66880,0.98102
231.42773,0.97626
231.18666,0.97068
230.94559,0.96568
230.70452,0.96098
230.46345,0.95589
230.22238,0.95101
229.98131,0.94685
229.74024,0.94256
229.49917,0.93709
229.25810,0.93052
229.01703,0.92378
228.77596,0.91777
228.53489,0.91291
228.29382,0.90925
228.05275,0.90663
227.81168,0.90425
227.57061,0.90015
227.32953,0.89288
227.08846,0.88420
226.84739,0.87773
226.60632,0.87441
226.36525,0.87184
226.12418,0.86879
225.88311,0.86665
225.64204,0.86546
225.40097,0.86318
225.15990,0.85919
224.91883,0.85458
224.67776,0.84969
224.43669,0.84462
224.19562,0.84056
223.95455,0.83908
223.71348,0.84079
223.47241,0.84481
223.23134,0.84943
222.99026,0.85347
222.74919,0.85649
222.50812,0.85842
222.26705,0.85968
222.02598,0.86062
221.78491,0.86067
221.54384,0.85990
221.30277,0.86016
221.06170,0.86264
220.82063,0.86629
220.57956,0.87081
220.33849,0.87814
220.09742,0.88877
219.85635,0.89907
219.61528,0.90447
219.37421,0.90446
219.13314,0.90285
218.89207,0.90383
218.65099,0.90878
218.40992,0.91681
218.16885,0.92679
217.92778,0.93760
217.68671,0.94778
217.44564,0.95631
217.20457,0.96264
216.96350,0.96652
216.72243,0.96952
216.48136,0.97490
216.24029,0.98421
215.99922,0.99586
215.75815,1.00767
215.51708,1.01875
215.27601,1.02846
215.03494,1.03602
214.79387,1.04157
214.55280,1.04683
214.31172,1.05365
214.07065,1.06210
213.82958,1.07055
213.58851,1.07778
213.34744,1.08405
213.10637,1.09015
212.86530,1.09564
212.62423,1.09873
212.38316,1.09864
212.14209,1.09723
211.90102,1.09689
211.65995,1.09807
211.41888,1.10023
211.17781,1.10339
210.93674,1.10735
210.69567,1.11029
210.45460,1.10964
210.21353,1.10484
209.97245,1.09903
209.73138,1.09736
209.49031,1.10228
209.24924,1.11001
209.00817,1.11415
208.76710,1.11255
208.52603,1.10791
208.28496,1.10318
208.04389,1.10039
207.80282,1.10132
207.56175,1.10521
207.32068,1.10790
207.07961,1.10552
206.83854,1.09733
206.59747,1.08499
206.35640,1.07165
206.11533,1.06174
205.87426,1.05867
205.63318,1.06113
205.39211,1.06251
205.15104,1.05649
204.90997,1.04369
204.66890,1.02992
204.42783,1.01968
204.18676,1.01414
203.94569,1.01179
203.70462,1.00850
203.46355,1.00086
203.22248,0.99042
202.98141,0.98118
202.74034,0.97360
202.49927,0.96459
202.25820,0.95242
202.01713,0.93867
201.77606,0.92610
201.53499,0.91618
201.29391,0.90791
201.05284,0.89906
200.81177,0.88868
200.57070,0.87743
200.32963,0.86624
200.08856,0.85622
199.84749,0.84886
199.60642,0.84460
199.36535,0.84132
199.12428,0.83548
198.88321,0.82528
198.64214,0.81250
198.40107,0.80074
198.16000,0.79225
197.91893,0.78650
197.67786,0.78128
197.43679,0.77458
197.19572,0.76592
196.95464,0.75643
196.71357,0.74751
196.47250,0.73942
196.23143,0.73132
195.99036,0.72251
195.74929,0.71384
195.50822,0.70694
195.26715,0.70221
195.02608,0.69831
194.78501,0.69367
194.54394,0.68786
194.30287,0.68137
194.06180,0.67481
193.82073,0.66877
193.57966,0.66329
193.33859,0.65774
193.09752,0.65208
192.85645,0.64772
192.61537,0.64576
192.37430,0.64450
192.13323,0.64062
191.89216,0.63370
191.65109,0.62734
191.41002,0.62422
191.16895,0.62232
190.92788,0.61781
190.68681,0.61060
190.44574,0.60424
190.20467,0.60104
189.96360,0.59971
189.72253,0.59771
189.48146,0.59429
189.24039,0.59034
188.99932,0.58653
188.75825,0.58304
188.51718,0.58061
188.27610,0.58003
188.03503,0.58050
187.79396,0.58014
187.55289,0.57839
187.31182,0.57632
187.07075,0.57465
186.82968,0.57287
186.58861,0.57073
186.34754,0.56900
186.10647,0.56822
185.86540,0.56785
185.62433,0.56693
185.38326,0.56484
185.14219,0.56159
184.90112,0.55815
184.66005,0.55620
184.41898,0.55690
184.17791,0.55973
183.93683,0.56278
183.69576,0.56448
183.45469,0.56489
183.21362,0.56510
182.97255,0.56549
182.73148,0.56564
182.49041,0.56589
182.24934,0.56695
182.00827,0.56786
181.76720,0.56678
181.52613,0.56419
181.28506,0.56261
181.04399,0.56288
180.80292,0.56379
180.56185,0.56488
180.32078,0.56658
180.07971,0.56856
179.83864,0.57040
179.59756,0.57292
179.35649,0.57657
179.11542,0.58048
178.87435,0.58413
178.63328,0.58816
178.39221,0.59285
178.15114,0.59798
177.91007,0.60386
177.66900,0.61103
177.42793,0.61907
177.18686,0.62697
176.94579,0.63459
176.70472,0.64317
176.46365,0.65405
176.22258,0.66711
175.98151,0.68086
175.74044,0.69404
175.49937,0.70643
175.25829,0.71835
175.01722,0.73039
174.77615,0.74317
174.53508,0.75625
174.29401,0.76819
174.05294,0.77864
173.81187,0.78932
173.57080,0.80103
173.32973,0.81138
173.08866,0.81798
172.84759,0.82234
172.60652,0.82744
172.36545,0.83331
172.12438,0.83790
171.88331,0.84027
171.64224,0.84028
171.40117,0.83766
171.16010,0.83347
170.91902,0.82996
170.67795,0.82792
170.43688,0.82618
170.19581,0.82384
169.95474,0.82132
169.71367,0.81892
169.47260,0.81603
169.23153,0.81234
168.99046,0.80857
168.74939,0.80520
168.50832,0.80163
168.26725,0.79739
168.02618,0.79327
167.78511,0.79024
167.54404,0.78836
167.30297,0.78733
167.06190,0.78766
166.82083,0.79032
166.57975,0.79509
166.33868,0.79981
166.09761,0.80225
165.85654,0.80251
165.61547,0.80224
165.37440,0.80225
165.13333,0.80266
164.89226,0.80420
164.65119,0.80794
164.41012,0.81427
164.16905,0.82266
163.92798,0.83149
163.68691,0.83841
163.44584,0.84213
163.20477,0.84343
162.96370,0.84365
162.72263,0.84368
162.48156,0.84497
162.24048,0.84975
161.99941,0.85844
161.75834,0.86765
161.51727,0.87313
161.27620,0.87411
161.03513,0.87307
160.79406,0.87201
160.55299,0.87084
160.31192,0.86889
160.07085,0.86658
159.82978,0.86471
159.58871,0.86313
159.34764,0.86113
159.10657,0.85841
158.86550,0.85495
158.62443,0.85080
158.38336,0.84642
158.14229,0.84284
157.90121,0.84127
157.66014,0.84231
157.41907,0.84473
157.17800,0.84587
156.93693,0.84442
156.69586,0.84171
156.45479,0.83894
156.21372,0.83534
155.97265,0.83073
155.73158,0.82692
155.49051,0.82443
155.24944,0.82060
155.00837,0.81325
154.76730,0.80409
154.52623,0.79653
154.28516,0.79215
154.04409,0.79021
153.80302,0.78865
153.56194,0.78459
153.32087,0.77577
153.07980,0.76306
152.83873,0.74982
152.59766,0.73861
152.35659,0.72961
152.11552,0.72146
151.87445,0.71209
151.63338,0.70005
151.39231,0.68678
151.15124,0.67566
150.91017,0.66778
150.66910,0.66044
150.42803,0.65084
150.18696,0.63931
149.94589,0.62806
149.70482,0.61838
149.46375,0.61028
149.22267,0.60315
148.98160,0.59617
148.74053,0.58856
148.49946,0.58015
148.25839,0.57179
148.01732,0.56488
147.77625,0.56017
147.53518,0.55705
147.29411,0.55442
147.05304,0.55219
146.81197,0.55123
146.57090,0.55189
146.32983,0.55279
146.08876,0.55211
145.84769,0.55010
145.60662,0.54949
145.36555,0.55230
145.12448,0.55743
144.88340,0.56199
144.64233,0.56469
144.40126,0.56712
144.16019,0.57142
143.91912,0.57726
143.67805,0.58167
143.43698,0.58177
143.19591,0.57765
142.95484,0.57164
142.71377,0.56515
142.47270,0.55776
142.23163,0.54940
141.99056,0.54140
141.74949,0.53433
141.50842,0.52701
141.26735,0.51876
141.02628,0.51098
140.78521,0.50524
140.54413,0.50140
140.30306,0.49828
140.06199,0.49531
139.82092,0.49310
139.57985,0.49266
139.33878,0.49430
139.09771,0.49721
138.85664,0.50021
138.61557,0.50309
138.37450,0.50676
138.13343,0.51227
137.89236,0.51985
137.65129,0.52874
137.41022,0.53777
137.16915,0.54648
136.92808,0.55567
136.68701,0.56635
136.44594,0.57869
136.20486,0.59271
135.96379,0.60872
135.72272,0.62635
135.48165,0.64474
135.24058,0.66409
134.99951,0.68524
134.75844,0.70778
134.51737,0.73005
134.27630,0.75102
134.03523,0.77094
133.79416,0.79070
133.55309,0.81117
133.31202,0.83323
133.07095,0.85787
132.82988,0.88455
132.58881,0.90983
132.34774,0.93005
132.10667,0.94495
131.86559,0.95620
131.62452,0.96483
131.38345,0.97182
131.14238,0.97783
130.90131,0.98219
130.66024,0.98466
130.41917,0.98681
130.17810,0.98879
129.93703,0.98746
129.69596,0.98057
129.45489,0.96904
129.21382,0.95375
128.97275,0.93360
128.73168,0.90871
128.49061,0.88300
128.24954,0.86090
128.00847,0.84230
127.76740,0.82313
127.52632,0.80064
127.28525,0.77562
127.04418,0.74997
126.80311,0.72545
126.56204,0.70409
126.32097,0.68728
126.07990,0.67405
125.83883,0.66181
125.59776,0.64863
125.35669,0.63427
125.11562,0.61955
124.87455,0.60529
124.63348,0.59154
124.39241,0.57779
124.15134,0.56450
123.91027,0.55330
123.66920,0.54505
123.42812,0.53828
123.18705,0.53058
122.94598,0.52125
122.70491,0.51150
122.46384,0.50253
122.22277,0.49469
121.98170,0.48843
121.74063,0.48468
121.49956,0.48337
121.25849,0.48290
121.01742,0.48196
120.77635,0.48120
120.53528,0.48229
120.29421,0.48606
120.05314,0.49231
119.81207,0.50102
119.57100,0.51271
119.32993,0.52758
119.08885,0.54477
118.84778,0.56341
118.60671,0.58367
118.36564,0.60619
118.12457,0.63115
117.88350,0.65846
117.64243,0.68778
117.40136,0.71734
117.16029,0.74364
116.91922,0.76340
116.67815,0.77527
116.43708,0.77964
116.19601,0.77849
115.95494,0.77523
115.71387,0.77242
115.47280,0.76929
115.23173,0.76324
114.99066,0.75408
114.74958,0.74452
114.50851,0.73681
114.26744,0.73107
114.02637,0.72663
113.78530,0.72269
113.54423,0.71809
113.30316,0.71243
113.06209,0.70737
112.82102,0.70546
112.57995,0.70733
112.33888,0.71090
112.09781,0.71421
111.85674,0.71825
111.61567,0.72582
111.37460,0.73749
111.13353,0.74989
110.89246,0.75819
110.65139,0.75977
110.41031,0.75532
110.16924,0.74692
109.92817,0.73610
109.68710,0.72336
109.44603,0.70996
109.20496,0.69895
108.96389,0.69263
108.72282,0.68961
108.48175,0.68511
108.24068,0.67388
107.99961,0.65403
107.75854,0.62937
107.51747,0.60623
107.27640,0.58778
107.03533,0.57242
106.79426,0.55766
106.55319,0.54335
106.31212,0.53007
106.07104,0.51660
105.82997,0.50073
105.58890,0.48255
105.34783,0.46566
105.10676,0.45417
104.86569,0.44895
104.62462,0.44681
104.38355,0.44306
104.14248,0.43453
103.90141,0.42088
103.66034,0.40482
103.41927,0.39102
103.17820,0.38319
102.93713,0.38128
102.69606,0.38136
102.45499,0.37857
102.21392,0.37097
101.97285,0.36034
101.73177,0.35016
101.49070,0.34364
101.24963,0.34188
101.00856,0.34290
100.76749,0.34262
100.52642,0.33784
100.28535,0.32910
100.04428,0.32043
99.80321,0.31561
99.56214,0.31436
99.32107,0.31277
99.08000,0.30794
98.83893,0.30129
98.59786,0.29645
98.35679,0.29530
98.11572,0.29643
97.87465,0.29634
97.63358,0.29256
97.39250,0.28665
97.15143,0.28314
96.91036,0.28459
96.66929,0.28842
96.42822,0.29025
96.18715,0.29045
95.94608,0.29366
95.70501,0.30177
95.46394,0.31075
95.22287,0.31606
94.98180,0.31914
94.74073,0.32421
94.49966,0.33101
94.25859,0.33513
94.01752,0.33468
93.77645,0.33277
93.53538,0.33241
93.29431,0.33311
93.05323,0.33317
92.81216,0.33273
92.57109,0.33269
92.33002,0.33193
92.08895,0.32899
91.84788,0.32625
91.60681,0.32802
91.36574,0.33414
91.12467,0.34097
90.88360,0.34882
90.64253,0.36160
90.40146,0.38003
90.16039,0.40300
89.91932,0.43246
89.67825,0.46895
89.43718,0.50736
89.19611,0.54444
88.95504,0.58310
88.71396,0.62329
88.47289,0.65789
88.23182,0.68141
87.99075,0.69338
87.74968,0.69373
87.50861,0.68250
87.26754,0.66183
87.02647,0.63468
86.78540,0.60328
86.54433,0.57044
86.30326,0.54031
86.06219,0.51552
85.82112,0.49406
85.58005,0.47175
85.33898,0.44762
85.09791,0.42405
84.85684,0.40287
84.61577,0.38407
84.37469,0.36731
84.13362,0.35309
83.89255,0.34211
83.65148,0.33398
83.41041,0.32671
83.16934,0.31824
82.92827,0.30810
82.68720,0.29730
82.44613,0.28719
82.20506,0.27845
81.96399,0.27114
81.72292,0.26539
81.48185,0.26152
81.24078,0.25907
80.99971,0.25676
80.75864,0.25371
80.51757,0.25005
80.27650,0.24633
80.03542,0.24303
79.79435,0.24042
79.55328,0.23844
79.31221,0.23661
79.07114,0.23434
78.83007,0.23162
78.58900,0.22902
78.34793,0.22698
78.10686,0.22525
77.86579,0.22339
77.62472,0.22092
77.38365,0.21728
77.14258,0.21251
76.90151,0.20776
76.66044,0.20455
76.41937,0.20331
76.17830,0.20317
75.93723,0.20306
75.69615,0.20247
75.45508,0.20119
75.21401,0.19915
74.97294,0.19680
74.73187,0.19506
74.49080,0.19458
74.24973,0.19535
74.00866,0.19698
73.76759,0.19879
73.52652,0.19986
73.28545,0.19930
73.04438,0.19670
72.80331,0.19284
72.56224,0.18961
72.32117,0.18877
72.08010,0.19079
71.83903,0.19472
71.59796,0.19847
71.35688,0.19984
71.11581,0.19821
70.87474,0.19481
70.63367,0.19160
70.39260,0.19104
70.15153,0.19602
69.91046,0.20859
69.66939,0.22858
69.42832,0.25247
69.18725,0.27347
68.94618,0.28445
68.70511,0.28285
68.46404,0.27156
68.22297,0.25541
67.98190,0.23826
67.74083,0.22256
67.49976,0.20958
67.25869,0.19928
67.01761,0.19039
66.77654,0.18160
66.53547,0.17299
66.29440,0.16610
66.05333,0.16228
65.81226,0.16165
65.57119,0.16364
65.33012,0.16777
65.08905,0.17376
64.84798,0.18156
64.60691,0.19154
64.36584,0.20387
64.12477,0.21710
63.88370,0.22768
63.64263,0.23210
63.40156,0.22958
63.16049,0.22256
62.91942,0.21461
62.67834,0.20773
62.43727,0.20168
62.19620,0.19542
61.95513,0.18873
61.71406,0.18221
61.47299,0.17622
61.23192,0.17055
60.99085,0.16511
60.74978,0.16033
60.50871,0.15669
60.26764,0.15420
60.02657,0.15282
59.78550,0.15285
59.54443,0.15383
59.30336,0.15431
59.06229,0.15406
58.82122,0.15517
58.58015,0.16004
58.33907,0.16965
58.09800,0.18342
57.85693,0.19918
57.61586,0.21280
57.37479,0.21891
57.13372,0.21373
56.89265,0.19843
56.65158,0.17848
56.41051,0.15960
56.16944,0.14546
55.92837,0.13801
55.68730,0.13823
55.44623,0.14596
55.20516,0.15927
54.96409,0.17452
54.72302,0.18694
54.48195,0.19167
54.24088,0.18620
53.99980,0.17306
53.75873,0.15939
53.51766,0.15300
53.27659,0.15873
53.03552,0.17745
52.79445,0.20506
52.55338,0.22810
52.31231,0.22667
52.07124,0.19865
51.83017,0.16568
51.58910,0.14713
51.34803,0.14979
51.10696,0.17051
50.86589,0.19596
50.62482,0.20494
50.38375,0.18841
50.14268,0.16339
49.90161,0.15322
49.66053,0.16911
49.41946,0.20282
49.17839,0.22125
48.93732,0.19975
48.69625,0.16818
48.45518,0.16304
48.21411,0.19164
47.97304,0.22378
47.73197,0.21737
47.49090,0.18998
47.24983,0.18251
47.00876,0.20000
46.76769,0.20720
46.52662,0.18473
46.28555,0.16643
46.04448,0.17197
45.80341,0.18210
45.56234,0.17994
45.32126,0.18197
45.08019,0.19599
44.83912,0.20162
44.59805,0.19164
44.35698,0.18494
44.11591,0.18783
43.87484,0.19151
43.63377,0.19574
43.39270,0.20331
43.15163,0.20904
42.91056,0.21035
42.66949,0.21253
42.42842,0.21752
42.18735,0.22044
41.94628,0.21687
41.70521,0.20827
41.46414,0.19965
41.22307,0.19402
40.98199,0.19157
40.74092,0.19215
40.49985,0.19500
40.25878,0.19859
40.01771,0.20336
39.77664,0.21019
39.53557,0.21466
39.29450,0.21095
39.05343,0.20249
38.81236,0.20079
38.57129,0.21270
38.33022,0.23196
38.08915,0.24633
37.84808,0.25326
37.60701,0.25864
37.36594,0.26196
37.12487,0.25747
36.88380,0.24648
36.64272,0.23570
36.40165,0.22996
36.16058,0.22913
35.91951,0.22958
35.67844,0.22849
35.43737,0.22484
35.19630,0.21661
34.95523,0.20398
34.71416,0.19450
34.47309,0.19438
34.23202,0.19725
33.99095,0.19317
33.74988,0.18369
33.50881,0.17777
33.26774,0.17481
33.02667,0.16523
32.78560,0.14851
32.54453,0.13475
32.30345,0.12828
32.06238,0.12301
31.82131,0.11382
31.58024,0.10024
31.33917,0.08178
31.09810,0.06027
30.85703,0.04198
30.61596,0.03103
30.37489,0.02397
30.13382,0.01345
29.89275,-0.00242
29.65168,-0.01686
29.41061,-0.02302
29.16954,-0.02429
28.92847,-0.03295
28.68740,-0.05459
28.44633,-0.08352
28.20526,-0.11243
27.96418,-0.13408
27.72311,-0.14520
27.48204,-0.15381
27.24097,-0.16861
26.99990,-0.18569
26.75883,-0.18982
26.51776,-0.17545
26.27669,-0.15882
26.03562,-0.15625
25.79455,-0.16697
25.55348,-0.18231
25.31241,-0.19719
25.07134,-0.20871
24.83027,-0.21178
24.58920,-0.20387
24.34813,-0.19212
24.10706,-0.18994
23.86599,-0.20575
23.62491,-0.23615
23.38384,-0.26893
23.14277,-0.29220
22.90170,-0.30162
22.66063,-0.30213
22.41956,-0.30065
22.17849,-0.29969
21.93742,-0.29960
21.69635,-0.29995
21.45528,-0.29902
21.21421,-0.29513
20.97314,-0.28889
20.73207,-0.28341
20.49100,-0.28308
20.24993,-0.29340
20.00886,-0.31831
19.76779,-0.35405
19.52672,-0.38676
19.28564,-0.40230
19.04457,-0.40172
18.80350,-0.40223
18.56243,-0.41501
18.32136,-0.42845
18.08029,-0.42688
17.83922,-0.41531
17.59815,-0.40743
17.35708,-0.40598
17.11601,-0.40842
16.87494,-0.41233
16.63387,-0.41207
16.39280,-0.40352
16.15173,-0.39658
15.91066,-0.40840
15.66959,-0.43958
15.42852,-0.46918
15.18745,-0.47536
14.94637,-0.45465
14.70530,-0.42066
14.46423,-0.39170
14.22316,-0.37745
13.98209,-0.37188
13.74102,-0.36543
13.49995,-0.36072
13.25888,-0.36785
13.01781,-0.39242
12.77674,-0.42855
12.53567,-0.45541
12.29460,-0.45313
12.05353,-0.42839
11.81246,-0.40175
11.57139,-0.38411
11.33032,-0.37821
11.08925,-0.38286
10.84818,-0.39426
10.60710,-0.40848
10.36603,-0.42020
10.12496,-0.42072
9.88389,-0.40733
9.64282,-0.39194
9.40175,-0.39007
9.16068,-0.40441
8.91961,-0.41970
8.67854,-0.41987
8.43747,-0.40865
8.19640,-0.39967
7.95533,-0.39880
7.71426,-0.40404
7.47319,-0.41022
7.23212,-0.40851
6.99105,-0.39629
6.74998,-0.38277
6.50891,-0.37391
6.26783,-0.36560
6.02676,-0.35358
5.78569,-0.33978
5.54462,-0.33122
5.30355,-0.33381
5.06248,-0.34319
4.82141,-0.35250
4.58034,-0.36500
4.33927,-0.37962
4.09820,-0.38120
3.85713,-0.36658
3.61606,-0.34832
3.37499,-0.33253
3.13392,-0.32503
2.89285,-0.32971
2.65178,-0.33873
2.41071,-0.34307
2.16964,-0.34380
1.92856,-0.34318
1.68749,-0.34413
1.44642,-0.35244
1.20535,-0.36149
0.96428,-0.36324
0.72321,-0.38008
0.48214,-0.45630
0.24107,-0.49420
-0.00000,-0.12346
