399.69498,1.40653
399.45391,1.40352
399.21284,1.40243
398.97177,1.40350
398.73070,1.40728
398.48963,1.41235
398.24856,1.41718
398.00749,1.42137
397.76642,1.42371
397.52535,1.42442
397.28428,1.42656
397.04321,1.43031
396.80214,1.42996
396.56107,1.42142
396.32000,1.40957
396.07892,1.40359
395.83785,1.40766
395.59678,1.41836
395.35571,1.42823
395.11464,1.43049
394.87357,1.42322
394.63250,1.41113
394.39143,1.40194
394.15036,1.39985
393.90929,1.40349
393.66822,1.40939
393.42715,1.41446
393.18608,1.41505
392.94501,1.40690
392.70394,1.39027
392.46287,1.37447
392.22180,1.36991
391.98073,1.37563
391.73965,1.38079
391.49858,1.37864
391.25751,1.37231
391.01644,1.36596
390.77537,1.35888
390.53430,1.34865
390.29323,1.33626
390.05216,1.32710
389.81109,1.32585
389.57002,1.33153
389.32895,1.33933
389.08788,1.34561
388.84681,1.34911
388.60574,1.34943
388.36467,1.34701
388.12360,1.34272
387.88253,1.33637
387.64146,1.32769
387.40038,1.31840
387.15931,1.31085
386.91824,1.30377
386.67717,1.29356
386.43610,1.28081
386.19503,1.27067
385.95396,1.26417
385.71289,1.25434
385.47182,1.23632
385.23075,1.21716
384.98968,1.20804
384.74861,1.21145
384.50754,1.21996
384.26647,1.22421
384.02540,1.22199
383.78433,1.21723
383.54326,1.21083
383.30219,1.19901
383.06111,1.18191
382.82004,1.16642
382.57897,1.15897
382.33790,1.15874
382.09683,1.15940
381.85576,1.15778
381.61469,1.15591
381.37362,1.15443
381.13255,1.15015
380.89148,1.14193
380.65041,1.13366
380.40934,1.12920
380.16827,1.12950
379.92720,1.13427
379.68613,1.14132
379.44506,1.14791
379.20399,1.15447
378.96292,1.16090
378.72184,1.16255
378.48077,1.15858
378.23970,1.15849
377.99863,1.16984
377.75756,1.18675
377.51649,1.19857
377.27542,1.20588
377.03435,1.21636
376.79328,1.22967
376.55221,1.23901
376.31114,1.24303
376.07007,1.24652
375.82900,1.25298
375.58793,1.26141
375.34686,1.26751
375.10579,1.26905
374.86472,1.26914
374.62365,1.27087
374.38257,1.27270
374.14150,1.27222
373.90043,1.27153
373.65936,1.27306
373.41829,1.27403
373.17722,1.27228
372.93615,1.27247
372.69508,1.27981
372.45401,1.29257
372.21294,1.30423
371.97187,1.31001
371.73080,1.30933
371.48973,1.30430
371.24866,1.29887
371.00759,1.29741
370.76652,1.29933
370.52545,1.29780
370.28437,1.28958
370.04330,1.28107
369.80223,1.27877
369.56116,1.28106
369.32009,1.28378
369.07902,1.28664
368.83795,1.28955
368.59688,1.29042
368.35581,1.29014
368.11474,1.29147
367.87367,1.29223
367.63260,1.28736
367.39153,1.27606
367.15046,1.26151
366.90939,1.24755
366.66832,1.23816
366.42725,1.23561
366.18618,1.23747
365.94510,1.23903
365.70403,1.23846
365.46296,1.23700
365.22189,1.23524
364.98082,1.23168
364.73975,1.22563
364.49868,1.21981
364.25761,1.21840
364.01654,1.22136
363.77547,1.22325
363.53440,1.21975
363.29333,1.21279
363.05226,1.20574
362.81119,1.19758
362.57012,1.18767
362.32905,1.18074
362.08798,1.18001
361.84691,1.18071
361.60583,1.17737
361.36476,1.17199
361.12369,1.16874
360.88262,1.16719
360.64155,1.16555
360.40048,1.16503
360.15941,1.16699
359.91834,1.17049
359.67727,1.17457
359.43620,1.17930
359.19513,1.18301
358.95406,1.18266
358.71299,1.17858
358.47192,1.17438
358.23085,1.17073
357.98978,1.16415
357.74871,1.15378
357.50764,1.14450
357.26656,1.14113
357.02549,1.14295
356.78442,1.14549
356.54335,1.14587
356.30228,1.14480
356.06121,1.14459
355.82014,1.14661
355.57907,1.14981
355.33800,1.15065
355.09693,1.14577
354.85586,1.13632
354.61479,1.12824
354.37372,1.12629
354.13265,1.12963
353.89158,1.13426
353.65051,1.13800
353.40944,1.14107
353.16837,1.14276
352.92729,1.14142
352.68622,1.13798
352.44515,1.13571
352.20408,1.13607
351.96301,1.13746
351.72194,1.13802
351.48087,1.13706
351.23980,1.13468
350.99873,1.13291
350.75766,1.13483
350.51659,1.13993
350.27552,1.14311
350.03445,1.14141
349.79338,1.13874
349.55231,1.14008
349.31124,1.14386
349.07017,1.14381
348.82910,1.13713
348.58802,1.12834
348.34695,1.12391
348.10588,1.12554
347.86481,1.13032
347.62374,1.13537
347.38267,1.14068
347.14160,1.14729
346.90053,1.15382
346.65946,1.15690
346.41839,1.15524
346.17732,1.15115
345.93625,1.14784
345.69518,1.14748
345.45411,1.15146
345.21304,1.15911
344.97197,1.16689
344.73090,1.17203
344.48983,1.17547
344.24875,1.17855
344.00768,1.17890
343.76661,1.17384
343.52554,1.16684
343.28447,1.16625
343.04340,1.17621
342.80233,1.19186
342.56126,1.20414
342.32019,1.20723
342.07912,1.20244
341.83805,1.19626
341.59698,1.19462
341.35591,1.19879
341.11484,1.20481
340.87377,1.20821
340.63270,1.20948
340.39163,1.21220
340.15056,1.21756
339.90948,1.22374
339.66841,1.22943
339.42734,1.23500
339.18627,1.23969
338.94520,1.24103
338.70413,1.23882
338.46306,1.23754
338.22199,1.24122
337.98092,1.24674
337.73985,1.24691
337.49878,1.24148
337.25771,1.23868
337.01664,1.24351
336.77557,1.25058
336.53450,1.25163
336.29343,1.24622
336.05236,1.24051
335.81129,1.23837
335.57021,1.23902
335.32914,1.24053
335.08807,1.24071
334.84700,1.23702
334.60593,1.23007
334.36486,1.22452
334.12379,1.22338
333.88272,1.22453
333.64165,1.22435
333.40058,1.22149
333.15951,1.21637
332.91844,1.20945
332.67737,1.20206
332.43630,1.19747
332.19523,1.19821
331.95416,1.20238
331.71309,1.20372
331.47202,1.19625
331.23094,1.18000
330.98987,1.16196
330.74880,1.15006
330.50773,1.14625
330.26666,1.14719
330.02559,1.15040
329.78452,1.15496
329.54345,1.15741
329.30238,1.15423
329.06131,1.14827
328.82024,1.14522
328.57917,1.14535
328.33810,1.14545
328.09703,1.14550
327.85596,1.14576
327.61489,1.14191
327.37382,1.13226
327.13275,1.12460
326.89167,1.12731
326.65060,1.13845
326.40953,1.14774
326.16846,1.14834
325.92739,1.14329
325.68632,1.13921
325.44525,1.13792
325.20418,1.13650
324.96311,1.13362
324.72204,1.13235
324.48097,1.13639
324.23990,1.14351
323.99883,1.14561
323.75776,1.13857
323.51669,1.12765
323.27562,1.12067
323.03455,1.12158
322.79348,1.13030
322.55240,1.14283
322.31133,1.15146
322.07026,1.15218
321.82919,1.15054
321.58812,1.15398
321.34705,1.16205
321.10598,1.16820
320.86491,1.16993
320.62384,1.17096
320.38277,1.17385
320.14170,1.17668
319.90063,1.17461
319.65956,1.16533
319.41849,1.15476
319.17742,1.15156
318.93635,1.15610
318.69528,1.16054
318.45421,1.15965
318.21313,1.15567
317.97206,1.15224
317.73099,1.15025
317.48992,1.14965
317.24885,1.15020
317.00778,1.15051
316.76671,1.15047
316.52564,1.15332
316.28457,1.16063
316.04350,1.16715
315.80243,1.16610
315.56136,1.15793
315.32029,1.14941
315.07922,1.14690
314.83815,1.15201
314.59708,1.15967
314.35601,1.16389
314.11494,1.16668
313.87386,1.17472
313.63279,1.18819
313.39172,1.19960
313.15065,1.20307
312.90958,1.19824
312.66851,1.18869
312.42744,1.18008
312.18637,1.17728
311.94530,1.18138
311.70423,1.18847
311.46316,1.19341
311.22209,1.19483
310.98102,1.19595
310.73995,1.20093
310.49888,1.21081
310.25781,1.22263
310.01674,1.23102
309.77567,1.23196
309.53459,1.22739
309.29352,1.22385
309.05245,1.22470
308.81138,1.22609
308.57031,1.22298
308.32924,1.21630
308.08817,1.21223
307.84710,1.21545
307.60603,1.22305
307.36496,1.22626
307.12389,1.22120
306.88282,1.21439
306.64175,1.21427
306.40068,1.22207
306.15961,1.23231
305.91854,1.23855
305.67747,1.23735
305.43640,1.22987
305.19532,1.22117
304.95425,1.21613
304.71318,1.21623
304.47211,1.22006
304.23104,1.22617
303.98997,1.23393
303.74890,1.24042
303.50783,1.24094
303.26676,1.23565
303.02569,1.23162
302.78462,1.23448
302.54355,1.24186
302.30248,1.24796
302.06141,1.24984
301.82034,1.24757
301.57927,1.24256
301.33820,1.23699
301.09713,1.23262
300.85605,1.22920
300.61498,1.22487
300.37391,1.21765
300.13284,1.20770
299.89177,1.19832
299.65070,1.19320
299.40963,1.19275
299.16856,1.19425
298.92749,1.19552
298.68642,1.19683
298.44535,1.19844
298.20428,1.19830
297.96321,1.19331
297.72214,1.18338
297.48107,1.17238
297.24000,1.16388
296.99893,1.15788
296.75786,1.15204
296.51678,1.14547
296.27571,1.14015
296.03464,1.13931
295.79357,1.14415
295.55250,1.15082
295.31143,1.15298
295.07036,1.14935
294.82929,1.14496
294.58822,1.14274
294.34715,1.13950
294.10608,1.13239
293.86501,1.12417
293.62394,1.11916
293.38287,1.11785
293.14180,1.11809
292.90073,1.11877
292.65966,1.11921
292.41859,1.11741
292.17751,1.11222
291.93644,1.10625
291.69537,1.10334
291.45430,1.10385
291.21323,1.10508
290.97216,1.10603
290.73109,1.10839
290.49002,1.11173
290.24895,1.11154
290.00788,1.10523
289.76681,1.09639
289.52574,1.08984
289.28467,1.08616
289.04360,1.08352
288.80253,1.08189
288.56146,1.08256
288.32039,1.08522
288.07932,1.08769
287.83824,1.08825
287.59717,1.08681
287.35610,1.08437
287.11503,1.08225
286.87396,1.08087
286.63289,1.07888
286.39182,1.07531
286.15075,1.07253
285.90968,1.07324
285.66861,1.07516
285.42754,1.07332
285.18647,1.06732
284.94540,1.06154
284.70433,1.05870
284.46326,1.05786
284.22219,1.05780
283.98112,1.05820
283.74005,1.05810
283.49897,1.05654
283.25790,1.05416
283.01683,1.05205
282.77576,1.05011
282.53469,1.04821
282.29362,1.04713
282.05255,1.04689
281.81148,1.04606
281.57041,1.04400
281.32934,1.04208
281.08827,1.04173
280.84720,1.04309
280.60613,1.04580
280.36506,1.04938
280.12399,1.05299
279.88292,1.05607
279.64185,1.05848
279.40078,1.05916
279.15970,1.05669
278.91863,1.05218
278.67756,1.04917
278.43649,1.04962
278.19542,1.05170
277.95435,1.05250
277.71328,1.05153
277.47221,1.05018
277.23114,1.04965
276.99007,1.05014
276.74900,1.05055
276.50793,1.04930
276.26686,1.04714
276.02579,1.04749
275.78472,1.05146
275.54365,1.05554
275.30258,1.05638
275.06151,1.05504
274.82043,1.05460
274.57936,1.05619
274.33829,1.05797
274.09722,1.05717
273.85615,1.05336
273.61508,1.04951
273.37401,1.04898
273.13294,1.05253
272.89187,1.05850
272.65080,1.06425
272.40973,1.06812
272.16866,1.07075
271.92759,1.07350
271.68652,1.07604
271.44545,1.07667
271.20438,1.07497
270.96331,1.07309
270.72224,1.07357
270.48116,1.07588
270.24009,1.07693
269.99902,1.07575
269.75795,1.07512
269.51688,1.07766
269.27581,1.08289
269.03474,1.08818
268.79367,1.09103
268.55260,1.09139
268.31153,1.09184
268.07046,1.09466
267.82939,1.09977
267.58832,1.10589
267.34725,1.11180
267.10618,1.11648
266.86511,1.11961
266.62404,1.12188
266.38297,1.12454
266.14189,1.12859
265.90082,1.13435
265.65975,1.14152
265.41868,1.14993
265.17761,1.15946
264.93654,1.16889
264.69547,1.17657
264.45440,1.18209
264.21333,1.18584
263.97226,1.18834
263.73119,1.19190
263.49012,1.19950
263.24905,1.21073
263.00798,1.22222
262.76691,1.23260
262.52584,1.24339
262.28477,1.25471
262.04370,1.26456
261.80262,1.27346
261.56155,1.28433
261.32048,1.29675
261.07941,1.30685
260.83834,1.31415
260.59727,1.32402
260.35620,1.34081
260.11513,1.36225
259.87406,1.38253
259.63299,1.39864
259.39192,1.41432
259.15085,1.43615
258.90978,1.46425
258.66871,1.49183
258.42764,1.51318
258.18657,1.52739
257.94550,1.53702
257.70443,1.54818
257.46335,1.56658
257.22228,1.58925
256.98121,1.60685
256.74014,1.61764
256.49907,1.62953
256.25800,1.64873
256.01693,1.67407
255.77586,1.70169
255.53479,1.72822
255.29372,1.74687
255.05265,1.74696
254.81158,1.72506
254.57051,1.69075
254.32944,1.65979
254.08837,1.64552
253.84730,1.65188
253.60623,1.66872
253.36516,1.67836
253.12408,1.67138
252.88301,1.65351
252.64194,1.63734
252.40087,1.63094
252.15980,1.63347
251.91873,1.63785
251.67766,1.63851
251.43659,1.63450
251.19552,1.62453
250.95445,1.60786
250.71338,1.59057
250.47231,1.58124
250.23124,1.57939
249.99017,1.57701
249.74910,1.57146
249.50803,1.56722
249.26696,1.56586
249.02589,1.56385
248.78481,1.56001
248.54374,1.55749
248.30267,1.55683
248.06160,1.55534
247.82053,1.55291
247.57946,1.55290
247.33839,1.56043
247.09732,1.57868
246.85625,1.60272
246.61518,1.61993
246.37411,1.62271
246.13304,1.61748
245.89197,1.61330
245.65090,1.60939
245.40983,1.60454
245.16876,1.60792
244.92769,1.62743
244.68661,1.65883
244.44554,1.69244
244.20447,1.72271
243.96340,1.74964
243.72233,1.77609
243.48126,1.80593
243.24019,1.84603
242.99912,1.90025
242.75805,1.95476
242.51698,1.98822
242.27591,1.99106
242.03484,1.93873
241.79377,1.86051
241.55270,1.79944
241.31163,1.75021
241.07056,1.69243
240.82949,1.62580
240.58842,1.56707
240.34734,1.52884
240.10627,1.50752
239.86520,1.48622
239.62413,1.45390
239.38306,1.41655
239.14199,1.38307
238.90092,1.35283
238.65985,1.32183
238.41878,1.29115
238.17771,1.26341
237.93664,1.23796
237.69557,1.21390
237.45450,1.19284
237.21343,1.17544
236.97236,1.15910
236.73129,1.14273
236.49022,1.12909
236.24915,1.11981
236.00807,1.11197
235.76700,1.10134
235.52593,1.08715
235.28486,1.07171
235.04379,1.05707
234.80272,1.04375
234.56165,1.03155
234.32058,1.02038
234.07951,1.00986
233.83844,0.99931
233.59737,0.98944
233.35630,0.98286
233.11523,0.98131
232.87416,0.98273
232.63309,0.98226
232.39202,0.97665
232.15095,0.96699
231.90988,0.95607
231.66880,0.94492
231.42773,0.93387
231.18666,0.92441
230.94559,0.91807
230.70452,0.91457
230.46345,0.91234
230.22238,0.91003
229.98131,0.90639
229.74024,0.90033
229.49917,0.89240
229.25810,0.88464
229.01703,0.87788
228.77596,0.87145
228.53489,0.86573
228.29382,0.86226
228.05275,0.86089
227.81168,0.85947
227.57061,0.85667
227.32953,0.85285
227.08846,0.84847
226.84739,0.84349
226.60632,0.83784
226.36525,0.83230
226.12418,0.82851
225.88311,0.82741
225.64204,0.82750
225.40097,0.82601
225.15990,0.82205
224.91883,0.81758
224.67776,0.81499
224.43669,0.81419
224.19562,0.81300
223.95455,0.81027
223.71348,0.80728
223.47241,0.80592
223.23134,0.80654
222.99026,0.80802
222.74919,0.80924
222.50812,0.81027
222.26705,0.81220
222.02598,0.81560
221.78491,0.81942
221.54384,0.82201
221.30277,0.82310
221.06170,0.82418
220.82063,0.82658
220.57956,0.83029
220.33849,0.83478
220.09742,0.83992
219.85635,0.84536
219.61528,0.85012
219.37421,0.85397
219.13314,0.85816
218.89207,0.86388
218.65099,0.87120
218.40992,0.87994
218.16885,0.89042
217.92778,0.90262
217.68671,0.91496
217.44564,0.92445
217.20457,0.92962
216.96350,0.93271
216.72243,0.93699
216.48136,0.94334
216.24029,0.95110
215.99922,0.95973
215.75815,0.96816
215.51708,0.97515
215.27601,0.98130
215.03494,0.98860
214.79387,0.99826
214.55280,1.00975
214.31172,1.02118
214.07065,1.02994
213.82958,1.03399
213.58851,1.03336
213.34744,1.03124
213.10637,1.03311
212.86530,1.04277
212.62423,1.05774
212.38316,1.07021
212.14209,1.07471
211.90102,1.07336
211.65995,1.07148
211.41888,1.07172
211.17781,1.07436
210.93674,1.07926
210.69567,1.08478
210.45460,1.08773
210.21353,1.08734
209.97245,1.08712
209.73138,1.09036
209.49031,1.09502
209.24924,1.09568
209.00817,1.09018
208.76710,1.08149
208.52603,1.07342
208.28496,1.06731
208.04389,1.06301
207.80282,1.06112
207.56175,1.06181
207.32068,1.06288
207.07961,1.06205
206.83854,1.05958
206.59747,1.05576
206.35640,1.04869
206.11533,1.03821
205.87426,1.02850
205.63318,1.02293
205.39211,1.02010
205.15104,1.01701
204.90997,1.01248
204.66890,1.00603
204.42783,0.99738
204.18676,0.98833
203.94569,0.98134
203.70462,0.97611
203.46355,0.97040
203.22248,0.96359
202.98141,0.95651
202.74034,0.94818
202.49927,0.93609
202.25820,0.92014
202.01713,0.90369
201.77606,0.89050
201.53499,0.88178
201.29391,0.87595
201.05284,0.87023
200.81177,0.86211
200.57070,0.85070
200.32963,0.83765
200.08856,0.82625
199.84749,0.81854
199.60642,0.81328
199.36535,0.80706
199.12428,0.79820
198.88321,0.78862
198.64214,0.78065
198.40107,0.77372
198.16000,0.76590
197.91893,0.75755
197.67786,0.75072
197.43679,0.74537
197.19572,0.73843
196.95464,0.72778
196.71357,0.71565
196.47250,0.70628
196.23143,0.70098
195.99036,0.69699
195.74929,0.69145
195.50822,0.68478
195.26715,0.67898
195.02608,0.67408
194.78501,0.66826
194.54394,0.66044
194.30287,0.65189
194.06180,0.64520
193.82073,0.64163
193.57966,0.63927
193.33859,0.63481
193.09752,0.62773
192.85645,0.62067
192.61537,0.61537
192.37430,0.61115
192.13323,0.60733
191.89216,0.60387
191.65109,0.59972
191.41002,0.59399
191.16895,0.58812
190.92788,0.58394
190.68681,0.58097
190.44574,0.57774
190.20467,0.57441
189.96360,0.57209
189.72253,0.57098
189.48146,0.57013
189.24039,0.56872
188.99932,0.56673
188.75825,0.56447
188.51718,0.56193
188.27610,0.55896
188.03503,0.55601
187.79396,0.55371
187.55289,0.55191
187.31182,0.55006
187.07075,0.54799
186.82968,0.54583
186.58861,0.54391
186.34754,0.54280
186.10647,0.54258
185.86540,0.54258
185.62433,0.54220
185.38326,0.54128
185.14219,0.53974
184.90112,0.53826
184.66005,0.53823
184.41898,0.53969
184.17791,0.54090
183.93683,0.54110
183.69576,0.54134
183.45469,0.54219
183.21362,0.54303
182.97255,0.54325
182.73148,0.54244
182.49041,0.54049
182.24934,0.53884
182.00827,0.53949
181.76720,0.54234
181.52613,0.54489
181.28506,0.54506
181.04399,0.54329
180.80292,0.54160
180.56185,0.54106
180.32078,0.54099
180.07971,0.54085
179.83864,0.54187
179.59756,0.54540
179.35649,0.55072
179.11542,0.55596
178.87435,0.56045
178.63328,0.56500
178.39221,0.57050
178.15114,0.57730
177.91007,0.58548
177.66900,0.59462
177.42793,0.60363
177.18686,0.61171
176.94579,0.61944
176.70472,0.62798
176.46365,0.63782
176.22258,0.64855
175.98151,0.65927
175.74044,0.66942
175.49937,0.68009
175.25829,0.69326
175.01722,0.70902
174.77615,0.72468
174.53508,0.73729
174.29401,0.74608
174.05294,0.75258
173.81187,0.75950
173.57080,0.76898
173.32973,0.78126
173.08866,0.79507
172.84759,0.80855
172.60652,0.81946
172.36545,0.82569
172.12438,0.82688
171.88331,0.82490
171.64224,0.82181
171.40117,0.81814
171.16010,0.81431
170.91902,0.81221
170.67795,0.81307
170.43688,0.81482
170.19581,0.81413
169.95474,0.81058
169.71367,0.80611
169.47260,0.80146
169.23153,0.79617
168.99046,0.79083
168.74939,0.78726
168.50832,0.78642
168.26725,0.78714
168.02618,0.78694
167.78511,0.78424
167.54404,0.77989
167.30297,0.77625
167.06190,0.77498
166.82083,0.77601
166.57975,0.77822
166.33868,0.78031
166.09761,0.78127
165.85654,0.78086
165.61547,0.78003
165.37440,0.78014
165.13333,0.78174
164.89226,0.78495
164.65119,0.79084
164.41012,0.80031
164.16905,0.81134
163.92798,0.81962
163.68691,0.82321
163.44584,0.82446
163.20477,0.82676
162.96370,0.83140
162.72263,0.83766
162.48156,0.84364
162.24048,0.84739
161.99941,0.84848
161.75834,0.84864
161.51727,0.85002
161.27620,0.85290
161.03513,0.85576
160.79406,0.85739
160.55299,0.85776
160.31192,0.85678
160.07085,0.85391
159.82978,0.84976
159.58871,0.84644
159.34764,0.84521
159.10657,0.84530
158.86550,0.84508
158.62443,0.84390
158.38336,0.84226
158.14229,0.84101
157.90121,0.84083
157.66014,0.84167
157.41907,0.84225
157.17800,0.84077
156.93693,0.83673
156.69586,0.83154
156.45479,0.82698
156.21372,0.82366
155.97265,0.82093
155.73158,0.81755
155.49051,0.81256
155.24944,0.80613
155.00837,0.79972
154.76730,0.79506
154.52623,0.79226
154.28516,0.78945
154.04409,0.78479
153.80302,0.77807
153.56194,0.77003
153.32087,0.76136
153.07980,0.75226
152.83873,0.74204
152.59766,0.72976
152.35659,0.71648
152.11552,0.70524
151.87445,0.69730
151.63338,0.68990
151.39231,0.67950
151.15124,0.66650
150.91017,0.65453
150.66910,0.64539
150.42803,0.63721
150.18696,0.62757
149.94589,0.61682
149.70482,0.60721
149.46375,0.59971
149.22267,0.59282
148.98160,0.58441
148.74053,0.57444
148.49946,0.56526
148.25839,0.55878
148.01732,0.55429
147.77625,0.54998
147.53518,0.54559
147.29411,0.54236
147.05304,0.54077
146.81197,0.53997
146.57090,0.53899
146.32983,0.53766
146.08876,0.53703
145.84769,0.53858
145.60662,0.54252
145.36555,0.54728
145.12448,0.55141
144.88340,0.55480
144.64233,0.55763
144.40126,0.55979
144.16019,0.56194
143.91912,0.56490
143.67805,0.56751
143.43698,0.56730
143.19591,0.56374
142.95484,0.55878
142.71377,0.55375
142.47270,0.54791
142.23163,0.54044
141.99056,0.53228
141.74949,0.52463
141.50842,0.51724
141.26735,0.50971
141.02628,0.50305
140.78521,0.49823
140.54413,0.49465
140.30306,0.49158
140.06199,0.48967
139.82092,0.48963
139.57985,0.49105
139.33878,0.49325
139.09771,0.49566
138.85664,0.49760
138.61557,0.49922
138.37450,0.50197
138.13343,0.50688
137.89236,0.51347
137.65129,0.52102
137.41022,0.52955
137.16915,0.53915
136.92808,0.54968
136.68701,0.56115
136.44594,0.57375
136.20486,0.58746
135.96379,0.60238
135.72272,0.61912
135.48165,0.63828
135.24058,0.65919
134.99951,0.68035
134.75844,0.70143
134.51737,0.72379
134.27630,0.74822
134.03523,0.77361
133.79416,0.79868
133.55309,0.82357
133.31202,0.84848
133.07095,0.87219
132.82988,0.89322
132.58881,0.91232
132.34774,0.93166
132.10667,0.95109
131.86559,0.96741
131.62452,0.97834
131.38345,0.98489
131.14238,0.98966
130.90131,0.99472
130.66024,1.00093
130.41917,1.00708
130.17810,1.00994
129.93703,1.00562
129.69596,0.99173
129.45489,0.97001
129.21382,0.94607
128.97275,0.92505
128.73168,0.90828
128.49061,0.89355
128.24954,0.87728
128.00847,0.85711
127.76740,0.83408
127.52632,0.81095
127.28525,0.78852
127.04418,0.76598
126.80311,0.74387
126.56204,0.72388
126.32097,0.70612
126.07990,0.68924
125.83883,0.67220
125.59776,0.65457
125.35669,0.63629
125.11562,0.61825
124.87455,0.60176
124.63348,0.58687
124.39241,0.57244
124.15134,0.55803
123.91027,0.54449
123.66920,0.53277
123.42812,0.52319
123.18705,0.51582
122.94598,0.51044
122.70491,0.50624
122.46384,0.50211
122.22277,0.49720
121.98170,0.49102
121.74063,0.48353
121.49956,0.47578
121.25849,0.46980
121.01742,0.46726
120.77635,0.46836
120.53528,0.47239
120.29421,0.47894
120.05314,0.48790
119.81207,0.49897
119.57100,0.51214
119.32993,0.52783
119.08885,0.54611
118.84778,0.56684
118.60671,0.59030
118.36564,0.61636
118.12457,0.64341
117.88350,0.66948
117.64243,0.69367
117.40136,0.71574
117.16029,0.73535
116.91922,0.75190
116.67815,0.76500
116.43708,0.77554
116.19601,0.78553
115.95494,0.79479
115.71387,0.79873
115.47280,0.79243
115.23173,0.77691
114.99066,0.75896
114.74958,0.74527
114.50851,0.73833
114.26744,0.73670
114.02637,0.73722
113.78530,0.73681
113.54423,0.73361
113.30316,0.72763
113.06209,0.72037
112.82102,0.71354
112.57995,0.70842
112.33888,0.70597
112.09781,0.70736
111.85674,0.71385
111.61567,0.72560
111.37460,0.73961
111.13353,0.74991
110.89246,0.75232
110.65139,0.74825
110.41031,0.74262
110.16924,0.73987
109.92817,0.74134
109.68710,0.74406
109.44603,0.74167
109.20496,0.72860
108.96389,0.70568
108.72282,0.68004
108.48175,0.65956
108.24068,0.64784
107.99961,0.64215
107.75854,0.63504
107.51747,0.61990
107.27640,0.59670
107.03533,0.57179
106.79426,0.55217
106.55319,0.54051
106.31212,0.53416
106.07104,0.52736
105.82997,0.51502
105.58890,0.49644
105.34783,0.47656
105.10676,0.46170
104.86569,0.45377
104.62462,0.44914
104.38355,0.44250
104.14248,0.43208
103.90141,0.42073
103.66034,0.41182
103.41927,0.40573
103.17820,0.40025
102.93713,0.39330
102.69606,0.38471
102.45499,0.37581
102.21392,0.36813
101.97285,0.36226
101.73177,0.35709
101.49070,0.35062
101.24963,0.34273
101.00856,0.33604
100.76749,0.33294
100.52642,0.33233
100.28535,0.33033
100.04428,0.32461
99.80321,0.31737
99.56214,0.31272
99.32107,0.31156
99.08000,0.31043
98.83893,0.30552
98.59786,0.29781
98.35679,0.29218
98.11572,0.29128
97.87465,0.29210
97.63358,0.28980
97.39250,0.28462
97.15143,0.28182
96.91036,0.28391
96.66929,0.28736
96.42822,0.28872
96.18715,0.29033
95.94608,0.29564
95.70501,0.30262
95.46394,0.30715
95.22287,0.31029
94.98180,0.31602
94.74073,0.32363
94.49966,0.32892
94.25859,0.33143
94.01752,0.33405
93.77645,0.33661
93.53538,0.33651
93.29431,0.33445
93.05323,0.33351
92.81216,0.33428
92.57109,0.33516
92.33002,0.33538
92.08895,0.33495
91.84788,0.33443
91.60681,0.33534
91.36574,0.33840
91.12467,0.34329
90.88360,0.35159
90.64253,0.36624
90.40146,0.38736
90.16039,0.41306
89.91932,0.44318
89.67825,0.47798
89.43718,0.51590
89.19611,0.55610
88.95504,0.59880
88.71396,0.64089
88.47289,0.67606
88.23182,0.70008
87.99075,0.71149
87.74968,0.70867
87.50861,0.69145
87.26754,0.66411
87.02647,0.63343
86.78540,0.60375
86.54433,0.57585
86.30326,0.54946
86.06219,0.52418
85.82112,0.49902
85.58005,0.47352
85.33898,0.44858
85.09791,0.42522
84.85684,0.40386
84.61577,0.38468
84.37469,0.36756
84.13362,0.35238
83.89255,0.33969
83.65148,0.32976
83.41041,0.32108
83.16934,0.31133
82.92827,0.30010
82.68720,0.28931
82.44613,0.28091
82.20506,0.27498
81.96399,0.27057
81.72292,0.26732
81.48185,0.26516
81.24078,0.26338
80.99971,0.26135
80.75864,0.25925
80.51757,0.25704
80.27650,0.25389
80.03542,0.24978
79.79435,0.24599
79.55328,0.24356
79.31221,0.24227
79.07114,0.24134
78.83007,0.24041
78.58900,0.23932
78.34793,0.23740
78.10686,0.23363
77.86579,0.22779
77.62472,0.22127
77.38365,0.21608
77.14258,0.21320
76.90151,0.21208
76.66044,0.21171
76.41937,0.21148
76.17830,0.21119
75.93723,0.21069
75.69615,0.20960
75.45508,0.20714
75.21401,0.20281
74.97294,0.19764
74.73187,0.19423
74.49080,0.19450
74.24973,0.19775
74.00866,0.20143
73.76759,0.20377
73.52652,0.20483
73.28545,0.20509
73.04438,0.20446
72.80331,0.20300
72.56224,0.20136
72.32117,0.19989
72.08010,0.19840
71.83903,0.19685
71.59796,0.19518
71.35688,0.19295
71.11581,0.19021
70.87474,0.18851
70.63367,0.19010
70.39260,0.19641
70.15153,0.20787
69.91046,0.22388
69.66939,0.24243
69.42832,0.25972
69.18725,0.27142
68.94618,0.27541
68.70511,0.27285
68.46404,0.26574
68.22297,0.25479
67.98190,0.24099
67.74083,0.22707
67.49976,0.21562
67.25869,0.20697
67.01761,0.19994
66.77654,0.19357
66.53547,0.18754
66.29440,0.18192
66.05333,0.17706
65.81226,0.17372
65.57119,0.17284
65.33012,0.17507
65.08905,0.18040
64.84798,0.18808
64.60691,0.19689
64.36584,0.20592
64.12477,0.21504
63.88370,0.22372
63.64263,0.22976
63.40156,0.23072
63.16049,0.22673
62.91942,0.22111
62.67834,0.21731
62.43727,0.21559
62.19620,0.21328
61.95513,0.20815
61.71406,0.20054
61.47299,0.19167
61.23192,0.18174
60.99085,0.17057
60.74978,0.15921
60.50871,0.15010
60.26764,0.14562
60.02657,0.14643
59.78550,0.15107
59.54443,0.15785
59.30336,0.16704
59.06229,0.17995
58.82122,0.19513
58.58015,0.20713
58.33907,0.21048
58.09800,0.20449
57.85693,0.19306
57.61586,0.18039
57.37479,0.16911
57.13372,0.16144
56.89265,0.16004
56.65158,0.16638
56.41051,0.17801
56.16944,0.18788
55.92837,0.18853
55.68730,0.17864
55.44623,0.16411
55.20516,0.15330
54.96409,0.15260
54.72302,0.16428
54.48195,0.18465
54.24088,0.20289
53.99980,0.20593
53.75873,0.19277
53.51766,0.17665
53.27659,0.17046
53.03552,0.17977
52.79445,0.20206
52.55338,0.22263
52.31231,0.22064
52.07124,0.19690
51.83017,0.17423
51.58910,0.16913
51.34803,0.18189
51.10696,0.19696
50.86589,0.19517
50.62482,0.17952
50.38375,0.17056
50.14268,0.18225
49.90161,0.20858
49.66053,0.22098
49.41946,0.20406
49.17839,0.18615
48.93732,0.19525
48.69625,0.22378
48.45518,0.23410
48.21411,0.21865
47.97304,0.21261
47.73197,0.22808
47.49090,0.23800
47.24983,0.22310
47.00876,0.20935
46.76769,0.21300
46.52662,0.21500
46.28555,0.20397
46.04448,0.19575
45.80341,0.19646
45.56234,0.19723
45.32126,0.19681
45.08019,0.19936
44.83912,0.20236
44.59805,0.20378
44.35698,0.20652
44.11591,0.21109
43.87484,0.21764
43.63377,0.22769
43.39270,0.23854
43.15163,0.24702
42.91056,0.25453
42.66949,0.25983
42.42842,0.25807
42.18735,0.24941
41.94628,0.23851
41.70521,0.22905
41.46414,0.22330
41.22307,0.22208
40.98199,0.22433
40.74092,0.22764
40.49985,0.22885
40.25878,0.22709
40.01771,0.22528
39.77664,0.22464
39.53557,0.22329
39.29450,0.22251
39.05343,0.22649
38.81236,0.23730
38.57129,0.25427
38.33022,0.27233
38.08915,0.28199
37.84808,0.28188
37.60701,0.28164
37.36594,0.28459
37.12487,0.28366
36.88380,0.27438
36.64272,0.26198
36.40165,0.25485
36.16058,0.25639
35.91951,0.26259
35.67844,0.26554
35.43737,0.25962
35.19630,0.24635
34.95523,0.23291
34.71416,0.22565
34.47309,0.22338
34.23202,0.21832
33.99095,0.20456
33.74988,0.18365
33.50881,0.16273
33.26774,0.14793
33.02667,0.14018
32.78560,0.13650
32.54453,0.13183
32.30345,0.12211
32.06238,0.10919
31.82131,0.09995
31.58024,0.09725
31.33917,0.09493
31.09810,0.08588
30.85703,0.07116
30.61596,0.05811
30.37489,0.05132
30.13382,0.04830
29.89275,0.04363
29.65168,0.03377
29.41061,0.01975
29.16954,0.00700
28.92847,-0.00180
28.68740,-0.01483
28.44633,-0.04244
28.20526,-0.08080
27.96418,-0.11305
27.72311,-0.12574
27.48204,-0.12104
27.24097,-0.11058
26.99990,-0.10386
26.75883,-0.10592
26.51776,-0.11814
26.27669,-0.13624
26.03562,-0.15174
25.79455,-0.16054
25.55348,-0.16679
25.31241,-0.17551
25.07134,-0.18636
24.83027,-0.19544
24.58920,-0.19975
24.34813,-0.20131
24.10706,-0.20645
23.86599,-0.21976
23.62491,-0.23781
23.38384,-0.25231
23.14277,-0.26060
22.90170,-0.26592
22.66063,-0.27232
22.41956,-0.28090
22.17849,-0.28773
21.93742,-0.28946
21.69635,-0.28606
21.45528,-0.27884
21.21421,-0.27221
20.97314,-0.27304
20.73207,-0.28296
20.49100,-0.29547
20.24993,-0.30530
20.00886,-0.31608
19.76779,-0.33223
19.52672,-0.34827
19.28564,-0.35569
19.04457,-0.35336
18.80350,-0.34860
18.56243,-0.34772
18.32136,-0.34869
18.08029,-0.35037
17.83922,-0.35750
17.59815,-0.37221
17.35708,-0.38926
17.11601,-0.40373
16.87494,-0.41933
16.63387,-0.44226
16.39280,-0.46743
16.15173,-0.48043
15.91066,-0.47865
15.66959,-0.47246
15.42852,-0.45957
15.18745,-0.43606
14.94637,-0.40938
14.70530,-0.39094
14.46423,-0.38571
14.22316,-0.38960
13.98209,-0.39604
13.74102,-0.40058
13.49995,-0.40206
13.25888,-0.40246
13.01781,-0.40713
12.77674,-0.41809
12.53567,-0.42390
12.29460,-0.41270
12.05353,-0.39514
11.81246,-0.39398
11.57139,-0.41579
11.33032,-0.44338
11.08925,-0.45586
10.84818,-0.44859
10.60710,-0.44159
10.36603,-0.45164
10.12496,-0.46755
9.88389,-0.47234
9.64282,-0.46187
9.40175,-0.43645
9.16068,-0.40766
8.91961,-0.39431
8.67854,-0.40343
8.43747,-0.42559
8.19640,-0.44246
7.95533,-0.44128
7.71426,-0.42772
7.47319,-0.41536
7.23212,-0.40886
6.99105,-0.40538
6.74998,-0.40423
6.50891,-0.40554
6.26783,-0.40664
6.02676,-0.40390
5.78569,-0.39344
5.54462,-0.37916
5.30355,-0.37459
5.06248,-0.38588
4.82141,-0.40265
4.58034,-0.41332
4.33927,-0.41564
4.09820,-0.41244
3.85713,-0.41116
3.61606,-0.41394
3.37499,-0.41173
3.13392,-0.40330
2.89285,-0.39872
2.65178,-0.39926
2.41071,-0.39827
2.16964,-0.39562
1.92856,-0.39302
1.68749,-0.39174
1.44642,-0.39532
1.20535,-0.39694
0.96428,-0.39178
0.72321,-0.40168
0.48214,-0.48515
0.24107,-0.59696
-0.00000,-0.23715
