399.69498,1.56093
399.45391,1.57630
399.21284,1.58135
398.97177,1.56974
398.73070,1.54477
398.48963,1.51866
398.24856,1.50176
398.00749,1.49827
397.76642,1.50782
397.52535,1.52574
397.28428,1.54445
397.04321,1.55657
396.80214,1.55839
396.56107,1.55112
396.32000,1.53967
396.07892,1.53062
395.83785,1.52826
395.59678,1.53394
395.35571,1.54951
395.11464,1.57320
394.87357,1.59059
394.63250,1.58578
394.39143,1.56600
394.15036,1.55267
393.90929,1.55299
393.66822,1.55900
393.42715,1.56277
393.18608,1.56009
392.94501,1.54892
392.70394,1.53238
392.46287,1.51723
392.22180,1.50721
391.98073,1.50245
391.73965,1.50218
391.49858,1.50434
391.25751,1.50537
391.01644,1.50195
390.77537,1.49269
390.53430,1.48027
390.29323,1.47154
390.05216,1.47231
389.81109,1.48004
389.57002,1.48446
389.32895,1.47940
389.08788,1.46937
388.84681,1.46272
388.60574,1.46391
388.36467,1.47060
388.12360,1.47361
387.88253,1.46473
387.64146,1.44775
387.40038,1.43454
387.15931,1.42961
386.91824,1.42787
386.67717,1.42696
386.43610,1.43077
386.19503,1.44006
385.95396,1.44850
385.71289,1.44936
385.47182,1.44218
385.23075,1.42947
384.98968,1.40914
384.74861,1.37919
384.50754,1.34814
384.26647,1.33092
384.02540,1.33662
383.78433,1.35799
383.54326,1.37319
383.30219,1.36699
383.06111,1.34746
382.82004,1.33301
382.57897,1.32791
382.33790,1.32064
382.09683,1.30438
381.85576,1.28725
381.61469,1.27937
381.37362,1.27986
381.13255,1.27961
380.89148,1.27451
380.65041,1.27012
380.40934,1.27042
380.16827,1.27297
379.92720,1.27838
379.68613,1.29161
379.44506,1.30898
379.20399,1.31649
378.96292,1.30729
378.72184,1.29000
378.48077,1.27856
378.23970,1.28036
377.99863,1.29633
377.75756,1.32192
377.51649,1.34327
377.27542,1.34814
377.03435,1.34317
376.79328,1.34390
376.55221,1.35451
376.31114,1.36577
376.07007,1.37205
375.82900,1.37855
375.58793,1.38664
375.34686,1.39049
375.10579,1.39179
374.86472,1.39855
374.62365,1.40962
374.38257,1.41366
374.14150,1.40525
373.90043,1.39413
373.65936,1.39257
373.41829,1.40068
373.17722,1.40797
372.93615,1.40764
372.69508,1.40550
372.45401,1.41058
372.21294,1.42268
371.97187,1.43356
371.73080,1.43695
371.48973,1.43419
371.24866,1.42967
371.00759,1.42378
370.76652,1.41569
370.52545,1.40699
370.28437,1.39891
370.04330,1.39226
369.80223,1.39054
369.56116,1.39614
369.32009,1.40462
369.07902,1.40817
368.83795,1.40409
368.59688,1.39422
368.35581,1.37857
368.11474,1.35985
367.87367,1.34736
367.63260,1.34631
367.39153,1.34979
367.15046,1.34943
366.90939,1.34685
366.66832,1.34509
366.42725,1.33958
366.18618,1.32785
365.94510,1.31692
365.70403,1.31379
365.46296,1.31795
365.22189,1.32554
364.98082,1.33371
364.73975,1.33864
364.49868,1.33501
364.25761,1.32411
364.01654,1.31592
363.77547,1.31620
363.53440,1.31828
363.29333,1.31433
363.05226,1.30795
362.81119,1.30575
362.57012,1.30579
362.32905,1.30367
362.08798,1.30154
361.84691,1.30331
361.60583,1.30842
361.36476,1.31376
361.12369,1.31692
360.88262,1.31662
360.64155,1.31185
360.40048,1.30398
360.15941,1.29884
359.91834,1.29964
359.67727,1.30163
359.43620,1.29982
359.19513,1.29597
358.95406,1.29252
358.71299,1.28773
358.47192,1.28242
358.23085,1.28263
357.98978,1.29103
357.74871,1.30097
357.50764,1.30354
357.26656,1.29786
357.02549,1.28976
356.78442,1.28365
356.54335,1.27924
356.30228,1.27490
356.06121,1.27213
355.82014,1.27476
355.57907,1.28192
355.33800,1.28480
355.09693,1.27667
354.85586,1.26417
354.61479,1.25936
354.37372,1.26382
354.13265,1.26846
353.89158,1.26757
353.65051,1.26565
353.40944,1.26843
353.16837,1.27413
352.92729,1.27734
352.68622,1.27684
352.44515,1.27629
352.20408,1.27917
351.96301,1.28427
351.72194,1.28628
351.48087,1.28225
351.23980,1.27645
350.99873,1.27460
350.75766,1.27584
350.51659,1.27563
350.27552,1.27277
350.03445,1.26925
349.79338,1.26689
349.55231,1.26815
349.31124,1.27534
349.07017,1.28684
348.82910,1.29841
348.58802,1.30661
348.34695,1.30872
348.10588,1.30352
347.86481,1.29413
347.62374,1.28616
347.38267,1.28282
347.14160,1.28436
346.90053,1.28943
346.65946,1.29568
346.41839,1.30193
346.17732,1.30874
345.93625,1.31569
345.69518,1.32003
345.45411,1.31954
345.21304,1.31603
344.97197,1.31450
344.73090,1.31851
344.48983,1.32657
344.24875,1.33263
344.00768,1.33199
343.76661,1.32689
343.52554,1.32290
343.28447,1.32134
343.04340,1.32058
342.80233,1.32311
342.56126,1.33209
342.32019,1.34389
342.07912,1.35321
341.83805,1.36137
341.59698,1.37021
341.35591,1.37359
341.11484,1.36503
340.87377,1.35029
340.63270,1.34280
340.39163,1.34948
340.15056,1.36584
339.90948,1.38220
339.66841,1.39310
339.42734,1.39833
339.18627,1.39829
338.94520,1.39470
338.70413,1.39245
338.46306,1.39306
338.22199,1.39175
337.98092,1.38531
337.73985,1.37774
337.49878,1.37711
337.25771,1.38806
337.01664,1.40554
336.77557,1.41705
336.53450,1.41621
336.29343,1.41030
336.05236,1.41031
335.81129,1.41883
335.57021,1.42484
335.32914,1.41505
335.08807,1.39311
334.84700,1.37480
334.60593,1.36750
334.36486,1.36406
334.12379,1.35683
333.88272,1.34982
333.64165,1.34888
333.40058,1.35169
333.15951,1.35227
332.91844,1.34720
332.67737,1.33571
332.43630,1.32100
332.19523,1.31245
331.95416,1.31768
331.71309,1.33072
331.47202,1.33567
331.23094,1.32610
330.98987,1.31224
330.74880,1.30512
330.50773,1.30389
330.26666,1.30142
330.02559,1.29691
329.78452,1.29629
329.54345,1.30146
329.30238,1.30771
329.06131,1.31147
328.82024,1.31261
328.57917,1.31038
328.33810,1.30475
328.09703,1.29700
327.85596,1.28763
327.61489,1.28051
327.37382,1.28283
327.13275,1.29429
326.89167,1.30366
326.65060,1.30141
326.40953,1.29036
326.16846,1.27986
325.92739,1.27547
325.68632,1.27688
325.44525,1.28157
325.20418,1.28831
324.96311,1.29736
324.72204,1.30708
324.48097,1.31307
324.23990,1.31258
323.99883,1.30898
323.75776,1.30911
323.51669,1.31489
323.27562,1.32252
323.03455,1.33031
322.79348,1.33851
322.55240,1.34218
322.31133,1.33506
322.07026,1.32048
321.82919,1.30869
321.58812,1.30378
321.34705,1.30252
321.10598,1.30377
320.86491,1.31148
320.62384,1.32686
320.38277,1.34184
320.14170,1.34784
319.90063,1.34444
319.65956,1.33464
319.41849,1.32389
319.17742,1.31663
318.93635,1.31308
318.69528,1.31424
318.45421,1.32198
318.21313,1.33291
317.97206,1.33941
317.73099,1.33890
317.48992,1.33711
317.24885,1.33722
317.00778,1.33478
316.76671,1.32892
316.52564,1.32579
316.28457,1.32856
316.04350,1.33354
315.80243,1.33583
315.56136,1.33448
315.32029,1.33266
315.07922,1.33427
314.83815,1.33780
314.59708,1.33629
314.35601,1.32896
314.11494,1.32335
313.87386,1.32387
313.63279,1.32839
313.39172,1.33576
313.15065,1.34633
312.90958,1.35424
312.66851,1.35373
312.42744,1.35086
312.18637,1.35280
311.94530,1.35801
311.70423,1.36104
311.46316,1.35983
311.22209,1.35900
310.98102,1.36174
310.73995,1.36419
310.49888,1.36369
310.25781,1.36515
310.01674,1.37578
309.77567,1.39307
309.53459,1.40281
309.29352,1.39517
309.05245,1.37841
308.81138,1.36985
308.57031,1.37654
308.32924,1.39209
308.08817,1.40657
307.84710,1.41387
307.60603,1.41076
307.36496,1.39652
307.12389,1.37793
306.88282,1.36679
306.64175,1.36774
306.40068,1.37441
306.15961,1.37817
305.91854,1.37312
305.67747,1.35948
305.43640,1.34800
305.19532,1.35008
304.95425,1.36317
304.71318,1.37440
304.47211,1.37604
304.23104,1.37129
303.98997,1.36656
303.74890,1.36140
303.50783,1.34996
303.26676,1.33172
303.02569,1.31585
302.78462,1.31178
302.54355,1.31887
302.30248,1.32827
302.06141,1.33269
301.82034,1.33182
301.57927,1.32931
301.33820,1.32783
301.09713,1.32815
300.85605,1.33084
300.61498,1.33683
300.37391,1.34414
300.13284,1.34539
299.89177,1.33584
299.65070,1.32046
299.40963,1.30608
299.16856,1.29467
298.92749,1.28598
298.68642,1.28024
298.44535,1.27797
298.20428,1.27830
297.96321,1.27890
297.72214,1.27805
297.48107,1.27534
297.24000,1.26973
296.99893,1.26053
296.75786,1.25082
296.51678,1.24482
296.27571,1.24261
296.03464,1.24205
295.79357,1.24469
295.55250,1.25260
295.31143,1.26042
295.07036,1.25889
294.82929,1.24658
294.58822,1.23116
294.34715,1.21997
294.10608,1.21543
293.86501,1.21639
293.62394,1.21919
293.38287,1.21952
293.14180,1.21558
292.90073,1.20875
292.65966,1.20154
292.41859,1.19516
292.17751,1.19000
291.93644,1.18655
291.69537,1.18482
291.45430,1.18421
291.21323,1.18384
290.97216,1.18330
290.73109,1.18274
290.49002,1.18208
290.24895,1.18087
290.00788,1.17912
289.76681,1.17754
289.52574,1.17633
289.28467,1.17496
289.04360,1.17426
288.80253,1.17609
288.56146,1.17946
288.32039,1.17971
288.07932,1.17406
287.83824,1.16568
287.59717,1.16114
287.35610,1.16478
287.11503,1.17353
286.87396,1.17804
286.63289,1.17337
286.39182,1.16519
286.15075,1.16073
285.90968,1.16038
285.66861,1.16015
285.42754,1.15857
285.18647,1.15816
284.94540,1.16036
284.70433,1.16276
284.46326,1.16263
284.22219,1.16019
283.98112,1.15759
283.74005,1.15692
283.49897,1.15918
283.25790,1.16290
283.01683,1.16393
282.77576,1.16011
282.53469,1.15482
282.29362,1.15236
282.05255,1.15301
281.81148,1.15395
281.57041,1.15311
281.32934,1.15119
281.08827,1.15050
280.84720,1.15240
280.60613,1.15501
280.36506,1.15453
280.12399,1.15002
279.88292,1.14514
279.64185,1.14455
279.40078,1.15003
279.15970,1.15917
278.91863,1.16656
278.67756,1.16729
278.43649,1.16090
278.19542,1.15193
277.95435,1.14620
277.71328,1.14649
277.47221,1.15130
277.23114,1.15686
276.99007,1.16023
276.74900,1.16085
276.50793,1.15981
276.26686,1.15833
276.02579,1.15686
275.78472,1.15508
275.54365,1.15267
275.30258,1.15000
275.06151,1.14807
274.82043,1.14890
274.57936,1.15478
274.33829,1.16448
274.09722,1.17222
273.85615,1.17381
273.61508,1.17125
273.37401,1.16853
273.13294,1.16651
272.89187,1.16399
272.65080,1.16109
272.40973,1.16011
272.16866,1.16323
271.92759,1.16965
271.68652,1.17584
271.44545,1.17974
271.20438,1.18277
270.96331,1.18672
270.72224,1.19133
270.48116,1.19534
270.24009,1.19753
269.99902,1.19720
269.75795,1.19556
269.51688,1.19564
269.27581,1.19995
269.03474,1.20794
268.79367,1.21604
268.55260,1.22247
268.31153,1.23081
268.07046,1.24396
267.82939,1.25704
267.58832,1.26149
267.34725,1.25590
267.10618,1.24834
266.86511,1.24696
266.62404,1.25324
266.38297,1.26367
266.14189,1.27457
265.90082,1.28476
265.65975,1.29488
265.41868,1.30438
265.17761,1.30961
264.93654,1.30813
264.69547,1.30525
264.45440,1.31045
264.21333,1.32633
263.97226,1.34624
263.73119,1.36318
263.49012,1.37573
263.24905,1.38464
263.00798,1.39145
262.76691,1.40131
262.52584,1.41971
262.28477,1.44564
262.04370,1.47133
261.80262,1.48977
261.56155,1.49963
261.32048,1.50290
261.07941,1.50394
260.83834,1.51115
260.59727,1.53173
260.35620,1.56420
260.11513,1.59790
259.87406,1.62436
259.63299,1.64827
259.39192,1.68088
259.15085,1.72649
258.90978,1.77313
258.66871,1.79753
258.42764,1.79445
258.18657,1.78370
257.94550,1.78515
257.70443,1.80389
257.46335,1.82874
257.22228,1.84232
256.98121,1.83774
256.74014,1.82427
256.49907,1.81523
256.25800,1.81371
256.01693,1.81285
255.77586,1.80481
255.53479,1.78716
255.29372,1.76315
255.05265,1.73734
254.81158,1.71292
254.57051,1.69203
254.32944,1.67629
254.08837,1.66601
253.84730,1.66161
253.60623,1.66252
253.36516,1.65988
253.12408,1.64544
252.88301,1.62731
252.64194,1.61994
252.40087,1.62317
252.15980,1.62050
251.91873,1.60138
251.67766,1.57548
251.43659,1.55806
251.19552,1.55396
250.95445,1.55971
250.71338,1.57056
250.47231,1.58122
250.23124,1.58607
249.99017,1.58324
249.74910,1.57552
249.50803,1.56671
249.26696,1.56006
249.02589,1.55867
248.78481,1.56490
248.54374,1.57775
248.30267,1.59011
248.06160,1.59199
247.82053,1.58062
247.57946,1.56427
247.33839,1.55220
247.09732,1.54724
246.85625,1.55144
246.61518,1.56840
246.37411,1.59812
246.13304,1.63241
245.89197,1.65644
245.65090,1.66259
245.40983,1.66251
245.16876,1.67531
244.92769,1.70651
244.68661,1.74293
244.44554,1.76662
244.20447,1.77753
243.96340,1.79494
243.72233,1.82949
243.48126,1.86909
243.24019,1.90558
242.99912,1.95656
242.75805,2.01697
242.51698,2.02077
242.27591,1.95327
242.03484,1.87155
241.79377,1.78692
241.55270,1.69732
241.31163,1.61525
241.07056,1.55213
240.82949,1.50458
240.58842,1.46063
240.34734,1.41462
240.10627,1.37127
239.86520,1.33446
239.62413,1.30074
239.38306,1.26709
239.14199,1.23673
238.90092,1.21278
238.65985,1.19224
238.41878,1.16953
238.17771,1.14357
237.93664,1.11825
237.69557,1.09739
237.45450,1.08182
237.21343,1.06999
236.97236,1.05875
236.73129,1.04473
236.49022,1.02689
236.24915,1.00796
236.00807,0.99287
235.76700,0.98469
235.52593,0.98140
235.28486,0.97764
235.04379,0.97081
234.80272,0.96334
234.56165,0.95783
234.32058,0.95323
234.07951,0.94666
233.83844,0.93766
233.59737,0.92906
233.35630,0.92356
233.11523,0.92099
232.87416,0.91931
232.63309,0.91688
232.39202,0.91309
232.15095,0.90809
231.90988,0.90300
231.66880,0.89915
231.42773,0.89656
231.18666,0.89461
230.94559,0.89334
230.70452,0.89231
230.46345,0.88972
230.22238,0.88530
229.98131,0.88236
229.74024,0.88354
229.49917,0.88569
229.25810,0.88354
229.01703,0.87705
228.77596,0.87077
228.53489,0.86742
228.29382,0.86564
228.05275,0.86327
227.81168,0.86050
227.57061,0.85886
227.32953,0.85850
227.08846,0.85832
226.84739,0.85826
226.60632,0.85891
226.36525,0.85888
226.12418,0.85566
225.88311,0.84986
225.64204,0.84517
225.40097,0.84418
225.15990,0.84654
224.91883,0.85022
224.67776,0.85284
224.43669,0.85275
224.19562,0.85051
223.95455,0.84853
223.71348,0.84901
223.47241,0.85225
223.23134,0.85649
222.99026,0.85960
222.74919,0.86132
222.50812,0.86315
222.26705,0.86592
222.02598,0.86924
221.78491,0.87348
221.54384,0.87976
221.30277,0.88727
221.06170,0.89348
220.82063,0.89757
220.57956,0.90158
220.33849,0.90774
220.09742,0.91573
219.85635,0.92337
219.61528,0.92954
219.37421,0.93558
219.13314,0.94380
218.89207,0.95534
218.65099,0.96954
218.40992,0.98424
218.16885,0.99705
217.92778,1.00778
217.68671,1.01886
217.44564,1.03198
217.20457,1.04622
216.96350,1.06028
216.72243,1.07291
216.48136,1.08184
216.24029,1.08761
215.99922,1.09534
215.75815,1.10781
215.51708,1.12079
215.27601,1.13029
215.03494,1.13995
214.79387,1.15414
214.55280,1.16978
214.31172,1.18223
214.07065,1.19327
213.82958,1.20678
213.58851,1.22257
213.34744,1.23860
213.10637,1.25292
212.86530,1.26176
212.62423,1.26176
212.38316,1.25488
212.14209,1.24644
211.90102,1.23960
211.65995,1.23614
211.41888,1.23928
211.17781,1.24983
210.93674,1.26155
210.69567,1.26642
210.45460,1.26406
210.21353,1.26115
209.97245,1.26187
209.73138,1.26345
209.49031,1.26185
209.24924,1.25786
209.00817,1.25466
208.76710,1.25224
208.52603,1.24812
208.28496,1.24153
208.04389,1.23420
207.80282,1.22843
207.56175,1.22565
207.32068,1.22516
207.07961,1.22332
206.83854,1.21526
206.59747,1.19986
206.35640,1.18246
206.11533,1.16978
205.87426,1.16236
205.63318,1.15482
205.39211,1.14369
205.15104,1.13070
204.90997,1.11748
204.66890,1.10315
204.42783,1.08838
204.18676,1.07573
203.94569,1.06508
203.70462,1.05330
203.46355,1.03883
203.22248,1.02357
202.98141,1.00986
202.74034,0.99755
202.49927,0.98453
202.25820,0.97009
202.01713,0.95610
201.77606,0.94362
201.53499,0.93145
201.29391,0.91834
201.05284,0.90437
200.81177,0.89017
200.57070,0.87693
200.32963,0.86589
200.08856,0.85707
199.84749,0.84953
199.60642,0.84239
199.36535,0.83431
199.12428,0.82344
198.88321,0.80958
198.64214,0.79490
198.40107,0.78185
198.16000,0.77163
197.91893,0.76432
197.67786,0.75937
197.43679,0.75575
197.19572,0.75224
196.95464,0.74708
196.71357,0.73826
196.47250,0.72575
196.23143,0.71249
195.99036,0.70209
195.74929,0.69591
195.50822,0.69298
195.26715,0.69142
195.02608,0.68909
194.78501,0.68407
194.54394,0.67611
194.30287,0.66705
194.06180,0.65918
193.82073,0.65353
193.57966,0.64935
193.33859,0.64459
193.09752,0.63802
192.85645,0.63116
192.61537,0.62669
192.37430,0.62548
192.13323,0.62569
191.89216,0.62410
191.65109,0.61870
191.41002,0.61071
191.16895,0.60364
190.92788,0.60000
190.68681,0.59884
190.44574,0.59692
190.20467,0.59276
189.96360,0.58869
189.72253,0.58756
189.48146,0.58841
189.24039,0.58744
188.99932,0.58335
188.75825,0.57924
188.51718,0.57818
188.27610,0.57946
188.03503,0.57997
187.79396,0.57796
187.55289,0.57430
187.31182,0.57080
187.07075,0.56853
186.82968,0.56737
186.58861,0.56638
186.34754,0.56514
186.10647,0.56419
185.86540,0.56384
185.62433,0.56358
185.38326,0.56348
185.14219,0.56470
184.90112,0.56750
184.66005,0.57038
184.41898,0.57198
184.17791,0.57264
183.93683,0.57316
183.69576,0.57302
183.45469,0.57129
183.21362,0.56912
182.97255,0.56959
182.73148,0.57366
182.49041,0.57816
182.24934,0.57967
182.00827,0.57902
181.76720,0.57944
181.52613,0.58155
181.28506,0.58340
181.04399,0.58409
180.80292,0.58484
180.56185,0.58649
180.32078,0.58871
180.07971,0.59150
179.83864,0.59521
179.59756,0.59943
179.35649,0.60342
179.11542,0.60728
178.87435,0.61186
178.63328,0.61808
178.39221,0.62628
178.15114,0.63569
177.91007,0.64525
177.66900,0.65520
177.42793,0.66586
177.18686,0.67637
176.94579,0.68709
176.70472,0.70054
176.46365,0.71747
176.22258,0.73488
175.98151,0.75006
175.74044,0.76378
175.49937,0.77818
175.25829,0.79410
175.01722,0.81119
174.77615,0.82892
174.53508,0.84686
174.29401,0.86453
174.05294,0.88179
173.81187,0.89860
173.57080,0.91426
173.32973,0.92775
173.08866,0.93878
172.84759,0.94801
172.60652,0.95619
172.36545,0.96371
172.12438,0.97018
171.88331,0.97378
171.64224,0.97334
171.40117,0.97103
171.16010,0.97024
170.91902,0.97141
170.67795,0.97197
170.43688,0.97003
170.19581,0.96602
169.95474,0.96038
169.71367,0.95190
169.47260,0.93965
169.23153,0.92600
168.99046,0.91559
168.74939,0.91018
168.50832,0.90665
168.26725,0.90184
168.02618,0.89719
167.78511,0.89596
167.54404,0.89813
167.30297,0.90111
167.06190,0.90400
166.82083,0.90793
166.57975,0.91256
166.33868,0.91587
166.09761,0.91748
165.85654,0.91918
165.61547,0.92257
165.37440,0.92841
165.13333,0.93716
164.89226,0.94817
164.65119,0.95975
164.41012,0.97119
164.16905,0.98243
163.92798,0.99153
163.68691,0.99636
163.44584,0.99872
163.20477,1.00243
162.96370,1.00831
162.72263,1.01479
162.48156,1.02154
162.24048,1.02823
161.99941,1.03214
161.75834,1.03134
161.51727,1.02795
161.27620,1.02487
161.03513,1.02275
160.79406,1.02228
160.55299,1.02587
160.31192,1.03424
160.07085,1.04324
159.82978,1.04720
159.58871,1.04523
159.34764,1.04029
159.10657,1.03291
158.86550,1.01986
158.62443,1.00051
158.38336,0.98086
158.14229,0.96754
157.90121,0.96110
157.66014,0.95818
157.41907,0.95744
157.17800,0.95961
156.93693,0.96309
156.69586,0.96361
156.45479,0.95894
156.21372,0.95101
155.97265,0.94267
155.73158,0.93469
155.49051,0.92619
155.24944,0.91621
155.00837,0.90457
154.76730,0.89216
154.52623,0.88032
154.28516,0.86951
154.04409,0.85904
153.80302,0.84795
153.56194,0.83517
153.32087,0.81993
153.07980,0.80295
152.83873,0.78620
152.59766,0.77088
152.35659,0.75655
152.11552,0.74263
151.87445,0.72963
151.63338,0.71793
151.39231,0.70632
151.15124,0.69309
150.91017,0.67814
150.66910,0.66277
150.42803,0.64797
150.18696,0.63387
149.94589,0.62071
149.70482,0.60937
149.46375,0.60089
149.22267,0.59509
148.98160,0.59005
148.74053,0.58370
148.49946,0.57581
148.25839,0.56776
148.01732,0.56087
147.77625,0.55567
147.53518,0.55216
147.29411,0.55051
147.05304,0.55099
146.81197,0.55288
146.57090,0.55424
146.32983,0.55408
146.08876,0.55390
145.84769,0.55609
145.60662,0.56136
145.36555,0.56818
145.12448,0.57440
144.88340,0.57905
144.64233,0.58275
144.40126,0.58654
144.16019,0.59056
143.91912,0.59399
143.67805,0.59560
143.43698,0.59431
143.19591,0.59037
142.95484,0.58525
142.71377,0.57966
142.47270,0.57241
142.23163,0.56224
141.99056,0.55035
141.74949,0.53987
141.50842,0.53260
141.26735,0.52728
141.02628,0.52184
140.78521,0.51637
140.54413,0.51261
140.30306,0.51140
140.06199,0.51165
139.82092,0.51182
139.57985,0.51171
139.33878,0.51264
139.09771,0.51533
138.85664,0.51859
138.61557,0.52158
138.37450,0.52641
138.13343,0.53593
137.89236,0.54960
137.65129,0.56350
137.41022,0.57491
137.16915,0.58561
136.92808,0.59914
136.68701,0.61620
136.44594,0.63485
136.20486,0.65457
135.96379,0.67681
135.72272,0.70128
135.48165,0.72546
135.24058,0.74895
134.99951,0.77532
134.75844,0.80703
134.51737,0.84042
134.27630,0.86924
134.03523,0.89426
133.79416,0.92296
133.55309,0.95783
133.31202,0.99295
133.07095,1.02402
132.82988,1.05258
132.58881,1.07841
132.34774,1.09849
132.10667,1.11434
131.86559,1.13050
131.62452,1.14713
131.38345,1.16052
131.14238,1.16671
130.90131,1.16167
130.66024,1.14496
130.41917,1.12256
130.17810,1.10060
129.93703,1.07930
129.69596,1.05501
129.45489,1.02492
129.21382,0.98836
128.97275,0.94682
128.73168,0.90441
128.49061,0.86570
128.24954,0.83162
128.00847,0.79981
127.76740,0.76989
127.52632,0.74367
127.28525,0.72031
127.04418,0.69642
126.80311,0.67141
126.56204,0.64825
126.32097,0.62883
126.07990,0.61208
125.83883,0.59591
125.59776,0.57934
125.35669,0.56322
125.11562,0.54923
124.87455,0.53770
124.63348,0.52705
124.39241,0.51562
124.15134,0.50356
123.91027,0.49285
123.66920,0.48511
123.42812,0.47966
123.18705,0.47397
122.94598,0.46679
122.70491,0.45963
122.46384,0.45480
122.22277,0.45267
121.98170,0.45166
121.74063,0.45052
121.49956,0.44980
121.25849,0.45087
121.01742,0.45406
120.77635,0.45860
120.53528,0.46404
120.29421,0.47140
120.05314,0.48217
119.81207,0.49639
119.57100,0.51261
119.32993,0.53001
119.08885,0.54955
118.84778,0.57266
118.60671,0.59954
118.36564,0.62926
118.12457,0.66055
117.88350,0.69215
117.64243,0.72264
117.40136,0.74968
117.16029,0.77069
116.91922,0.78514
116.67815,0.79378
116.43708,0.79617
116.19601,0.79220
115.95494,0.78485
115.71387,0.77738
115.47280,0.76965
115.23173,0.75956
114.99066,0.74690
114.74958,0.73361
114.50851,0.72136
114.26744,0.71030
114.02637,0.69982
113.78530,0.68977
113.54423,0.68060
113.30316,0.67260
113.06209,0.66637
112.82102,0.66336
112.57995,0.66470
112.33888,0.66988
112.09781,0.67694
111.85674,0.68394
111.61567,0.69020
111.37460,0.69607
111.13353,0.70145
110.89246,0.70541
110.65139,0.70711
110.41031,0.70612
110.16924,0.70238
109.92817,0.69672
109.68710,0.69042
109.44603,0.68349
109.20496,0.67441
108.96389,0.66171
108.72282,0.64504
108.48175,0.62544
108.24068,0.60519
107.99961,0.58668
107.75854,0.57004
107.51747,0.55287
107.27640,0.53341
107.03533,0.51307
106.79426,0.49416
106.55319,0.47696
106.31212,0.46074
106.07104,0.44637
105.82997,0.43567
105.58890,0.42878
105.34783,0.42378
105.10676,0.41893
104.86569,0.41352
104.62462,0.40658
104.38355,0.39656
104.14248,0.38328
103.90141,0.36880
103.66034,0.35555
103.41927,0.34456
103.17820,0.33558
102.93713,0.32793
102.69606,0.32131
102.45499,0.31628
102.21392,0.31341
101.97285,0.31176
101.73177,0.30913
101.49070,0.30443
101.24963,0.29867
101.00856,0.29303
100.76749,0.28733
100.52642,0.28135
100.28535,0.27657
100.04428,0.27497
99.80321,0.27623
99.56214,0.27777
99.32107,0.27723
99.08000,0.27369
98.83893,0.26750
98.59786,0.26027
98.35679,0.25440
98.11572,0.25182
97.87465,0.25370
97.63358,0.26026
97.39250,0.26857
97.15143,0.27255
96.91036,0.26949
96.66929,0.26458
96.42822,0.26564
96.18715,0.27551
95.94608,0.28966
95.70501,0.30016
95.46394,0.30329
95.22287,0.30289
94.98180,0.30526
94.74073,0.31281
94.49966,0.32122
94.25859,0.32324
94.01752,0.31817
93.77645,0.31314
93.53538,0.31308
93.29431,0.31519
93.05323,0.31508
92.81216,0.31423
92.57109,0.31653
92.33002,0.32043
92.08895,0.32059
91.84788,0.31667
91.60681,0.31470
91.36574,0.31920
91.12467,0.32898
90.88360,0.34115
90.64253,0.35691
90.40146,0.38129
90.16039,0.41617
89.91932,0.45590
89.67825,0.49436
89.43718,0.53447
89.19611,0.57950
88.95504,0.62114
88.71396,0.65124
88.47289,0.67660
88.23182,0.69927
87.99075,0.70288
87.74968,0.67915
87.50861,0.64223
87.26754,0.60371
87.02647,0.56404
86.78540,0.52511
86.54433,0.49130
86.30326,0.46221
86.06219,0.43442
85.82112,0.40800
85.58005,0.38552
85.33898,0.36676
85.09791,0.34860
84.85684,0.32995
84.61577,0.31276
84.37469,0.29823
84.13362,0.28574
83.89255,0.27510
83.65148,0.26651
83.41041,0.25887
83.16934,0.25089
82.92827,0.24287
82.68720,0.23564
82.44613,0.22901
82.20506,0.22268
81.96399,0.21721
81.72292,0.21328
81.48185,0.21068
81.24078,0.20870
80.99971,0.20674
80.75864,0.20440
80.51757,0.20126
80.27650,0.19727
80.03542,0.19312
79.79435,0.18986
79.55328,0.18799
79.31221,0.18690
79.07114,0.18551
78.83007,0.18346
78.58900,0.18101
78.34793,0.17802
78.10686,0.17402
77.86579,0.16934
77.62472,0.16515
77.38365,0.16228
77.14258,0.16088
76.90151,0.16071
76.66044,0.16122
76.41937,0.16158
76.17830,0.16127
75.93723,0.16031
75.69615,0.15866
75.45508,0.15583
75.21401,0.15173
74.97294,0.14761
74.73187,0.14556
74.49080,0.14657
74.24973,0.14960
74.00866,0.15298
73.76759,0.15639
73.52652,0.16022
73.28545,0.16362
73.04438,0.16417
72.80331,0.16069
72.56224,0.15594
72.32117,0.15435
72.08010,0.15708
71.83903,0.16093
71.59796,0.16257
71.35688,0.16271
71.11581,0.16480
70.87474,0.17103
70.63367,0.17975
70.39260,0.18626
70.15153,0.18789
69.91046,0.18795
69.66939,0.19277
69.42832,0.20544
69.18725,0.22310
68.94618,0.23868
68.70511,0.24464
68.46404,0.23725
68.22297,0.21959
67.98190,0.19917
67.74083,0.18235
67.49976,0.17153
67.25869,0.16591
67.01761,0.16360
66.77654,0.16314
66.53547,0.16324
66.29440,0.16226
66.05333,0.15943
65.81226,0.15557
65.57119,0.15161
65.33012,0.14742
65.08905,0.14337
64.84798,0.14141
64.60691,0.14351
64.36584,0.14935
64.12477,0.15636
63.88370,0.16204
63.64263,0.16563
63.40156,0.16708
63.16049,0.16630
62.91942,0.16422
62.67834,0.16246
62.43727,0.16109
62.19620,0.15837
61.95513,0.15326
61.71406,0.14678
61.47299,0.14090
61.23192,0.13690
60.99085,0.13466
60.74978,0.13337
60.50871,0.13285
60.26764,0.13377
60.02657,0.13651
59.78550,0.14020
59.54443,0.14304
59.30336,0.14346
59.06229,0.14125
58.82122,0.13759
58.58015,0.13397
58.33907,0.13172
58.09800,0.13183
57.85693,0.13418
57.61586,0.13690
57.37479,0.13762
57.13372,0.13569
56.89265,0.13295
56.65158,0.13191
56.41051,0.13343
56.16944,0.13690
55.92837,0.14224
55.68730,0.15052
55.44623,0.16206
55.20516,0.17443
54.96409,0.18335
54.72302,0.18590
54.48195,0.18198
54.24088,0.17257
53.99980,0.15849
53.75873,0.14118
53.51766,0.12359
53.27659,0.10958
53.03552,0.10217
52.79445,0.10164
52.55338,0.10616
52.31231,0.11488
52.07124,0.12920
51.83017,0.14949
51.58910,0.17084
51.34803,0.18308
51.10696,0.17840
50.86589,0.16012
50.62482,0.13714
50.38375,0.11613
50.14268,0.10298
49.90161,0.10372
49.66053,0.12292
49.41946,0.16348
49.17839,0.21330
48.93732,0.22283
48.69625,0.16957
48.45518,0.10947
48.21411,0.08079
47.97304,0.09341
47.73197,0.14294
47.49090,0.19170
47.24983,0.18018
47.00876,0.13927
46.76769,0.12462
46.52662,0.14189
46.28555,0.16131
46.04448,0.15100
45.80341,0.12702
45.56234,0.12309
45.32126,0.14064
45.08019,0.14747
44.83912,0.13453
44.59805,0.13430
44.35698,0.15256
44.11591,0.15550
43.87484,0.13819
43.63377,0.13160
43.39270,0.13773
43.15163,0.13587
42.91056,0.12841
42.66949,0.13198
42.42842,0.14317
42.18735,0.14663
41.94628,0.13977
41.70521,0.13064
41.46414,0.12400
41.22307,0.12173
40.98199,0.12714
40.74092,0.14032
40.49985,0.15320
40.25878,0.15926
40.01771,0.16444
39.77664,0.17611
39.53557,0.19022
39.29450,0.20024
39.05343,0.20669
38.81236,0.21140
38.57129,0.21657
38.33022,0.22631
38.08915,0.23941
37.84808,0.24830
37.60701,0.25032
37.36594,0.24922
37.12487,0.24615
36.88380,0.23814
36.64272,0.22439
36.40165,0.20919
36.16058,0.19830
35.91951,0.19527
35.67844,0.20141
35.43737,0.21539
35.19630,0.23009
34.95523,0.23398
34.71416,0.22175
34.47309,0.20200
34.23202,0.18892
33.99095,0.18823
33.74988,0.19030
33.50881,0.18058
33.26774,0.16258
33.02667,0.15184
32.78560,0.15538
32.54453,0.16803
32.30345,0.17990
32.06238,0.18290
31.82131,0.17422
31.58024,0.15751
31.33917,0.13945
31.09810,0.12351
30.85703,0.10785
30.61596,0.09115
30.37489,0.07678
30.13382,0.06844
29.89275,0.06806
29.65168,0.07588
29.41061,0.08682
29.16954,0.09254
28.92847,0.08722
28.68740,0.07002
28.44633,0.04458
28.20526,0.01846
27.96418,0.00105
27.72311,-0.00609
27.48204,-0.01028
27.24097,-0.01499
26.99990,-0.01871
26.75883,-0.02526
26.51776,-0.04234
26.27669,-0.06946
26.03562,-0.09897
25.79455,-0.12847
25.55348,-0.15578
25.31241,-0.16563
25.07134,-0.14696
24.83027,-0.12032
24.58920,-0.11469
24.34813,-0.13299
24.10706,-0.16330
23.86599,-0.19456
23.62491,-0.21687
23.38384,-0.22831
23.14277,-0.23591
22.90170,-0.24471
22.66063,-0.25703
22.41956,-0.27165
22.17849,-0.27891
21.93742,-0.27475
21.69635,-0.27218
21.45528,-0.28499
21.21421,-0.31078
20.97314,-0.33258
20.73207,-0.33326
20.49100,-0.31792
20.24993,-0.30685
20.00886,-0.30650
19.76779,-0.30821
19.52672,-0.30885
19.28564,-0.31021
19.04457,-0.31009
18.80350,-0.31015
18.56243,-0.32094
18.32136,-0.35476
18.08029,-0.40475
17.83922,-0.43712
17.59815,-0.42664
17.35708,-0.39552
17.11601,-0.38348
16.87494,-0.39561
16.63387,-0.40716
16.39280,-0.40626
16.15173,-0.40209
15.91066,-0.39478
15.66959,-0.38115
15.42852,-0.38246
15.18745,-0.41234
14.94637,-0.45074
14.70530,-0.47672
14.46423,-0.50125
14.22316,-0.53795
13.98209,-0.56277
13.74102,-0.53973
13.49995,-0.50308
13.25888,-0.47570
13.01781,-0.45399
12.77674,-0.43354
12.53567,-0.40446
12.29460,-0.39509
12.05353,-0.43041
11.81246,-0.49428
11.57139,-0.53405
11.33032,-0.55230
11.08925,-0.56911
10.84818,-0.55160
10.60710,-0.50800
10.36603,-0.46906
10.12496,-0.46150
9.88389,-0.49065
9.64282,-0.53014
9.40175,-0.54142
9.16068,-0.51926
8.91961,-0.48758
8.67854,-0.46363
8.43747,-0.45645
8.19640,-0.46022
7.95533,-0.46097
7.71426,-0.46237
7.47319,-0.47236
7.23212,-0.48156
6.99105,-0.48362
6.74998,-0.49108
6.50891,-0.50920
6.26783,-0.52299
6.02676,-0.51975
5.78569,-0.52271
5.54462,-0.53439
5.30355,-0.51525
5.06248,-0.50780
4.82141,-0.53658
4.58034,-0.54994
4.33927,-0.52223
4.09820,-0.49010
3.85713,-0.47090
3.61606,-0.47674
3.37499,-0.49519
3.13392,-0.50990
2.89285,-0.51112
2.65178,-0.50120
2.41071,-0.48432
2.16964,-0.47169
1.92856,-0.47094
1.68749,-0.47658
1.44642,-0.48925
1.20535,-0.49299
0.96428,-0.48860
0.72321,-0.47955
0.48214,-0.48811
0.24107,-0.46219
-0.00000,-0.07107
