399.69498,1.45987
399.45391,1.45480
399.21284,1.44955
398.97177,1.44802
398.73070,1.45404
398.48963,1.46691
398.24856,1.48110
398.00749,1.49083
397.76642,1.49315
397.52535,1.48663
397.28428,1.47363
397.04321,1.46445
396.80214,1.46975
396.56107,1.48620
396.32000,1.49642
396.07892,1.49322
395.83785,1.49096
395.59678,1.50124
395.35571,1.51592
395.11464,1.51843
394.87357,1.50588
394.63250,1.48868
394.39143,1.47452
394.15036,1.46407
393.90929,1.45787
393.66822,1.45867
393.42715,1.46374
393.18608,1.46512
392.94501,1.46260
392.70394,1.46511
392.46287,1.47539
392.22180,1.48421
391.98073,1.48162
391.73965,1.46660
391.49858,1.44436
391.25751,1.42152
391.01644,1.40553
390.77537,1.40048
390.53430,1.40137
390.29323,1.39985
390.05216,1.39390
389.81109,1.38796
389.57002,1.38695
389.32895,1.39097
389.08788,1.39528
388.84681,1.39521
388.60574,1.38950
388.36467,1.38041
388.12360,1.37439
387.88253,1.37781
387.64146,1.38891
387.40038,1.39657
387.15931,1.39024
386.91824,1.37210
386.67717,1.35512
386.43610,1.34877
386.19503,1.35255
385.95396,1.35970
385.71289,1.36180
385.47182,1.35415
385.23075,1.34203
384.98968,1.33517
384.74861,1.33417
384.50754,1.32927
384.26647,1.31376
384.02540,1.29318
383.78433,1.27700
383.54326,1.26790
383.30219,1.26278
383.06111,1.25700
382.82004,1.24847
382.57897,1.24040
382.33790,1.23937
382.09683,1.24722
381.85576,1.25487
381.61469,1.25186
381.37362,1.23966
381.13255,1.22631
380.89148,1.21548
380.65041,1.20563
380.40934,1.19554
380.16827,1.18999
379.92720,1.19796
379.68613,1.22156
379.44506,1.25037
379.20399,1.27064
378.96292,1.27555
378.72184,1.26545
378.48077,1.24462
378.23970,1.22342
377.99863,1.21443
377.75756,1.22231
377.51649,1.24229
377.27542,1.26549
377.03435,1.28288
376.79328,1.28988
376.55221,1.29291
376.31114,1.30147
376.07007,1.31268
375.82900,1.31457
375.58793,1.30473
375.34686,1.29584
375.10579,1.30012
374.86472,1.31765
374.62365,1.33969
374.38257,1.35649
374.14150,1.36451
373.90043,1.36831
373.65936,1.37018
373.41829,1.36623
373.17722,1.35430
372.93615,1.33819
372.69508,1.32427
372.45401,1.31844
372.21294,1.32305
371.97187,1.33190
371.73080,1.33326
371.48973,1.32393
371.24866,1.31348
371.00759,1.31087
370.76652,1.31585
370.52545,1.32470
370.28437,1.33539
370.04330,1.34447
369.80223,1.34659
369.56116,1.34060
369.32009,1.33023
369.07902,1.31824
368.83795,1.30490
368.59688,1.29289
368.35581,1.28757
368.11474,1.28968
367.87367,1.29252
367.63260,1.29011
367.39153,1.28567
367.15046,1.28575
366.90939,1.28941
366.66832,1.29072
366.42725,1.28715
366.18618,1.28158
365.94510,1.27633
365.70403,1.27034
365.46296,1.26461
365.22189,1.26183
364.98082,1.26078
364.73975,1.25789
364.49868,1.25231
364.25761,1.24510
364.01654,1.23774
363.77547,1.23387
363.53440,1.23570
363.29333,1.23874
363.05226,1.23714
362.81119,1.23227
362.57012,1.22978
362.32905,1.23050
362.08798,1.23018
361.84691,1.22668
361.60583,1.22236
361.36476,1.21851
361.12369,1.21285
360.88262,1.20543
360.64155,1.20238
360.40048,1.20945
360.15941,1.22395
359.91834,1.23606
359.67727,1.23855
359.43620,1.23313
359.19513,1.22450
358.95406,1.21446
358.71299,1.20393
358.47192,1.19436
358.23085,1.18735
357.98978,1.18450
357.74871,1.18496
357.50764,1.18441
357.26656,1.18178
357.02549,1.18255
356.78442,1.19011
356.54335,1.19999
356.30228,1.20646
356.06121,1.20976
355.82014,1.21117
355.57907,1.20780
355.33800,1.19890
355.09693,1.19000
354.85586,1.18578
354.61479,1.18498
354.37372,1.18482
354.13265,1.18495
353.89158,1.18500
353.65051,1.18387
353.40944,1.18328
353.16837,1.18665
352.92729,1.19275
352.68622,1.19649
352.44515,1.19656
352.20408,1.19635
351.96301,1.19801
351.72194,1.20112
351.48087,1.20395
351.23980,1.20392
350.99873,1.19945
350.75766,1.19169
350.51659,1.18462
350.27552,1.18228
350.03445,1.18474
349.79338,1.18872
349.55231,1.19233
349.31124,1.19731
349.07017,1.20551
348.82910,1.21417
348.58802,1.21775
348.34695,1.21451
348.10588,1.20788
347.86481,1.20224
347.62374,1.19994
347.38267,1.20091
347.14160,1.20300
346.90053,1.20430
346.65946,1.20565
346.41839,1.20950
346.17732,1.21641
345.93625,1.22428
345.69518,1.23112
345.45411,1.23671
345.21304,1.24103
344.97197,1.24199
344.73090,1.23806
344.48983,1.23291
344.24875,1.23239
344.00768,1.23691
343.76661,1.24147
343.52554,1.24324
343.28447,1.24542
343.04340,1.25288
342.80233,1.26625
342.56126,1.28016
342.32019,1.28833
342.07912,1.28986
341.83805,1.28824
341.59698,1.28604
341.35591,1.28399
341.11484,1.28333
340.87377,1.28517
340.63270,1.28801
340.39163,1.29019
340.15056,1.29130
339.90948,1.29048
339.66841,1.28953
339.42734,1.29567
339.18627,1.31335
338.94520,1.33523
338.70413,1.34752
338.46306,1.34447
338.22199,1.33450
337.98092,1.32966
337.73985,1.33272
337.49878,1.33450
337.25771,1.32592
337.01664,1.31260
336.77557,1.30859
336.53450,1.31944
336.29343,1.33691
336.05236,1.34822
335.81129,1.34772
335.57021,1.33788
335.32914,1.32389
335.08807,1.31143
334.84700,1.30588
334.60593,1.31040
334.36486,1.32198
334.12379,1.32984
333.88272,1.32251
333.64165,1.30136
333.40058,1.28003
333.15951,1.26852
332.91844,1.26603
332.67737,1.26612
332.43630,1.26445
332.19523,1.26140
331.95416,1.25946
331.71309,1.26019
331.47202,1.26235
331.23094,1.26159
330.98987,1.25396
330.74880,1.24134
330.50773,1.23049
330.26666,1.22629
330.02559,1.22886
329.78452,1.23592
329.54345,1.24523
329.30238,1.25342
329.06131,1.25594
328.82024,1.25128
328.57917,1.24227
328.33810,1.23236
328.09703,1.22295
327.85596,1.21392
327.61489,1.20670
327.37382,1.20405
327.13275,1.20579
326.89167,1.20943
326.65060,1.21513
326.40953,1.22425
326.16846,1.23301
325.92739,1.23322
325.68632,1.22268
325.44525,1.21009
325.20418,1.20430
324.96311,1.20524
324.72204,1.20744
324.48097,1.20963
324.23990,1.21692
323.99883,1.23123
323.75776,1.24292
323.51669,1.23989
323.27562,1.22507
323.03455,1.21360
322.79348,1.21395
322.55240,1.22121
322.31133,1.22849
322.07026,1.23545
321.82919,1.24163
321.58812,1.24251
321.34705,1.23910
321.10598,1.23957
320.86491,1.24461
320.62384,1.24482
320.38277,1.23813
320.14170,1.23431
319.90063,1.23777
319.65956,1.24167
319.41849,1.24189
319.17742,1.24319
318.93635,1.24866
318.69528,1.25402
318.45421,1.25577
318.21313,1.25661
317.97206,1.25898
317.73099,1.26036
317.48992,1.25742
317.24885,1.25037
317.00778,1.24118
316.76671,1.23274
316.52564,1.22922
316.28457,1.23427
316.04350,1.24826
315.80243,1.26434
315.56136,1.27110
315.32029,1.26434
315.07922,1.25328
314.83815,1.25014
314.59708,1.25658
314.35601,1.26608
314.11494,1.27570
313.87386,1.28793
313.63279,1.30103
313.39172,1.30715
313.15065,1.30349
312.90958,1.29538
312.66851,1.28744
312.42744,1.28113
312.18637,1.28006
311.94530,1.29000
311.70423,1.31208
311.46316,1.33643
311.22209,1.34699
310.98102,1.33895
310.73995,1.32436
310.49888,1.31706
310.25781,1.31882
310.01674,1.32213
309.77567,1.32201
309.53459,1.31876
309.29352,1.31542
309.05245,1.31569
308.81138,1.32050
308.57031,1.32639
308.32924,1.32937
308.08817,1.33034
307.84710,1.33329
307.60603,1.33866
307.36496,1.34323
307.12389,1.34655
306.88282,1.35108
306.64175,1.35519
306.40068,1.35238
306.15961,1.34105
305.91854,1.32787
305.67747,1.31895
305.43640,1.31437
305.19532,1.31065
304.95425,1.30476
304.71318,1.29698
304.47211,1.29042
304.23104,1.28634
303.98997,1.28268
303.74890,1.27907
303.50783,1.27848
303.26676,1.28316
303.02569,1.29155
302.78462,1.29835
302.54355,1.29814
302.30248,1.28877
302.06141,1.27302
301.82034,1.25852
301.57927,1.25260
301.33820,1.25499
301.09713,1.25753
300.85605,1.25223
300.61498,1.23858
300.37391,1.22333
300.13284,1.21439
299.89177,1.21411
299.65070,1.21799
299.40963,1.22030
299.16856,1.21953
298.92749,1.21689
298.68642,1.21316
298.44535,1.20856
298.20428,1.20275
297.96321,1.19513
297.72214,1.18645
297.48107,1.17906
297.24000,1.17528
296.99893,1.17582
296.75786,1.17837
296.51678,1.17837
296.27571,1.17344
296.03464,1.16628
295.79357,1.16117
295.55250,1.15943
295.31143,1.15966
295.07036,1.16010
294.82929,1.15853
294.58822,1.15248
294.34715,1.14280
294.10608,1.13488
293.86501,1.13263
293.62394,1.13291
293.38287,1.12971
293.14180,1.12244
292.90073,1.11594
292.65966,1.11401
292.41859,1.11604
292.17751,1.11862
291.93644,1.11883
291.69537,1.11575
291.45430,1.10987
291.21323,1.10302
290.97216,1.09839
290.73109,1.09893
290.49002,1.10477
290.24895,1.11193
290.00788,1.11407
289.76681,1.10821
289.52574,1.09920
289.28467,1.09494
289.04360,1.09677
288.80253,1.09836
288.56146,1.09482
288.32039,1.08894
288.07932,1.08630
287.83824,1.08776
287.59717,1.08939
287.35610,1.08799
287.11503,1.08394
286.87396,1.07932
286.63289,1.07491
286.39182,1.06972
286.15075,1.06371
285.90968,1.06016
285.66861,1.06253
285.42754,1.07015
285.18647,1.07820
284.94540,1.08169
284.70433,1.07906
284.46326,1.07265
284.22219,1.06627
283.98112,1.06280
283.74005,1.06375
283.49897,1.06828
283.25790,1.07240
283.01683,1.07283
282.77576,1.07123
282.53469,1.07122
282.29362,1.07306
282.05255,1.07453
281.81148,1.07441
281.57041,1.07276
281.32934,1.06988
281.08827,1.06618
280.84720,1.06273
280.60613,1.06154
280.36506,1.06414
280.12399,1.06892
279.88292,1.07263
279.64185,1.07490
279.40078,1.07732
279.15970,1.07904
278.91863,1.07847
278.67756,1.07734
278.43649,1.07869
278.19542,1.08268
277.95435,1.08666
277.71328,1.08825
277.47221,1.08687
277.23114,1.08292
276.99007,1.07681
276.74900,1.06983
276.50793,1.06561
276.26686,1.06766
276.02579,1.07439
275.78472,1.07978
275.54365,1.08033
275.30258,1.07815
275.06151,1.07628
274.82043,1.07492
274.57936,1.07389
274.33829,1.07466
274.09722,1.07777
273.85615,1.08085
273.61508,1.08123
273.37401,1.07953
273.13294,1.07909
272.89187,1.08230
272.65080,1.08835
272.40973,1.09429
272.16866,1.09779
271.92759,1.09857
271.68652,1.09807
271.44545,1.09798
271.20438,1.09868
270.96331,1.09960
270.72224,1.10110
270.48116,1.10477
270.24009,1.11167
269.99902,1.12065
269.75795,1.12850
269.51688,1.13187
269.27581,1.12994
269.03474,1.12570
268.79367,1.12345
268.55260,1.12571
268.31153,1.13234
268.07046,1.14058
267.82939,1.14674
267.58832,1.14997
267.34725,1.15325
267.10618,1.15888
266.86511,1.16528
266.62404,1.17028
266.38297,1.17538
266.14189,1.18330
265.90082,1.19256
265.65975,1.19964
265.41868,1.20532
265.17761,1.21381
264.93654,1.22643
264.69547,1.23953
264.45440,1.24883
264.21333,1.25473
263.97226,1.26150
263.73119,1.27152
263.49012,1.28317
263.24905,1.29519
263.00798,1.30963
262.76691,1.32757
262.52584,1.34610
262.28477,1.36269
262.04370,1.37817
261.80262,1.39435
261.56155,1.41137
261.32048,1.42817
261.07941,1.44409
260.83834,1.45960
260.59727,1.47512
260.35620,1.48975
260.11513,1.50474
259.87406,1.52532
259.63299,1.55163
259.39192,1.57478
259.15085,1.59163
258.90978,1.61304
258.66871,1.64831
258.42764,1.69060
258.18657,1.72352
257.94550,1.73968
257.70443,1.74750
257.46335,1.76036
257.22228,1.77472
256.98121,1.77935
256.74014,1.77907
256.49907,1.77999
256.25800,1.76547
256.01693,1.73042
255.77586,1.70063
255.53479,1.68883
255.29372,1.68579
255.05265,1.68307
254.81158,1.68122
254.57051,1.67863
254.32944,1.66832
254.08837,1.65125
253.84730,1.63626
253.60623,1.62418
253.36516,1.60964
253.12408,1.59031
252.88301,1.56888
252.64194,1.55412
252.40087,1.55354
252.15980,1.56362
251.91873,1.57207
251.67766,1.57188
251.43659,1.56537
251.19552,1.55433
250.95445,1.53911
250.71338,1.52445
250.47231,1.51603
250.23124,1.51374
249.99017,1.51370
249.74910,1.51413
249.50803,1.51471
249.26696,1.51437
249.02589,1.51488
248.78481,1.52038
248.54374,1.52773
248.30267,1.52637
248.06160,1.51585
247.82053,1.50856
247.57946,1.51158
247.33839,1.51851
247.09732,1.51952
246.85625,1.51317
246.61518,1.50552
246.37411,1.50364
246.13304,1.51217
245.89197,1.52988
245.65090,1.54763
245.40983,1.55680
245.16876,1.55956
244.92769,1.56592
244.68661,1.58520
244.44554,1.62177
244.20447,1.67319
243.96340,1.72940
243.72233,1.77790
243.48126,1.81446
243.24019,1.84424
242.99912,1.87436
242.75805,1.90570
242.51698,1.89699
242.27591,1.82575
242.03484,1.76150
241.79377,1.69891
241.55270,1.62910
241.31163,1.55242
241.07056,1.47568
240.82949,1.40512
240.58842,1.34305
240.34734,1.29199
240.10627,1.25429
239.86520,1.22798
239.62413,1.20597
239.38306,1.18105
239.14199,1.15170
238.90092,1.12225
238.65985,1.09747
238.41878,1.07854
238.17771,1.06363
237.93664,1.05025
237.69557,1.03610
237.45450,1.01946
237.21343,1.00110
236.97236,0.98419
236.73129,0.97105
236.49022,0.96119
236.24915,0.95301
236.00807,0.94507
235.76700,0.93599
235.52593,0.92531
235.28486,0.91424
235.04379,0.90441
234.80272,0.89697
234.56165,0.89274
234.32058,0.89132
234.07951,0.89038
233.83844,0.88784
233.59737,0.88380
233.35630,0.87924
233.11523,0.87450
232.87416,0.86942
232.63309,0.86387
232.39202,0.85800
232.15095,0.85263
231.90988,0.84834
231.66880,0.84453
231.42773,0.84040
231.18666,0.83698
230.94559,0.83610
230.70452,0.83737
230.46345,0.83837
230.22238,0.83764
229.98131,0.83517
229.74024,0.83108
229.49917,0.82619
229.25810,0.82266
229.01703,0.82095
228.77596,0.81848
228.53489,0.81389
228.29382,0.80946
228.05275,0.80725
227.81168,0.80638
227.57061,0.80565
227.32953,0.80571
227.08846,0.80653
226.84739,0.80601
226.60632,0.80307
226.36525,0.79974
226.12418,0.79838
225.88311,0.79855
225.64204,0.79827
225.40097,0.79666
225.15990,0.79406
224.91883,0.79134
224.67776,0.79013
224.43669,0.79181
224.19562,0.79588
223.95455,0.80043
223.71348,0.80382
223.47241,0.80530
223.23134,0.80530
222.99026,0.80580
222.74919,0.80878
222.50812,0.81428
222.26705,0.82084
222.02598,0.82696
221.78491,0.83164
221.54384,0.83481
221.30277,0.83722
221.06170,0.83926
220.82063,0.84087
220.57956,0.84343
220.33849,0.84947
220.09742,0.85936
219.85635,0.87041
219.61528,0.88005
219.37421,0.88840
219.13314,0.89688
218.89207,0.90626
218.65099,0.91672
218.40992,0.92805
218.16885,0.93906
217.92778,0.94822
217.68671,0.95535
217.44564,0.96227
217.20457,0.97162
216.96350,0.98447
216.72243,0.99931
216.48136,1.01383
216.24029,1.02720
215.99922,1.04010
215.75815,1.05285
215.51708,1.06419
215.27601,1.07266
215.03494,1.07871
214.79387,1.08540
214.55280,1.09632
214.31172,1.11176
214.07065,1.12756
213.82958,1.13947
213.58851,1.14753
213.34744,1.15449
213.10637,1.16181
212.86530,1.16891
212.62423,1.17497
212.38316,1.18063
212.14209,1.18732
211.90102,1.19485
211.65995,1.20111
211.41888,1.20352
211.17781,1.20032
210.93674,1.19308
210.69567,1.18670
210.45460,1.18444
210.21353,1.18573
209.97245,1.18930
209.73138,1.19373
209.49031,1.19509
209.24924,1.19073
209.00817,1.18414
208.76710,1.18020
208.52603,1.17894
208.28496,1.17718
208.04389,1.17387
207.80282,1.17047
207.56175,1.16753
207.32068,1.16440
207.07961,1.16085
206.83854,1.15591
206.59747,1.14681
206.35640,1.13221
206.11533,1.11466
205.87426,1.09722
205.63318,1.08060
205.39211,1.06549
205.15104,1.05396
204.90997,1.04616
204.66890,1.03874
204.42783,1.02775
204.18676,1.01237
203.94569,0.99589
203.70462,0.98339
203.46355,0.97710
203.22248,0.97368
202.98141,0.96760
202.74034,0.95667
202.49927,0.94261
202.25820,0.92677
202.01713,0.90860
201.77606,0.88892
201.53499,0.87162
201.29391,0.85998
201.05284,0.85257
200.81177,0.84454
200.57070,0.83267
200.32963,0.81807
200.08856,0.80378
199.84749,0.79178
199.60642,0.78241
199.36535,0.77463
199.12428,0.76650
198.88321,0.75722
198.64214,0.74801
198.40107,0.74022
198.16000,0.73391
197.91893,0.72846
197.67786,0.72279
197.43679,0.71557
197.19572,0.70689
196.95464,0.69873
196.71357,0.69227
196.47250,0.68614
196.23143,0.67806
195.99036,0.66779
195.74929,0.65771
195.50822,0.65033
195.26715,0.64565
195.02608,0.64121
194.78501,0.63511
194.54394,0.62830
194.30287,0.62294
194.06180,0.61966
193.82073,0.61701
193.57966,0.61314
193.33859,0.60785
193.09752,0.60251
192.85645,0.59796
192.61537,0.59366
192.37430,0.58943
192.13323,0.58635
191.89216,0.58497
191.65109,0.58390
191.41002,0.58122
191.16895,0.57656
190.92788,0.57118
190.68681,0.56644
190.44574,0.56277
190.20467,0.55982
189.96360,0.55714
189.72253,0.55469
189.48146,0.55283
189.24039,0.55188
188.99932,0.55149
188.75825,0.55069
188.51718,0.54872
188.27610,0.54600
188.03503,0.54374
187.79396,0.54286
187.55289,0.54321
187.31182,0.54336
187.07075,0.54155
186.82968,0.53793
186.58861,0.53486
186.34754,0.53407
186.10647,0.53474
185.86540,0.53555
185.62433,0.53704
185.38326,0.53976
185.14219,0.54175
184.90112,0.54080
184.66005,0.53836
184.41898,0.53794
184.17791,0.54006
183.93683,0.54216
183.69576,0.54294
183.45469,0.54369
183.21362,0.54534
182.97255,0.54699
182.73148,0.54780
182.49041,0.54800
182.24934,0.54781
182.00827,0.54700
181.76720,0.54608
181.52613,0.54634
181.28506,0.54808
181.04399,0.55030
180.80292,0.55260
180.56185,0.55540
180.32078,0.55832
180.07971,0.56050
179.83864,0.56244
179.59756,0.56545
179.35649,0.57021
179.11542,0.57703
178.87435,0.58553
178.63328,0.59415
178.39221,0.60190
178.15114,0.60969
177.91007,0.61811
177.66900,0.62642
177.42793,0.63481
177.18686,0.64492
176.94579,0.65762
176.70472,0.67246
176.46365,0.68828
176.22258,0.70305
175.98151,0.71526
175.74044,0.72649
175.49937,0.73977
175.25829,0.75585
175.01722,0.77308
174.77615,0.79014
174.53508,0.80695
174.29401,0.82423
174.05294,0.84272
173.81187,0.86179
173.57080,0.87926
173.32973,0.89358
173.08866,0.90547
172.84759,0.91612
172.60652,0.92514
172.36545,0.93081
172.12438,0.93142
171.88331,0.92699
171.64224,0.92017
171.40117,0.91420
171.16010,0.91054
170.91902,0.90911
170.67795,0.90924
170.43688,0.90958
170.19581,0.90863
169.95474,0.90613
169.71367,0.90244
169.47260,0.89714
169.23153,0.89010
168.99046,0.88334
168.74939,0.87937
168.50832,0.87813
168.26725,0.87705
168.02618,0.87437
167.78511,0.87108
167.54404,0.86939
167.30297,0.87037
167.06190,0.87324
166.82083,0.87583
166.57975,0.87600
166.33868,0.87381
166.09761,0.87164
165.85654,0.87174
165.61547,0.87502
165.37440,0.88191
165.13333,0.89221
164.89226,0.90428
164.65119,0.91585
164.41012,0.92529
164.16905,0.93158
163.92798,0.93488
163.68691,0.93726
163.44584,0.94095
163.20477,0.94626
162.96370,0.95284
162.72263,0.96210
162.48156,0.97527
162.24048,0.98967
161.99941,1.00009
161.75834,1.00419
161.51727,1.00357
161.27620,0.99945
161.03513,0.99168
160.79406,0.98255
160.55299,0.97659
160.31192,0.97543
160.07085,0.97645
159.82978,0.97678
159.58871,0.97540
159.34764,0.97172
159.10657,0.96522
158.86550,0.95699
158.62443,0.94998
158.38336,0.94697
158.14229,0.94825
157.90121,0.95062
157.66014,0.94914
157.41907,0.94179
157.17800,0.93126
156.93693,0.92138
156.69586,0.91406
156.45479,0.90964
156.21372,0.90675
155.97265,0.90214
155.73158,0.89303
155.49051,0.88015
155.24944,0.86735
155.00837,0.85852
154.76730,0.85415
154.52623,0.85046
154.28516,0.84309
154.04409,0.83150
153.80302,0.81815
153.56194,0.80441
153.32087,0.78952
153.07980,0.77315
152.83873,0.75672
152.59766,0.74198
152.35659,0.72939
152.11552,0.71827
151.87445,0.70737
151.63338,0.69522
151.39231,0.68103
151.15124,0.66566
150.91017,0.65070
150.66910,0.63666
150.42803,0.62310
150.18696,0.61014
149.94589,0.59887
149.70482,0.59007
149.46375,0.58326
149.22267,0.57693
148.98160,0.56951
148.74053,0.56050
148.49946,0.55098
148.25839,0.54295
148.01732,0.53769
147.77625,0.53458
147.53518,0.53174
147.29411,0.52821
147.05304,0.52514
146.81197,0.52456
146.57090,0.52738
146.32983,0.53216
146.08876,0.53614
145.84769,0.53830
145.60662,0.54043
145.36555,0.54462
145.12448,0.55079
144.88340,0.55723
144.64233,0.56283
144.40126,0.56750
144.16019,0.57110
143.91912,0.57279
143.67805,0.57190
143.43698,0.56876
143.19591,0.56437
142.95484,0.55905
142.71377,0.55231
142.47270,0.54387
142.23163,0.53476
141.99056,0.52655
141.74949,0.51964
141.50842,0.51305
141.26735,0.50617
141.02628,0.49972
140.78521,0.49457
140.54413,0.49079
140.30306,0.48843
140.06199,0.48785
139.82092,0.48884
139.57985,0.49067
139.33878,0.49343
139.09771,0.49792
138.85664,0.50362
138.61557,0.50868
138.37450,0.51263
138.13343,0.51760
137.89236,0.52587
137.65129,0.53742
137.41022,0.55048
137.16915,0.56390
136.92808,0.57789
136.68701,0.59330
136.44594,0.61122
136.20486,0.63192
135.96379,0.65358
135.72272,0.67381
135.48165,0.69323
135.24058,0.71511
134.99951,0.74151
134.75844,0.77195
134.51737,0.80522
134.27630,0.83967
134.03523,0.87298
133.79416,0.90416
133.55309,0.93424
133.31202,0.96359
133.07095,0.99106
132.82988,1.01671
132.58881,1.04267
132.34774,1.06981
132.10667,1.09394
131.86559,1.10745
131.62452,1.10795
131.38345,1.10322
131.14238,1.10124
130.90131,1.09979
130.66024,1.09134
130.41917,1.07487
130.17810,1.05668
129.93703,1.03931
129.69596,1.01730
129.45489,0.98573
129.21382,0.94721
128.97275,0.90805
128.73168,0.87237
128.49061,0.84094
128.24954,0.81206
128.00847,0.78366
127.76740,0.75569
127.52632,0.72946
127.28525,0.70465
127.04418,0.67941
126.80311,0.65353
126.56204,0.62970
126.32097,0.61055
126.07990,0.59551
125.83883,0.58147
125.59776,0.56626
125.35669,0.55027
125.11562,0.53488
124.87455,0.52097
124.63348,0.50873
124.39241,0.49770
124.15134,0.48732
123.91027,0.47802
123.66920,0.47053
123.42812,0.46439
123.18705,0.45802
122.94598,0.45046
122.70491,0.44263
122.46384,0.43681
122.22277,0.43442
121.98170,0.43461
121.74063,0.43595
121.49956,0.43827
121.25849,0.44180
121.01742,0.44610
120.77635,0.45101
120.53528,0.45709
120.29421,0.46459
120.05314,0.47337
119.81207,0.48409
119.57100,0.49825
119.32993,0.51700
119.08885,0.53991
118.84778,0.56504
118.60671,0.59097
118.36564,0.61847
118.12457,0.64850
117.88350,0.67899
117.64243,0.70591
117.40136,0.72711
117.16029,0.74268
116.91922,0.75253
116.67815,0.75657
116.43708,0.75650
116.19601,0.75439
115.95494,0.75078
115.71387,0.74569
115.47280,0.73961
115.23173,0.73267
114.99066,0.72463
114.74958,0.71526
114.50851,0.70434
114.26744,0.69269
114.02637,0.68247
113.78530,0.67478
113.54423,0.66802
113.30316,0.66044
113.06209,0.65307
112.82102,0.64856
112.57995,0.64825
112.33888,0.65170
112.09781,0.65842
111.85674,0.66859
111.61567,0.68138
111.37460,0.69322
111.13353,0.69921
110.89246,0.69732
110.65139,0.69020
110.41031,0.68255
110.16924,0.67725
109.92817,0.67397
109.68710,0.67046
109.44603,0.66474
109.20496,0.65590
108.96389,0.64343
108.72282,0.62651
108.48175,0.60499
108.24068,0.58081
107.99961,0.55728
107.75854,0.53692
107.51747,0.52070
107.27640,0.50862
107.03533,0.49980
106.79426,0.49195
106.55319,0.48197
106.31212,0.46774
106.07104,0.44997
105.82997,0.43215
105.58890,0.41824
105.34783,0.41002
105.10676,0.40587
104.86569,0.40173
104.62462,0.39394
104.38355,0.38210
104.14248,0.36889
103.90141,0.35739
103.66034,0.34918
103.41927,0.34429
103.17820,0.34143
102.93713,0.33852
102.69606,0.33359
102.45499,0.32560
102.21392,0.31568
101.97285,0.30707
101.73177,0.30246
101.49070,0.30113
101.24963,0.29994
101.00856,0.29645
100.76749,0.29018
100.52642,0.28212
100.28535,0.27464
100.04428,0.27068
99.80321,0.27126
99.56214,0.27388
99.32107,0.27408
99.08000,0.26935
98.83893,0.26211
98.59786,0.25750
98.35679,0.25822
98.11572,0.26193
97.87465,0.26356
97.63358,0.26135
97.39250,0.25872
97.15143,0.25957
96.91036,0.26399
96.66929,0.26853
96.42822,0.27109
96.18715,0.27391
95.94608,0.27981
95.70501,0.28794
95.46394,0.29481
95.22287,0.29895
94.98180,0.30268
94.74073,0.30835
94.49966,0.31448
94.25859,0.31763
94.01752,0.31788
93.77645,0.31832
93.53538,0.31948
93.29431,0.31902
93.05323,0.31734
92.81216,0.31790
92.57109,0.32072
92.33002,0.32163
92.08895,0.31953
91.84788,0.31861
91.60681,0.32125
91.36574,0.32529
91.12467,0.33100
90.88360,0.34352
90.64253,0.36420
90.40146,0.38801
90.16039,0.41327
89.91932,0.44511
89.67825,0.48551
89.43718,0.53028
89.19611,0.57689
88.95504,0.62401
88.71396,0.66598
88.47289,0.69717
88.23182,0.71409
87.99075,0.71063
87.74968,0.68546
87.50861,0.64776
87.26754,0.60582
87.02647,0.56288
86.78540,0.52267
86.54433,0.48834
86.30326,0.45888
86.06219,0.43185
85.82112,0.40649
85.58005,0.38257
85.33898,0.35926
85.09791,0.33667
84.85684,0.31614
84.61577,0.29888
84.37469,0.28516
84.13362,0.27440
83.89255,0.26540
83.65148,0.25696
83.41041,0.24894
83.16934,0.24186
82.92827,0.23576
82.68720,0.23028
82.44613,0.22539
82.20506,0.22120
81.96399,0.21758
81.72292,0.21433
81.48185,0.21127
81.24078,0.20814
80.99971,0.20509
80.75864,0.20261
80.51757,0.20082
80.27650,0.19952
80.03542,0.19836
79.79435,0.19683
79.55328,0.19477
79.31221,0.19290
79.07114,0.19205
78.83007,0.19204
78.58900,0.19205
78.34793,0.19133
78.10686,0.18945
77.86579,0.18667
77.62472,0.18364
77.38365,0.18063
77.14258,0.17758
76.90151,0.17455
76.66044,0.17190
76.41937,0.17014
76.17830,0.16949
75.93723,0.16928
75.69615,0.16824
75.45508,0.16571
75.21401,0.16217
74.97294,0.15868
74.73187,0.15628
74.49080,0.15579
74.24973,0.15732
74.00866,0.15992
73.76759,0.16179
73.52652,0.16109
73.28545,0.15754
73.04438,0.15333
72.80331,0.15153
72.56224,0.15341
72.32117,0.15776
72.08010,0.16255
71.83903,0.16668
71.59796,0.16985
71.35688,0.17143
71.11581,0.17077
70.87474,0.16894
70.63367,0.16865
70.39260,0.17213
70.15153,0.18017
69.91046,0.19286
69.66939,0.20946
69.42832,0.22771
69.18725,0.24399
68.94618,0.25409
68.70511,0.25413
68.46404,0.24313
68.22297,0.22481
67.98190,0.20523
67.74083,0.18868
67.49976,0.17663
67.25869,0.16889
67.01761,0.16428
66.77654,0.16109
66.53547,0.15783
66.29440,0.15369
66.05333,0.14900
65.81226,0.14565
65.57119,0.14595
65.33012,0.15057
65.08905,0.15821
64.84798,0.16730
64.60691,0.17740
64.36584,0.18820
64.12477,0.19788
63.88370,0.20370
63.64263,0.20444
63.40156,0.20071
63.16049,0.19341
62.91942,0.18352
62.67834,0.17257
62.43727,0.16203
62.19620,0.15301
61.95513,0.14661
61.71406,0.14295
61.47299,0.13974
61.23192,0.13375
60.99085,0.12442
60.74978,0.11484
60.50871,0.10906
60.26764,0.10888
60.02657,0.11295
59.78550,0.11864
59.54443,0.12490
59.30336,0.13263
59.06229,0.14253
58.82122,0.15349
58.58015,0.16355
58.33907,0.17203
58.09800,0.17997
57.85693,0.18746
57.61586,0.19099
57.37479,0.18590
57.13372,0.17135
56.89265,0.15172
56.65158,0.13330
56.41051,0.12061
56.16944,0.11548
55.92837,0.11818
55.68730,0.12847
55.44623,0.14564
55.20516,0.16657
54.96409,0.18373
54.72302,0.18826
54.48195,0.17796
54.24088,0.15947
53.99980,0.14163
53.75873,0.13110
53.51766,0.13219
53.27659,0.14689
53.03552,0.17284
52.79445,0.19838
52.55338,0.20410
52.31231,0.18373
52.07124,0.15290
51.83017,0.12855
51.58910,0.11916
51.34803,0.12707
51.10696,0.14892
50.86589,0.17115
50.62482,0.17213
50.38375,0.14848
50.14268,0.12342
49.90161,0.11824
49.66053,0.14063
49.41946,0.17643
49.17839,0.18307
48.93732,0.14664
48.69625,0.11163
48.45518,0.11165
48.21411,0.14505
47.97304,0.17433
47.73197,0.16489
47.49090,0.14525
47.24983,0.14927
47.00876,0.16880
46.76769,0.16990
46.52662,0.15042
46.28555,0.14068
46.04448,0.14437
45.80341,0.14032
45.56234,0.12985
45.32126,0.13497
45.08019,0.15235
44.83912,0.15761
44.59805,0.15195
44.35698,0.15365
44.11591,0.15793
43.87484,0.15546
43.63377,0.15676
43.39270,0.16696
43.15163,0.17387
42.91056,0.17152
42.66949,0.16861
42.42842,0.17131
42.18735,0.17674
41.94628,0.17756
41.70521,0.16927
41.46414,0.15872
41.22307,0.15616
40.98199,0.16203
40.74092,0.17088
40.49985,0.17997
40.25878,0.18873
40.01771,0.19529
39.77664,0.19642
39.53557,0.19025
39.29450,0.18033
39.05343,0.17463
38.81236,0.17938
38.57129,0.19440
38.33022,0.21286
38.08915,0.22667
37.84808,0.23196
37.60701,0.22923
37.36594,0.22275
37.12487,0.21889
36.88380,0.21804
36.64272,0.21356
36.40165,0.20495
36.16058,0.20050
35.91951,0.20437
35.67844,0.21305
35.43737,0.22157
35.19630,0.22737
34.95523,0.23201
34.71416,0.23670
34.47309,0.23541
34.23202,0.22265
33.99095,0.20366
33.74988,0.18599
33.50881,0.17068
33.26774,0.15692
33.02667,0.14529
32.78560,0.13741
32.54453,0.13552
32.30345,0.13657
32.06238,0.13084
31.82131,0.11415
31.58024,0.09462
31.33917,0.08291
31.09810,0.08129
30.85703,0.08451
30.61596,0.08328
30.37489,0.06882
30.13382,0.04178
29.89275,0.01194
29.65168,-0.00774
29.41061,-0.00980
29.16954,-0.00058
28.92847,0.00376
28.68740,-0.01398
28.44633,-0.06093
28.20526,-0.12085
27.96418,-0.15808
27.72311,-0.15013
27.48204,-0.11567
27.24097,-0.08729
26.99990,-0.07937
26.75883,-0.08743
26.51776,-0.10162
26.27669,-0.12115
26.03562,-0.15030
25.79455,-0.18127
25.55348,-0.19592
25.31241,-0.18972
25.07134,-0.18098
24.83027,-0.18754
24.58920,-0.20660
24.34813,-0.22602
24.10706,-0.24335
23.86599,-0.26504
23.62491,-0.29197
23.38384,-0.31258
23.14277,-0.31371
22.90170,-0.29804
22.66063,-0.28259
22.41956,-0.28265
22.17849,-0.30265
21.93742,-0.33334
21.69635,-0.35544
21.45528,-0.35683
21.21421,-0.34614
20.97314,-0.34237
20.73207,-0.35925
20.49100,-0.39602
20.24993,-0.43326
20.00886,-0.44811
19.76779,-0.44682
19.52672,-0.45162
19.28564,-0.46038
19.04457,-0.45321
18.80350,-0.42946
18.56243,-0.40595
18.32136,-0.39209
18.08029,-0.38745
17.83922,-0.39274
17.59815,-0.41153
17.35708,-0.44810
17.11601,-0.50426
16.87494,-0.55977
16.63387,-0.57357
16.39280,-0.53799
16.15173,-0.50455
15.91066,-0.51751
15.66959,-0.56528
15.42852,-0.58853
15.18745,-0.55555
14.94637,-0.50687
14.70530,-0.48116
14.46423,-0.47755
14.22316,-0.47784
13.98209,-0.46663
13.74102,-0.45132
13.49995,-0.45563
13.25888,-0.49058
13.01781,-0.53354
12.77674,-0.52683
12.53567,-0.51404
12.29460,-0.50973
12.05353,-0.52865
11.81246,-0.56089
11.57139,-0.57103
11.33032,-0.56164
11.08925,-0.55269
10.84818,-0.52155
10.60710,-0.48953
10.36603,-0.48470
10.12496,-0.50704
9.88389,-0.52329
9.64282,-0.52483
9.40175,-0.54254
9.16068,-0.56409
8.91961,-0.55476
8.67854,-0.53138
8.43747,-0.50830
8.19640,-0.47991
7.95533,-0.45096
7.71426,-0.43268
7.47319,-0.43359
7.23212,-0.44745
6.99105,-0.46138
6.74998,-0.47025
6.50891,-0.47134
6.26783,-0.47407
6.02676,-0.48942
5.78569,-0.49745
5.54462,-0.49218
5.30355,-0.49111
5.06248,-0.49487
4.82141,-0.49326
4.58034,-0.48986
4.33927,-0.48799
4.09820,-0.48066
3.85713,-0.46844
3.61606,-0.46336
3.37499,-0.45798
3.13392,-0.44952
2.89285,-0.44705
2.65178,-0.44528
2.41071,-0.44343
2.16964,-0.46016
1.92856,-0.49707
1.68749,-0.53446
1.44642,-0.55160
1.20535,-0.54414
0.96428,-0.52654
0.72321,-0.53064
0.48214,-0.54324
0.24107,-0.51957
-0.00000,-0.23646
