399.69498,1.90931
399.45391,1.91289
399.21284,1.89118
398.97177,1.84724
398.73070,1.81214
398.48963,1.80440
398.24856,1.80874
398.00749,1.81973
397.76642,1.84617
397.52535,1.86404
397.28428,1.84451
397.04321,1.80235
396.80214,1.76793
396.56107,1.75942
396.32000,1.78012
396.07892,1.81124
395.83785,1.82548
395.59678,1.81723
395.35571,1.80792
395.11464,1.82087
394.87357,1.85715
394.63250,1.88541
394.39143,1.88542
394.15036,1.87084
393.90929,1.83804
393.66822,1.82028
393.42715,1.81822
393.18608,1.80630
392.94501,1.75686
392.70394,1.69959
392.46287,1.68825
392.22180,1.71317
391.98073,1.69290
391.73965,1.65130
391.49858,1.64757
391.25751,1.69545
391.01644,1.74617
390.77537,1.72048
390.53430,1.62148
390.29323,1.53823
390.05216,1.52615
389.81109,1.58053
389.57002,1.65252
389.32895,1.69998
389.08788,1.73660
388.84681,1.74417
388.60574,1.69460
388.36467,1.66643
388.12360,1.64669
387.88253,1.63253
387.64146,1.64062
387.40038,1.62689
387.15931,1.62160
386.91824,1.61062
386.67717,1.58436
386.43610,1.57016
386.19503,1.59476
385.95396,1.66227
385.71289,1.73165
385.47182,1.77976
385.23075,1.76853
384.98968,1.67845
384.74861,1.60450
384.50754,1.59168
384.26647,1.59682
384.02540,1.60303
383.78433,1.59224
383.54326,1.56542
383.30219,1.55906
383.06111,1.54824
382.82004,1.53522
382.57897,1.56223
382.33790,1.62432
382.09683,1.64627
381.85576,1.58586
381.61469,1.55726
381.37362,1.57334
381.13255,1.60929
380.89148,1.63379
380.65041,1.61331
380.40934,1.53312
380.16827,1.45298
379.92720,1.42296
379.68613,1.43855
379.44506,1.45482
379.20399,1.45882
378.96292,1.46864
378.72184,1.49013
378.48077,1.51003
378.23970,1.52400
377.99863,1.54296
377.75756,1.55100
377.51649,1.52496
377.27542,1.50485
377.03435,1.49403
376.79328,1.49116
376.55221,1.51438
376.31114,1.57071
376.07007,1.58651
375.82900,1.55125
375.58793,1.54847
375.34686,1.58346
375.10579,1.63031
374.86472,1.65052
374.62365,1.62866
374.38257,1.60272
374.14150,1.60271
373.90043,1.63898
373.65936,1.67669
373.41829,1.67715
373.17722,1.65956
372.93615,1.65666
372.69508,1.67069
372.45401,1.66681
372.21294,1.62755
371.97187,1.58568
371.73080,1.58269
371.48973,1.61313
371.24866,1.62819
371.00759,1.59696
370.76652,1.55264
370.52545,1.54398
370.28437,1.58516
370.04330,1.63361
369.80223,1.62436
369.56116,1.56878
369.32009,1.52770
369.07902,1.53754
368.83795,1.58337
368.59688,1.62360
368.35581,1.63592
368.11474,1.62739
367.87367,1.61268
367.63260,1.60034
367.39153,1.59190
367.15046,1.57749
366.90939,1.54898
366.66832,1.51649
366.42725,1.50494
366.18618,1.52947
365.94510,1.57822
365.70403,1.61833
365.46296,1.63097
365.22189,1.62453
364.98082,1.60229
364.73975,1.55803
364.49868,1.50434
364.25761,1.46373
364.01654,1.45147
363.77547,1.47235
363.53440,1.51752
363.29333,1.56536
363.05226,1.60091
362.81119,1.62266
362.57012,1.63258
362.32905,1.61899
362.08798,1.56738
361.84691,1.51009
361.60583,1.48161
361.36476,1.47902
361.12369,1.47888
360.88262,1.47463
360.64155,1.48241
360.40048,1.50382
360.15941,1.51565
359.91834,1.50437
359.67727,1.48589
359.43620,1.48270
359.19513,1.49853
358.95406,1.51807
358.71299,1.51863
358.47192,1.50070
358.23085,1.49076
357.98978,1.49735
357.74871,1.49716
357.50764,1.47730
357.26656,1.45447
357.02549,1.44797
356.78442,1.46073
356.54335,1.47974
356.30228,1.48716
356.06121,1.48102
355.82014,1.47521
355.57907,1.46561
355.33800,1.43564
355.09693,1.39645
354.85586,1.38183
354.61479,1.41475
354.37372,1.47824
354.13265,1.51956
353.89158,1.51366
353.65051,1.49186
353.40944,1.47421
353.16837,1.46784
352.92729,1.47996
352.68622,1.50059
352.44515,1.50733
352.20408,1.50148
351.96301,1.49885
351.72194,1.49411
351.48087,1.47363
351.23980,1.44502
350.99873,1.43044
350.75766,1.43244
350.51659,1.43681
350.27552,1.43851
350.03445,1.43808
349.79338,1.43331
349.55231,1.42708
349.31124,1.43384
349.07017,1.45904
348.82910,1.47955
348.58802,1.47865
348.34695,1.47072
348.10588,1.46662
347.86481,1.46266
347.62374,1.46491
347.38267,1.48852
347.14160,1.53776
346.90053,1.60137
346.65946,1.66307
346.41839,1.68203
346.17732,1.62015
345.93625,1.53118
345.69518,1.47205
345.45411,1.45278
345.21304,1.45017
344.97197,1.45559
344.73090,1.46893
344.48983,1.46985
344.24875,1.45173
344.00768,1.43529
343.76661,1.44501
343.52554,1.48829
343.28447,1.54422
343.04340,1.57891
342.80233,1.58618
342.56126,1.59076
342.32019,1.61351
342.07912,1.64524
341.83805,1.62566
341.59698,1.59183
341.35591,1.59954
341.11484,1.60965
340.87377,1.59995
340.63270,1.60425
340.39163,1.60697
340.15056,1.60611
339.90948,1.62334
339.66841,1.63117
339.42734,1.63088
339.18627,1.63191
338.94520,1.61564
338.70413,1.57970
338.46306,1.57135
338.22199,1.60313
337.98092,1.62210
337.73985,1.60734
337.49878,1.63856
337.25771,1.67087
337.01664,1.62065
336.77557,1.54514
336.53450,1.51737
336.29343,1.55595
336.05236,1.62151
335.81129,1.64225
335.57021,1.63220
335.32914,1.61719
335.08807,1.59916
334.84700,1.59009
334.60593,1.60475
334.36486,1.61616
334.12379,1.59024
333.88272,1.55336
333.64165,1.55194
333.40058,1.59198
333.15951,1.63126
332.91844,1.61709
332.67737,1.55782
332.43630,1.50848
332.19523,1.49229
331.95416,1.49661
331.71309,1.51304
331.47202,1.54276
331.23094,1.54833
330.98987,1.48015
330.74880,1.41840
330.50773,1.40479
330.26666,1.42330
330.02559,1.43657
329.78452,1.43758
329.54345,1.44491
329.30238,1.46449
329.06131,1.49011
328.82024,1.51896
328.57917,1.54264
328.33810,1.56820
328.09703,1.59262
327.85596,1.57921
327.61489,1.56122
327.37382,1.56809
327.13275,1.53773
326.89167,1.51595
326.65060,1.54089
326.40953,1.60766
326.16846,1.68500
325.92739,1.71890
325.68632,1.68479
325.44525,1.59684
325.20418,1.50317
324.96311,1.45642
324.72204,1.47864
324.48097,1.54040
324.23990,1.51423
323.99883,1.45103
323.75776,1.42560
323.51669,1.44025
323.27562,1.45933
323.03455,1.45210
322.79348,1.44783
322.55240,1.47991
322.31133,1.54792
322.07026,1.59656
321.82919,1.55803
321.58812,1.54131
321.34705,1.57609
321.10598,1.62847
320.86491,1.64467
320.62384,1.59824
320.38277,1.53107
320.14170,1.49926
319.90063,1.51356
319.65956,1.53675
319.41849,1.54727
319.17742,1.59669
318.93635,1.68885
318.69528,1.67161
318.45421,1.61810
318.21313,1.57031
317.97206,1.50644
317.73099,1.45906
317.48992,1.45008
317.24885,1.46027
317.00778,1.45651
316.76671,1.44459
316.52564,1.45565
316.28457,1.48862
316.04350,1.52222
315.80243,1.52613
315.56136,1.49846
315.32029,1.48468
315.07922,1.48102
314.83815,1.47710
314.59708,1.48934
314.35601,1.53349
314.11494,1.56165
313.87386,1.54142
313.63279,1.52550
313.39172,1.52837
313.15065,1.54415
312.90958,1.52992
312.66851,1.48428
312.42744,1.46632
312.18637,1.49522
311.94530,1.55938
311.70423,1.62699
311.46316,1.66662
311.22209,1.65960
310.98102,1.61108
310.73995,1.54922
310.49888,1.50265
310.25781,1.49393
310.01674,1.52002
309.77567,1.56265
309.53459,1.57742
309.29352,1.54995
309.05245,1.52906
308.81138,1.53403
308.57031,1.56374
308.32924,1.61826
308.08817,1.67339
307.84710,1.67882
307.60603,1.61664
307.36496,1.54185
307.12389,1.51433
306.88282,1.55302
306.64175,1.63172
306.40068,1.70942
306.15961,1.74726
305.91854,1.69995
305.67747,1.61583
305.43640,1.56233
305.19532,1.56275
304.95425,1.62503
304.71318,1.69509
304.47211,1.64687
304.23104,1.60494
303.98997,1.61251
303.74890,1.60642
303.50783,1.55360
303.26676,1.51659
303.02569,1.53597
302.78462,1.59307
302.54355,1.63595
302.30248,1.64174
302.06141,1.61319
301.82034,1.57129
301.57927,1.54971
301.33820,1.54826
301.09713,1.54615
300.85605,1.54228
300.61498,1.54797
300.37391,1.55390
300.13284,1.54185
299.89177,1.51408
299.65070,1.48168
299.40963,1.45586
299.16856,1.44859
298.92749,1.46349
298.68642,1.49047
298.44535,1.50721
298.20428,1.49610
297.96321,1.46755
297.72214,1.45022
297.48107,1.45521
297.24000,1.46846
296.99893,1.46637
296.75786,1.44670
296.51678,1.43198
296.27571,1.42761
296.03464,1.42381
295.79357,1.41624
295.55250,1.41230
295.31143,1.41386
295.07036,1.41209
294.82929,1.40270
294.58822,1.38641
294.34715,1.37800
294.10608,1.38535
293.86501,1.38033
293.62394,1.34820
293.38287,1.31703
293.14180,1.31740
292.90073,1.35753
292.65966,1.40476
292.41859,1.39136
292.17751,1.32927
291.93644,1.28918
291.69537,1.29157
291.45430,1.32518
291.21323,1.36888
290.97216,1.39581
290.73109,1.39716
290.49002,1.38512
290.24895,1.36150
290.00788,1.32893
289.76681,1.30382
289.52574,1.30566
289.28467,1.33518
289.04360,1.36663
288.80253,1.37435
288.56146,1.36106
288.32039,1.34393
288.07932,1.33278
287.83824,1.32910
287.59717,1.32899
287.35610,1.32500
287.11503,1.31348
286.87396,1.29943
286.63289,1.29060
286.39182,1.29115
286.15075,1.29883
285.90968,1.30397
285.66861,1.30134
285.42754,1.29779
285.18647,1.30177
284.94540,1.31243
284.70433,1.32060
284.46326,1.32040
284.22219,1.31350
283.98112,1.30011
283.74005,1.27951
283.49897,1.25999
283.25790,1.25146
283.01683,1.25292
282.77576,1.25680
282.53469,1.26112
282.29362,1.26990
282.05255,1.28317
281.81148,1.29489
281.57041,1.29968
281.32934,1.29606
281.08827,1.28462
280.84720,1.26930
280.60613,1.25736
280.36506,1.25413
280.12399,1.25847
279.88292,1.26249
279.64185,1.25999
279.40078,1.25401
279.15970,1.25264
278.91863,1.26182
278.67756,1.27807
278.43649,1.28700
278.19542,1.27673
277.95435,1.25654
277.71328,1.24465
277.47221,1.24489
277.23114,1.25010
276.99007,1.25422
276.74900,1.25946
276.50793,1.27163
276.26686,1.28781
276.02579,1.29808
275.78472,1.29546
275.54365,1.28071
275.30258,1.26309
275.06151,1.25456
274.82043,1.25919
274.57936,1.27021
274.33829,1.27914
274.09722,1.28326
273.85615,1.28190
273.61508,1.27376
273.37401,1.26342
273.13294,1.26217
272.89187,1.27610
272.65080,1.29792
272.40973,1.31003
272.16866,1.30558
271.92759,1.29817
271.68652,1.30175
271.44545,1.31652
271.20438,1.33297
270.96331,1.34335
270.72224,1.34653
270.48116,1.34289
270.24009,1.33080
269.99902,1.30847
269.75795,1.28078
269.51688,1.25865
269.27581,1.24946
269.03474,1.25183
268.79367,1.25833
268.55260,1.26413
268.31153,1.27104
268.07046,1.28035
267.82939,1.28999
267.58832,1.30086
267.34725,1.31368
267.10618,1.32253
266.86511,1.32257
266.62404,1.32060
266.38297,1.32641
266.14189,1.33797
265.90082,1.34660
265.65975,1.35288
265.41868,1.36266
265.17761,1.37384
264.93654,1.38200
264.69547,1.38823
264.45440,1.39325
264.21333,1.39852
263.97226,1.41160
263.73119,1.43664
263.49012,1.46679
263.24905,1.49423
263.00798,1.51669
262.76691,1.53225
262.52584,1.54072
262.28477,1.55325
262.04370,1.58383
261.80262,1.62167
261.56155,1.63206
261.32048,1.60846
261.07941,1.58678
260.83834,1.59049
260.59727,1.60945
260.35620,1.62804
260.11513,1.64209
259.87406,1.65353
259.63299,1.66704
259.39192,1.68797
259.15085,1.71928
258.90978,1.75202
258.66871,1.77823
258.42764,1.81865
258.18657,1.90142
257.94550,2.02814
257.70443,2.16524
257.46335,2.27542
257.22228,2.27333
256.98121,2.20290
256.74014,2.11252
256.49907,2.08309
256.25800,2.13029
256.01693,2.17295
255.77586,2.10178
255.53479,1.99522
255.29372,1.94766
255.05265,1.96033
254.81158,1.97682
254.57051,1.95360
254.32944,1.91840
254.08837,1.91127
253.84730,1.92278
253.60623,1.89826
253.36516,1.83106
253.12408,1.76407
252.88301,1.72588
252.64194,1.72698
252.40087,1.77162
252.15980,1.84968
251.91873,1.91372
251.67766,1.92131
251.43659,1.90484
251.19552,1.89510
250.95445,1.88468
250.71338,1.87662
250.47231,1.88972
250.23124,1.91949
249.99017,1.92616
249.74910,1.86259
249.50803,1.78991
249.26696,1.74796
249.02589,1.72304
248.78481,1.70197
248.54374,1.69224
248.30267,1.70303
248.06160,1.73423
247.82053,1.78500
247.57946,1.82766
247.33839,1.83169
247.09732,1.81228
246.85625,1.79558
246.61518,1.77309
246.37411,1.75965
246.13304,1.79759
245.89197,1.91770
245.65090,2.08272
245.40983,2.13026
245.16876,2.06059
244.92769,1.98626
244.68661,1.93421
244.44554,1.91635
244.20447,1.98635
243.96340,2.08468
243.72233,2.11925
243.48126,2.06948
243.24019,1.94657
242.99912,1.81951
242.75805,1.74981
242.51698,1.75058
242.27591,1.77903
242.03484,1.77170
241.79377,1.72996
241.55270,1.68907
241.31163,1.64604
241.07056,1.57758
240.82949,1.49229
240.58842,1.42721
240.34734,1.40086
240.10627,1.39431
239.86520,1.37414
239.62413,1.33274
239.38306,1.29007
239.14199,1.26238
238.90092,1.24518
238.65985,1.22599
238.41878,1.20052
238.17771,1.17122
237.93664,1.14164
237.69557,1.11606
237.45450,1.09833
237.21343,1.08813
236.97236,1.08056
236.73129,1.07216
236.49022,1.06422
236.24915,1.05937
236.00807,1.05944
235.76700,1.06517
235.52593,1.07222
235.28486,1.07064
235.04379,1.05711
234.80272,1.04119
234.56165,1.03131
234.32058,1.02527
234.07951,1.01857
233.83844,1.01150
233.59737,1.00369
233.35630,0.99087
233.11523,0.97112
232.87416,0.95144
232.63309,0.94183
232.39202,0.94452
232.15095,0.95155
231.90988,0.95341
231.66880,0.94807
231.42773,0.94080
231.18666,0.93741
230.94559,0.93713
230.70452,0.93443
230.46345,0.92839
230.22238,0.92237
229.98131,0.91535
229.74024,0.90568
229.49917,0.90114
229.25810,0.90986
229.01703,0.92561
228.77596,0.93437
228.53489,0.93242
228.29382,0.92567
228.05275,0.91741
227.81168,0.90817
227.57061,0.90238
227.32953,0.90554
227.08846,0.91430
226.84739,0.91724
226.60632,0.91037
226.36525,0.90308
226.12418,0.90265
225.88311,0.90456
225.64204,0.90060
225.40097,0.89200
225.15990,0.88751
224.91883,0.89046
224.67776,0.89592
224.43669,0.89931
224.19562,0.90071
223.95455,0.89922
223.71348,0.89184
223.47241,0.87988
223.23134,0.86905
222.99026,0.86441
222.74919,0.86780
222.50812,0.87854
222.26705,0.89580
222.02598,0.91967
221.78491,0.94608
221.54384,0.96444
221.30277,0.97139
221.06170,0.97591
220.82063,0.98225
220.57956,0.98657
220.33849,0.98735
220.09742,0.98311
219.85635,0.97219
219.61528,0.96271
219.37421,0.96462
219.13314,0.97449
218.89207,0.98339
218.65099,0.99506
218.40992,1.02102
218.16885,1.06182
217.92778,1.10523
217.68671,1.14114
217.44564,1.16477
217.20457,1.16451
216.96350,1.13976
216.72243,1.11315
216.48136,1.10039
216.24029,1.09872
215.99922,1.10134
215.75815,1.10972
215.51708,1.12491
215.27601,1.14069
215.03494,1.15552
214.79387,1.17809
214.55280,1.21409
214.31172,1.24768
214.07065,1.25442
213.82958,1.24185
213.58851,1.23319
213.34744,1.23337
213.10637,1.23663
212.86530,1.24158
212.62423,1.25193
212.38316,1.27180
212.14209,1.29696
211.90102,1.30925
211.65995,1.29528
211.41888,1.26386
211.17781,1.22908
210.93674,1.20036
210.69567,1.18503
210.45460,1.18586
210.21353,1.20433
209.97245,1.24592
209.73138,1.31614
209.49031,1.39422
209.24924,1.40883
209.00817,1.34495
208.76710,1.26790
208.52603,1.20746
208.28496,1.17008
208.04389,1.15928
207.80282,1.17604
207.56175,1.21485
207.32068,1.25883
207.07961,1.27567
206.83854,1.25503
206.59747,1.22310
206.35640,1.19617
206.11533,1.18041
205.87426,1.17729
205.63318,1.17813
205.39211,1.16870
205.15104,1.14429
204.90997,1.11346
204.66890,1.08979
204.42783,1.08277
204.18676,1.09006
203.94569,1.09760
203.70462,1.09235
203.46355,1.07663
203.22248,1.06468
202.98141,1.06638
202.74034,1.07807
202.49927,1.08730
202.25820,1.08313
202.01713,1.06099
201.77606,1.02897
201.53499,1.00020
201.29391,0.97642
201.05284,0.95215
200.81177,0.92801
200.57070,0.91020
200.32963,0.90113
200.08856,0.89713
199.84749,0.89087
199.60642,0.87679
199.36535,0.85810
199.12428,0.84428
198.88321,0.84250
198.64214,0.85121
198.40107,0.86010
198.16000,0.85763
197.91893,0.84186
197.67786,0.82097
197.43679,0.80280
197.19572,0.79283
196.95464,0.79551
196.71357,0.80649
196.47250,0.80697
196.23143,0.78626
195.99036,0.76163
195.74929,0.75331
195.50822,0.76473
195.26715,0.77620
195.02608,0.76101
194.78501,0.73010
194.54394,0.71374
194.30287,0.72168
194.06180,0.74062
193.82073,0.74755
193.57966,0.73608
193.33859,0.72053
193.09752,0.71114
192.85645,0.70720
192.61537,0.70431
192.37430,0.69975
192.13323,0.69355
191.89216,0.68770
191.65109,0.68362
191.41002,0.67997
191.16895,0.67536
190.92788,0.67220
190.68681,0.67326
190.44574,0.67501
190.20467,0.67017
189.96360,0.65890
189.72253,0.64973
189.48146,0.64780
189.24039,0.65044
188.99932,0.65263
188.75825,0.65181
188.51718,0.64706
188.27610,0.63896
188.03503,0.63197
187.79396,0.63097
187.55289,0.63526
187.31182,0.63986
187.07075,0.64054
186.82968,0.63730
186.58861,0.63491
186.34754,0.63709
186.10647,0.63949
185.86540,0.63501
185.62433,0.62683
185.38326,0.62415
185.14219,0.62755
184.90112,0.63034
184.66005,0.63111
184.41898,0.63405
184.17791,0.63926
183.93683,0.64074
183.69576,0.63571
183.45469,0.63100
183.21362,0.63427
182.97255,0.64371
182.73148,0.65070
182.49041,0.65262
182.24934,0.65486
182.00827,0.65881
181.76720,0.65960
181.52613,0.65634
181.28506,0.65469
181.04399,0.65757
180.80292,0.66069
180.56185,0.65970
180.32078,0.65653
180.07971,0.65441
179.83864,0.65298
179.59756,0.65207
179.35649,0.65543
179.11542,0.66564
178.87435,0.67890
178.63328,0.68902
178.39221,0.69737
178.15114,0.71337
177.91007,0.74030
177.66900,0.76454
177.42793,0.77176
177.18686,0.77184
176.94579,0.78045
176.70472,0.79501
176.46365,0.80753
176.22258,0.81976
175.98151,0.83015
175.74044,0.83241
175.49937,0.83205
175.25829,0.83766
175.01722,0.84446
174.77615,0.84620
174.53508,0.85104
174.29401,0.86761
174.05294,0.89036
173.81187,0.91144
173.57080,0.93357
173.32973,0.95723
173.08866,0.97245
172.84759,0.97608
172.60652,0.98172
172.36545,0.99638
172.12438,1.00580
171.88331,1.00275
171.64224,1.00341
171.40117,1.01616
171.16010,1.02805
170.91902,1.02775
170.67795,1.02305
170.43688,1.01910
170.19581,1.00638
169.95474,0.98279
169.71367,0.96145
169.47260,0.94974
169.23153,0.94338
168.99046,0.94023
168.74939,0.94496
168.50832,0.95822
168.26725,0.97070
168.02618,0.97217
167.78511,0.96407
167.54404,0.95670
167.30297,0.95347
167.06190,0.94793
166.82083,0.93707
166.57975,0.92675
166.33868,0.92134
166.09761,0.91974
165.85654,0.92275
165.61547,0.93354
165.37440,0.95097
165.13333,0.97025
164.89226,0.99034
164.65119,1.01448
164.41012,1.04365
164.16905,1.07154
163.92798,1.08564
163.68691,1.08052
163.44584,1.06406
163.20477,1.04426
162.96370,1.02484
162.72263,1.00918
162.48156,1.00183
162.24048,1.00506
161.99941,1.01513
161.75834,1.02438
161.51727,1.02797
161.27620,1.02816
161.03513,1.03232
160.79406,1.04601
160.55299,1.06553
160.31192,1.07503
160.07085,1.06052
159.82978,1.02963
159.58871,1.00192
159.34764,0.98817
159.10657,0.98582
158.86550,0.98861
158.62443,0.99536
158.38336,1.00602
158.14229,1.01424
157.90121,1.00931
157.66014,0.98933
157.41907,0.96759
157.17800,0.95419
156.93693,0.94866
156.69586,0.94998
156.45479,0.96110
156.21372,0.98296
155.97265,1.00380
155.73158,1.00237
155.49051,0.97406
155.24944,0.93440
155.00837,0.90189
154.76730,0.88811
154.52623,0.89096
154.28516,0.89717
154.04409,0.89520
153.80302,0.88518
153.56194,0.87310
153.32087,0.86001
153.07980,0.84420
152.83873,0.82799
152.59766,0.81616
152.35659,0.80989
152.11552,0.80418
151.87445,0.79223
151.63338,0.77281
151.39231,0.75206
151.15124,0.73803
150.91017,0.73285
150.66910,0.72927
150.42803,0.71674
150.18696,0.69379
149.94589,0.67005
149.70482,0.65447
149.46375,0.64828
149.22267,0.64826
148.98160,0.65108
148.74053,0.65303
148.49946,0.64807
148.25839,0.63267
148.01732,0.61415
147.77625,0.60529
147.53518,0.61146
147.29411,0.62439
147.05304,0.62766
146.81197,0.61599
146.57090,0.60284
146.32983,0.60110
146.08876,0.61128
145.84769,0.62415
145.60662,0.62966
145.36555,0.62866
145.12448,0.63034
144.88340,0.63886
144.64233,0.64903
144.40126,0.65303
144.16019,0.64967
143.91912,0.64452
143.67805,0.64223
143.43698,0.64316
143.19591,0.64581
142.95484,0.64810
142.71377,0.64682
142.47270,0.63884
142.23163,0.62404
141.99056,0.60709
141.74949,0.59523
141.50842,0.59188
141.26735,0.59327
141.02628,0.59257
140.78521,0.58600
140.54413,0.57467
140.30306,0.56299
140.06199,0.55602
139.82092,0.55660
139.57985,0.56334
139.33878,0.57115
139.09771,0.57547
138.85664,0.57721
138.61557,0.58172
138.37450,0.59119
138.13343,0.60159
137.89236,0.60914
137.65129,0.61603
137.41022,0.62555
137.16915,0.63617
136.92808,0.64498
136.68701,0.65353
136.44594,0.66554
136.20486,0.68069
135.96379,0.69646
135.72272,0.71527
135.48165,0.74282
135.24058,0.77955
134.99951,0.81916
134.75844,0.85653
134.51737,0.89306
134.27630,0.92866
134.03523,0.95734
133.79416,0.97462
133.55309,0.98255
133.31202,0.98870
133.07095,0.99820
132.82988,1.01003
132.58881,1.02883
132.34774,1.05548
132.10667,1.07389
131.86559,1.07725
131.62452,1.07905
131.38345,1.08244
131.14238,1.07825
130.90131,1.06758
130.66024,1.05872
130.41917,1.04966
130.17810,1.03805
129.93703,1.02951
129.69596,1.02148
129.45489,0.99943
129.21382,0.96116
128.97275,0.92566
128.73168,0.90774
128.49061,0.89874
128.24954,0.87839
128.00847,0.84264
127.76740,0.80685
127.52632,0.78186
127.28525,0.76268
127.04418,0.74036
126.80311,0.71542
126.56204,0.69401
126.32097,0.67855
126.07990,0.66678
125.83883,0.65461
125.59776,0.63847
125.35669,0.61811
125.11562,0.59726
124.87455,0.57964
124.63348,0.56593
124.39241,0.55539
124.15134,0.54862
123.91027,0.54762
123.66920,0.55239
123.42812,0.55794
123.18705,0.55800
122.94598,0.55170
122.70491,0.54349
122.46384,0.53772
122.22277,0.53623
121.98170,0.53812
121.74063,0.53949
121.49956,0.53708
121.25849,0.53257
121.01742,0.53041
120.77635,0.53260
120.53528,0.53793
120.29421,0.54437
120.05314,0.55021
119.81207,0.55477
119.57100,0.55952
119.32993,0.56762
119.08885,0.58201
118.84778,0.60418
118.60671,0.63425
118.36564,0.67049
118.12457,0.70877
117.88350,0.74530
117.64243,0.77955
117.40136,0.81111
117.16029,0.83670
116.91922,0.85615
116.67815,0.87591
116.43708,0.89701
116.19601,0.90681
115.95494,0.89652
115.71387,0.87134
115.47280,0.83866
115.23173,0.80412
114.99066,0.77418
114.74958,0.75479
114.50851,0.74625
114.26744,0.74102
114.02637,0.73118
113.78530,0.71758
113.54423,0.70581
113.30316,0.69925
113.06209,0.69857
112.82102,0.70528
112.57995,0.72131
112.33888,0.74395
112.09781,0.76827
111.85674,0.79400
111.61567,0.81984
111.37460,0.83356
111.13353,0.82433
110.89246,0.79826
110.65139,0.76912
110.41031,0.74743
110.16924,0.73671
109.92817,0.73403
109.68710,0.73456
109.44603,0.73554
109.20496,0.73869
108.96389,0.74865
108.72282,0.76318
108.48175,0.76617
108.24068,0.74174
107.99961,0.69434
107.75854,0.63633
107.51747,0.57794
107.27640,0.52909
107.03533,0.49502
106.79426,0.47392
106.55319,0.46378
106.31212,0.46924
106.07104,0.49704
105.82997,0.54217
105.58890,0.57447
105.34783,0.55637
105.10676,0.49999
104.86569,0.44243
104.62462,0.40146
104.38355,0.38123
104.14248,0.38223
103.90141,0.40213
103.66034,0.42984
103.41927,0.44317
103.17820,0.43064
102.93713,0.40522
102.69606,0.37953
102.45499,0.35889
102.21392,0.34860
101.97285,0.35175
101.73177,0.36346
101.49070,0.37168
101.24963,0.36761
101.00856,0.35513
100.76749,0.34384
100.52642,0.33936
100.28535,0.34283
100.04428,0.35288
99.80321,0.36355
99.56214,0.36121
99.32107,0.33868
99.08000,0.31071
98.83893,0.29856
98.59786,0.31382
98.35679,0.34702
98.11572,0.35945
97.87465,0.33090
97.63358,0.29823
97.39250,0.29194
97.15143,0.31577
96.91036,0.35126
96.66929,0.35988
96.42822,0.33464
96.18715,0.31481
95.94608,0.32258
95.70501,0.34980
95.46394,0.37117
95.22287,0.37610
94.98180,0.38020
94.74073,0.39263
94.49966,0.40137
94.25859,0.39293
94.01752,0.37930
93.77645,0.37939
93.53538,0.38926
93.29431,0.38952
93.05323,0.37957
92.81216,0.37828
92.57109,0.39146
92.33002,0.40336
92.08895,0.40053
91.84788,0.39436
91.60681,0.39776
91.36574,0.40363
91.12467,0.40382
90.88360,0.40919
90.64253,0.43559
90.40146,0.48080
90.16039,0.51535
89.91932,0.52509
89.67825,0.54402
89.43718,0.59146
89.19611,0.63629
88.95504,0.65338
88.71396,0.67542
88.47289,0.71030
88.23182,0.71310
87.99075,0.69927
87.74968,0.70932
87.50861,0.71793
87.26754,0.68964
87.02647,0.64550
86.78540,0.61328
86.54433,0.58526
86.30326,0.55390
86.06219,0.53176
85.82112,0.52213
85.58005,0.50954
85.33898,0.48416
85.09791,0.45368
84.85684,0.42780
84.61577,0.40770
84.37469,0.39115
84.13362,0.37879
83.89255,0.37036
83.65148,0.36075
83.41041,0.34686
83.16934,0.33287
82.92827,0.32282
82.68720,0.31309
82.44613,0.29906
82.20506,0.28385
81.96399,0.27271
81.72292,0.26572
81.48185,0.26078
81.24078,0.25837
80.99971,0.25779
80.75864,0.25479
80.51757,0.24563
80.27650,0.23229
80.03542,0.22135
79.79435,0.21660
79.55328,0.21596
79.31221,0.21587
79.07114,0.21614
78.83007,0.21820
78.58900,0.22168
78.34793,0.22540
78.10686,0.22823
77.86579,0.22829
77.62472,0.22515
77.38365,0.22143
77.14258,0.21998
76.90151,0.22096
76.66044,0.22295
76.41937,0.22432
76.17830,0.22466
75.93723,0.22625
75.69615,0.23087
75.45508,0.23530
75.21401,0.23370
74.97294,0.22481
74.73187,0.21411
74.49080,0.20825
74.24973,0.20916
74.00866,0.21386
73.76759,0.21978
73.52652,0.22723
73.28545,0.23532
73.04438,0.23874
72.80331,0.23237
72.56224,0.21774
72.32117,0.20145
72.08010,0.19104
71.83903,0.19294
71.59796,0.21079
71.35688,0.24401
71.11581,0.27799
70.87474,0.28157
70.63367,0.25352
70.39260,0.22394
70.15153,0.21189
69.91046,0.22269
69.66939,0.25277
69.42832,0.29337
69.18725,0.33474
68.94618,0.36848
68.70511,0.39054
68.46404,0.40020
68.22297,0.38995
67.98190,0.34891
67.74083,0.28791
67.49976,0.22837
67.25869,0.18394
67.01761,0.15804
66.77654,0.14589
66.53547,0.13981
66.29440,0.13559
66.05333,0.13387
65.81226,0.13733
65.57119,0.14793
65.33012,0.16694
65.08905,0.19239
64.84798,0.21648
64.60691,0.23205
64.36584,0.23896
64.12477,0.24025
63.88370,0.23563
63.64263,0.22408
63.40156,0.21127
63.16049,0.20582
62.91942,0.20862
62.67834,0.21096
62.43727,0.20438
62.19620,0.19079
61.95513,0.17738
61.71406,0.16669
61.47299,0.15948
61.23192,0.16023
60.99085,0.17242
60.74978,0.19283
60.50871,0.21483
60.26764,0.23581
60.02657,0.25772
59.78550,0.28208
59.54443,0.30799
59.30336,0.33399
59.06229,0.35170
58.82122,0.33953
58.58015,0.29637
58.33907,0.24474
58.09800,0.19760
57.85693,0.15731
57.61586,0.12473
57.37479,0.10075
57.13372,0.08460
56.89265,0.07531
56.65158,0.07319
56.41051,0.07923
56.16944,0.09371
55.92837,0.11551
55.68730,0.14351
55.44623,0.17904
55.20516,0.22657
54.96409,0.29793
54.72302,0.37910
54.48195,0.33349
54.24088,0.21402
53.99980,0.12791
53.75873,0.07918
53.51766,0.05592
53.27659,0.05047
53.03552,0.05841
52.79445,0.08403
52.55338,0.13977
52.31231,0.22912
52.07124,0.29143
51.83017,0.23210
51.58910,0.14407
51.34803,0.08241
51.10696,0.04966
50.86589,0.05176
50.62482,0.09807
50.38375,0.22960
50.14268,0.42521
49.90161,0.24000
49.66053,0.07546
49.41946,0.00804
49.17839,0.01524
48.93732,0.13034
48.69625,0.33313
48.45518,0.22864
48.21411,0.07536
47.97304,0.02279
47.73197,0.05758
47.49090,0.18543
47.24983,0.30413
47.00876,0.18709
46.76769,0.12025
46.52662,0.14372
46.28555,0.16798
46.04448,0.13190
45.80341,0.10167
45.56234,0.13409
45.32126,0.17535
45.08019,0.12454
44.83912,0.08399
44.59805,0.11707
44.35698,0.16446
44.11591,0.13038
43.87484,0.10774
43.63377,0.16139
43.39270,0.20245
43.15163,0.16716
42.91056,0.16819
42.66949,0.22783
42.42842,0.24950
42.18735,0.20152
41.94628,0.16538
41.70521,0.16182
41.46414,0.16795
41.22307,0.17113
40.98199,0.17471
40.74092,0.17340
40.49985,0.15504
40.25878,0.13036
40.01771,0.11950
39.77664,0.12598
39.53557,0.14378
39.29450,0.17372
39.05343,0.21110
38.81236,0.23098
38.57129,0.23004
38.33022,0.23758
38.08915,0.26038
37.84808,0.27501
37.60701,0.26424
37.36594,0.24325
37.12487,0.23747
36.88380,0.25372
36.64272,0.27638
36.40165,0.29500
36.16058,0.30993
35.91951,0.31749
35.67844,0.31045
35.43737,0.29134
35.19630,0.27665
34.95523,0.27218
34.71416,0.26388
34.47309,0.25401
34.23202,0.26955
33.99095,0.31054
33.74988,0.33622
33.50881,0.30549
33.26774,0.26119
33.02667,0.24624
32.78560,0.25605
32.54453,0.26676
32.30345,0.25777
32.06238,0.23824
31.82131,0.23783
31.58024,0.25834
31.33917,0.25831
31.09810,0.21937
30.85703,0.17222
30.61596,0.13969
30.37489,0.13144
30.13382,0.14680
29.89275,0.17346
29.65168,0.19742
29.41061,0.19943
29.16954,0.17033
28.92847,0.13679
28.68740,0.12981
28.44633,0.15120
28.20526,0.17477
27.96418,0.17969
27.72311,0.17746
27.48204,0.19024
27.24097,0.22170
26.99990,0.24954
26.75883,0.24914
26.51776,0.22242
26.27669,0.19456
26.03562,0.16704
25.79455,0.12711
25.55348,0.08839
25.31241,0.06674
25.07134,0.06526
24.83027,0.07693
24.58920,0.08193
24.34813,0.06532
24.10706,0.03055
23.86599,-0.01061
23.62491,-0.04267
23.38384,-0.04486
23.14277,-0.00841
22.90170,0.04564
22.66063,0.08095
22.41956,0.08769
22.17849,0.08368
21.93742,0.07885
21.69635,0.07552
21.45528,0.07820
21.21421,0.07570
20.97314,0.03765
20.73207,-0.02616
20.49100,-0.06094
20.24993,-0.04724
20.00886,-0.01601
19.76779,-0.00720
19.52672,-0.03158
19.28564,-0.06905
19.04457,-0.09584
18.80350,-0.11213
18.56243,-0.12785
18.32136,-0.13645
18.08029,-0.12349
17.83922,-0.10784
17.59815,-0.12532
17.35708,-0.17153
17.11601,-0.19437
16.87494,-0.15909
16.63387,-0.10772
16.39280,-0.09970
16.15173,-0.12548
15.91066,-0.14405
15.66959,-0.15710
15.42852,-0.16397
15.18745,-0.14891
14.94637,-0.11840
14.70530,-0.08996
14.46423,-0.07823
14.22316,-0.07861
13.98209,-0.03885
13.74102,0.02439
13.49995,0.06046
13.25888,0.06145
13.01781,0.04254
12.77674,0.02068
12.53567,-0.00269
12.29460,-0.03248
12.05353,-0.07331
11.81246,-0.11835
11.57139,-0.15495
11.33032,-0.14814
11.08925,-0.15750
10.84818,-0.17199
10.60710,-0.13984
10.36603,-0.02400
10.12496,0.03722
9.88389,0.01916
9.64282,-0.02953
9.40175,-0.07688
9.16068,-0.06509
8.91961,0.00010
8.67854,0.06219
8.43747,0.07494
8.19640,0.04759
7.95533,0.01992
7.71426,-0.00738
7.47319,0.00933
7.23212,0.04769
6.99105,0.08285
6.74998,0.10557
6.50891,0.09841
6.26783,0.04296
6.02676,-0.03732
5.78569,-0.09607
5.54462,-0.11346
5.30355,-0.11407
5.06248,-0.10233
4.82141,-0.06052
4.58034,-0.02071
4.33927,-0.01580
4.09820,-0.02313
3.85713,-0.02317
3.61606,-0.02719
3.37499,-0.04275
3.13392,-0.07658
2.89285,-0.11697
2.65178,-0.13366
2.41071,-0.14472
2.16964,-0.17709
1.92856,-0.16000
1.68749,-0.09766
1.44642,-0.06800
1.20535,-0.04648
0.96428,-0.00943
0.72321,0.01842
0.48214,-0.03429
0.24107,-0.10593
-0.00000,0.09250
