399.69498,1.76378
399.45391,1.75800
399.21284,1.77722
398.97177,1.80439
398.73070,1.84429
398.48963,1.94503
398.24856,2.10721
398.00749,2.13512
397.76642,2.02123
397.52535,1.93142
397.28428,1.85608
397.04321,1.80387
396.80214,1.82257
396.56107,1.95349
396.32000,2.15052
396.07892,2.12461
395.83785,2.00730
395.59678,1.94483
395.35571,1.92279
395.11464,1.91821
394.87357,1.92625
394.63250,1.94663
394.39143,1.99905
394.15036,2.09525
393.90929,2.24973
393.66822,2.21606
393.42715,2.06302
393.18608,2.02360
392.94501,2.12245
392.70394,2.21518
392.46287,2.16844
392.22180,2.06676
391.98073,1.95967
391.73965,1.84675
391.49858,1.78252
391.25751,1.79747
391.01644,1.88459
390.77537,2.00292
390.53430,2.05178
390.29323,2.02076
390.05216,2.03774
389.81109,2.10574
389.57002,2.07755
389.32895,2.00839
389.08788,1.98055
388.84681,2.03850
388.60574,2.20691
388.36467,2.41362
388.12360,2.43322
387.88253,2.36182
387.64146,2.35769
387.40038,2.39446
387.15931,2.20737
386.91824,2.05820
386.67717,1.98192
386.43610,1.94419
386.19503,1.98575
385.95396,2.18070
385.71289,2.55092
385.47182,2.68640
385.23075,2.48637
384.98968,2.41769
384.74861,2.25265
384.50754,2.09825
384.26647,2.04701
384.02540,2.09974
383.78433,2.18263
383.54326,2.12534
383.30219,2.05582
383.06111,2.06922
382.82004,2.00234
382.57897,1.92315
382.33790,1.85171
382.09683,1.76960
381.85576,1.71902
381.61469,1.77871
381.37362,2.03218
381.13255,2.40736
380.89148,2.42507
380.65041,2.37290
380.40934,2.22484
380.16827,2.11364
379.92720,2.12804
379.68613,2.15047
379.44506,2.12674
379.20399,2.09713
378.96292,2.15050
378.72184,2.20612
378.48077,2.14806
378.23970,1.91149
377.99863,1.79366
377.75756,1.81818
377.51649,1.91778
377.27542,2.05402
377.03435,2.11682
376.79328,2.04710
376.55221,2.07227
376.31114,2.21543
376.07007,2.24990
375.82900,2.09196
375.58793,1.97239
375.34686,1.87409
375.10579,1.82710
374.86472,1.83667
374.62365,1.87004
374.38257,1.90175
374.14150,1.88532
373.90043,1.80697
373.65936,1.77526
373.41829,1.81872
373.17722,1.91572
372.93615,1.99739
372.69508,2.01868
372.45401,2.01849
372.21294,2.00970
371.97187,1.98943
371.73080,1.94088
371.48973,1.85781
371.24866,1.76911
371.00759,1.71040
370.76652,1.69322
370.52545,1.70385
370.28437,1.72694
370.04330,1.75180
369.80223,1.75890
369.56116,1.73668
369.32009,1.70328
369.07902,1.67262
368.83795,1.63175
368.59688,1.57887
368.35581,1.53711
368.11474,1.52113
367.87367,1.52058
367.63260,1.51734
367.39153,1.51174
367.15046,1.52711
366.90939,1.58141
366.66832,1.64695
366.42725,1.65533
366.18618,1.60292
365.94510,1.55126
365.70403,1.53977
365.46296,1.56415
365.22189,1.58609
364.98082,1.57359
364.73975,1.54018
364.49868,1.51466
364.25761,1.50414
364.01654,1.49671
363.77547,1.48347
363.53440,1.46924
363.29333,1.46553
363.05226,1.47822
362.81119,1.49215
362.57012,1.48211
362.32905,1.45194
362.08798,1.43633
361.84691,1.45499
361.60583,1.49321
361.36476,1.52360
361.12369,1.53851
360.88262,1.53772
360.64155,1.51987
360.40048,1.49193
360.15941,1.45965
359.91834,1.43521
359.67727,1.43412
359.43620,1.45696
359.19513,1.48548
358.95406,1.50289
358.71299,1.51223
358.47192,1.51714
358.23085,1.50638
357.98978,1.48190
357.74871,1.46691
357.50764,1.47630
357.26656,1.50035
357.02549,1.51540
356.78442,1.51304
356.54335,1.50219
356.30228,1.49160
356.06121,1.48311
355.82014,1.47291
355.57907,1.46006
355.33800,1.45209
355.09693,1.46331
354.85586,1.49814
354.61479,1.53757
354.37372,1.54707
354.13265,1.51557
353.89158,1.46760
353.65051,1.42801
353.40944,1.41502
353.16837,1.43379
352.92729,1.47529
352.68622,1.51204
352.44515,1.50483
352.20408,1.44965
351.96301,1.39247
351.72194,1.37644
351.48087,1.40686
351.23980,1.45284
350.99873,1.47441
350.75766,1.46345
350.51659,1.44806
350.27552,1.45463
350.03445,1.47964
349.79338,1.50318
349.55231,1.51701
349.31124,1.52824
349.07017,1.54469
348.82910,1.56224
348.58802,1.56622
348.34695,1.55262
348.10588,1.53775
347.86481,1.53488
347.62374,1.53607
347.38267,1.52770
347.14160,1.51506
346.90053,1.51773
346.65946,1.54465
346.41839,1.57275
346.17732,1.56902
345.93625,1.53842
345.69518,1.50833
345.45411,1.49500
345.21304,1.50120
344.97197,1.51373
344.73090,1.51206
344.48983,1.49464
344.24875,1.47522
344.00768,1.46454
343.76661,1.46648
343.52554,1.47913
343.28447,1.49982
343.04340,1.52449
342.80233,1.54461
342.56126,1.55739
342.32019,1.57112
342.07912,1.58335
341.83805,1.58225
341.59698,1.57258
341.35591,1.57052
341.11484,1.60728
340.87377,1.71119
340.63270,1.85394
340.39163,1.92066
340.15056,1.85749
339.90948,1.79515
339.66841,1.80382
339.42734,1.83069
339.18627,1.81557
338.94520,1.78374
338.70413,1.75256
338.46306,1.72631
338.22199,1.72922
337.98092,1.77614
337.73985,1.86913
337.49878,2.01594
337.25771,2.25282
337.01664,2.57707
336.77557,2.91077
336.53450,2.52616
336.29343,2.11656
336.05236,1.87333
335.81129,1.78388
335.57021,1.80662
335.32914,1.87227
335.08807,1.87881
334.84700,1.80923
334.60593,1.75654
334.36486,1.79185
334.12379,1.89603
333.88272,1.95297
333.64165,1.92081
333.40058,1.90097
333.15951,1.92256
332.91844,1.92765
332.67737,1.87854
332.43630,1.82676
332.19523,1.80100
331.95416,1.75972
331.71309,1.70428
331.47202,1.67023
331.23094,1.65705
330.98987,1.65243
330.74880,1.64312
330.50773,1.62852
330.26666,1.61774
330.02559,1.60782
329.78452,1.59579
329.54345,1.59380
329.30238,1.61217
329.06131,1.63804
328.82024,1.65513
328.57917,1.67582
328.33810,1.69649
328.09703,1.71300
327.85596,1.72888
327.61489,1.72771
327.37382,1.70749
327.13275,1.69405
326.89167,1.69275
326.65060,1.67977
326.40953,1.64318
326.16846,1.59162
325.92739,1.55151
325.68632,1.54966
325.44525,1.60462
325.20418,1.72729
324.96311,1.90762
324.72204,2.06818
324.48097,2.06744
324.23990,1.90734
323.99883,1.73240
323.75776,1.61903
323.51669,1.57899
323.27562,1.60779
323.03455,1.67643
322.79348,1.73745
322.55240,1.75942
322.31133,1.74440
322.07026,1.70773
321.82919,1.69552
321.58812,1.71491
321.34705,1.74599
321.10598,1.81085
320.86491,1.81086
320.62384,1.78880
320.38277,1.78147
320.14170,1.74284
319.90063,1.70444
319.65956,1.71402
319.41849,1.72460
319.17742,1.67695
318.93635,1.65653
318.69528,1.71537
318.45421,1.80210
318.21313,1.78867
317.97206,1.71057
317.73099,1.66736
317.48992,1.69359
317.24885,1.77223
317.00778,1.80213
316.76671,1.80285
316.52564,1.82069
316.28457,1.86045
316.04350,1.89844
315.80243,1.87267
315.56136,1.81166
315.32029,1.78222
315.07922,1.81062
314.83815,1.91779
314.59708,2.12856
314.35601,2.48233
314.11494,2.57292
313.87386,2.21610
313.63279,2.02549
313.39172,1.94517
313.15065,1.88461
312.90958,1.86510
312.66851,1.89634
312.42744,1.94922
312.18637,2.05821
311.94530,2.28658
311.70423,2.33596
311.46316,2.10334
311.22209,2.07230
310.98102,2.23296
310.73995,2.10712
310.49888,2.00318
310.25781,2.08234
310.01674,2.25186
309.77567,2.28715
309.53459,2.27354
309.29352,2.05155
309.05245,1.87712
308.81138,1.79618
308.57031,1.76699
308.32924,1.76359
308.08817,1.80697
307.84710,1.93622
307.60603,2.14918
307.36496,2.37087
307.12389,2.32746
306.88282,2.01354
306.64175,1.82235
306.40068,1.73202
306.15961,1.65939
305.91854,1.57682
305.67747,1.50597
305.43640,1.47320
305.19532,1.46970
304.95425,1.47144
304.71318,1.47209
304.47211,1.47945
304.23104,1.48466
303.98997,1.47074
303.74890,1.45256
303.50783,1.45406
303.26676,1.47131
303.02569,1.47582
302.78462,1.44634
302.54355,1.39613
302.30248,1.35526
302.06141,1.33910
301.82034,1.34482
301.57927,1.36228
301.33820,1.37624
301.09713,1.37288
300.85605,1.35652
300.61498,1.33852
300.37391,1.32431
300.13284,1.31601
299.89177,1.31214
299.65070,1.30975
299.40963,1.31026
299.16856,1.31616
298.92749,1.31984
298.68642,1.30558
298.44535,1.27204
298.20428,1.23712
297.96321,1.21623
297.72214,1.20857
297.48107,1.20497
297.24000,1.20389
296.99893,1.20770
296.75786,1.21003
296.51678,1.20140
296.27571,1.18534
296.03464,1.17567
295.79357,1.17776
295.55250,1.18451
295.31143,1.18934
295.07036,1.19253
294.82929,1.19544
294.58822,1.19606
294.34715,1.19180
294.10608,1.18238
293.86501,1.16721
293.62394,1.14541
293.38287,1.12112
293.14180,1.10527
292.90073,1.10595
292.65966,1.11914
292.41859,1.13310
292.17751,1.13936
291.93644,1.13765
291.69537,1.13270
291.45430,1.12818
291.21323,1.12352
290.97216,1.11624
290.73109,1.10789
290.49002,1.10421
290.24895,1.10729
290.00788,1.11338
289.76681,1.11873
289.52574,1.11958
289.28467,1.11058
289.04360,1.09179
288.80253,1.07277
288.56146,1.06374
288.32039,1.06575
288.07932,1.07221
287.83824,1.07775
287.59717,1.08292
287.35610,1.08987
287.11503,1.09560
286.87396,1.09400
286.63289,1.08463
286.39182,1.07401
286.15075,1.06785
285.90968,1.06624
285.66861,1.06591
285.42754,1.06459
285.18647,1.06259
284.94540,1.06040
284.70433,1.05750
284.46326,1.05364
284.22219,1.04795
283.98112,1.03923
283.74005,1.02967
283.49897,1.02452
283.25790,1.02701
283.01683,1.03603
282.77576,1.04832
282.53469,1.05998
282.29362,1.06575
282.05255,1.06122
281.81148,1.04833
281.57041,1.03540
281.32934,1.03006
281.08827,1.03296
280.84720,1.03842
280.60613,1.03917
280.36506,1.03084
280.12399,1.01625
279.88292,1.00366
279.64185,0.99838
279.40078,0.99822
279.15970,0.99943
278.91863,1.00271
278.67756,1.01021
278.43649,1.02012
278.19542,1.02820
277.95435,1.03288
277.71328,1.03537
277.47221,1.03629
277.23114,1.03516
276.99007,1.03175
276.74900,1.02632
276.50793,1.02025
276.26686,1.01536
276.02579,1.01289
275.78472,1.01369
275.54365,1.01694
275.30258,1.01913
275.06151,1.01790
274.82043,1.01588
274.57936,1.01553
274.33829,1.01320
274.09722,1.00570
273.85615,0.99848
273.61508,0.99834
273.37401,1.00399
273.13294,1.01041
272.89187,1.01674
272.65080,1.02456
272.40973,1.03165
272.16866,1.03329
271.92759,1.02959
271.68652,1.02502
271.44545,1.02207
271.20438,1.02001
270.96331,1.01836
270.72224,1.01813
270.48116,1.02016
270.24009,1.02477
269.99902,1.03198
269.75795,1.04008
269.51688,1.04698
269.27581,1.05349
269.03474,1.05997
268.79367,1.06337
268.55260,1.06103
268.31153,1.05414
268.07046,1.04718
267.82939,1.04583
267.58832,1.05371
267.34725,1.06873
267.10618,1.08264
266.86511,1.08698
266.62404,1.08197
266.38297,1.07710
266.14189,1.08072
265.90082,1.09182
265.65975,1.10413
265.41868,1.11322
265.17761,1.11820
264.93654,1.11983
264.69547,1.11921
264.45440,1.11861
264.21333,1.12092
263.97226,1.12856
263.73119,1.14294
263.49012,1.16123
263.24905,1.17571
263.00798,1.18267
262.76691,1.18936
262.52584,1.20461
262.28477,1.22411
262.04370,1.23346
261.80262,1.22756
261.56155,1.21702
261.32048,1.21401
261.07941,1.22227
260.83834,1.24033
260.59727,1.26545
260.35620,1.29183
260.11513,1.31192
259.87406,1.32490
259.63299,1.33653
259.39192,1.34903
259.15085,1.36024
258.90978,1.37074
258.66871,1.38835
258.42764,1.41914
258.18657,1.44902
257.94550,1.45240
257.70443,1.43384
257.46335,1.43141
257.22228,1.46895
256.98121,1.52510
256.74014,1.55591
256.49907,1.55594
256.25800,1.55617
256.01693,1.57954
255.77586,1.62019
255.53479,1.65314
255.29372,1.67341
255.05265,1.69004
254.81158,1.69423
254.57051,1.68106
254.32944,1.67469
254.08837,1.70666
253.84730,1.78576
253.60623,1.90359
253.36516,2.04455
253.12408,2.16371
252.88301,2.23588
252.64194,2.31112
252.40087,2.40270
252.15980,2.28157
251.91873,2.18841
251.67766,2.14757
251.43659,2.08035
251.19552,2.01252
250.95445,1.97857
250.71338,1.98855
250.47231,2.01389
250.23124,2.02265
249.99017,1.98437
249.74910,1.94092
249.50803,1.98987
249.26696,2.12697
249.02589,2.21701
248.78481,2.24164
248.54374,2.30437
248.30267,2.38640
248.06160,2.43519
247.82053,2.24243
247.57946,2.03661
247.33839,1.96569
247.09732,2.01288
246.85625,2.09026
246.61518,2.13650
246.37411,2.15657
246.13304,2.11602
245.89197,2.01336
245.65090,1.92884
245.40983,1.91061
245.16876,1.94551
244.92769,1.96788
244.68661,1.90459
244.44554,1.77428
244.20447,1.65983
243.96340,1.58947
243.72233,1.54690
243.48126,1.51380
243.24019,1.48116
242.99912,1.44952
242.75805,1.42250
242.51698,1.40091
242.27591,1.37982
242.03484,1.35024
241.79377,1.30970
241.55270,1.26330
241.31163,1.21598
241.07056,1.17169
240.82949,1.13420
240.58842,1.10536
240.34734,1.08307
240.10627,1.06210
239.86520,1.03914
239.62413,1.01591
239.38306,0.99581
239.14199,0.97951
238.90092,0.96473
238.65985,0.94905
238.41878,0.93270
238.17771,0.91906
237.93664,0.91189
237.69557,0.91062
237.45450,0.90922
237.21343,0.90112
236.97236,0.88484
236.73129,0.86446
236.49022,0.84594
236.24915,0.83292
236.00807,0.82558
235.76700,0.82149
235.52593,0.81604
235.28486,0.80555
235.04379,0.79223
234.80272,0.78249
234.56165,0.77948
234.32058,0.78022
234.07951,0.77975
233.83844,0.77630
233.59737,0.77214
233.35630,0.76945
233.11523,0.76650
232.87416,0.76015
232.63309,0.75132
232.39202,0.74420
232.15095,0.74101
231.90988,0.74044
231.66880,0.74037
231.42773,0.73968
231.18666,0.73799
230.94559,0.73600
230.70452,0.73495
230.46345,0.73484
230.22238,0.73401
229.98131,0.73157
229.74024,0.73005
229.49917,0.73199
229.25810,0.73472
229.01703,0.73241
228.77596,0.72435
228.53489,0.71708
228.29382,0.71556
228.05275,0.71631
227.81168,0.71252
227.57061,0.70443
227.32953,0.69941
227.08846,0.70167
226.84739,0.70762
226.60632,0.71169
226.36525,0.71195
226.12418,0.70938
225.88311,0.70603
225.64204,0.70435
225.40097,0.70471
225.15990,0.70456
224.91883,0.70259
224.67776,0.70131
224.43669,0.70380
224.19562,0.71006
223.95455,0.71713
223.71348,0.72162
223.47241,0.72204
223.23134,0.71938
222.99026,0.71633
222.74919,0.71588
222.50812,0.72003
222.26705,0.72897
222.02598,0.74051
221.78491,0.74985
221.54384,0.75206
221.30277,0.74741
221.06170,0.74288
220.82063,0.74550
220.57956,0.75497
220.33849,0.76465
220.09742,0.77015
219.85635,0.77402
219.61528,0.77979
219.37421,0.78626
219.13314,0.79148
218.89207,0.79825
218.65099,0.81019
218.40992,0.82478
218.16885,0.83609
217.92778,0.84292
217.68671,0.84902
217.44564,0.85643
217.20457,0.86458
216.96350,0.87379
216.72243,0.88454
216.48136,0.89515
216.24029,0.90252
215.99922,0.90493
215.75815,0.90449
215.51708,0.90639
215.27601,0.91485
215.03494,0.92947
214.79387,0.94602
214.55280,0.96044
214.31172,0.97088
214.07065,0.97671
213.82958,0.97849
213.58851,0.97881
213.34744,0.98198
213.10637,0.98983
212.86530,0.99745
212.62423,0.99786
212.38316,0.99170
212.14209,0.98758
211.90102,0.99131
211.65995,0.99820
211.41888,1.00024
211.17781,0.99814
210.93674,0.99906
210.69567,1.00581
210.45460,1.01441
210.21353,1.01931
209.97245,1.01902
209.73138,1.01771
209.49031,1.02087
209.24924,1.02737
209.00817,1.02965
208.76710,1.02553
208.52603,1.02029
208.28496,1.01495
208.04389,1.00386
207.80282,0.98764
207.56175,0.97591
207.32068,0.97342
207.07961,0.97366
206.83854,0.96840
206.59747,0.95823
206.35640,0.95027
206.11533,0.94715
205.87426,0.94414
205.63318,0.93677
205.39211,0.92637
205.15104,0.91688
204.90997,0.90968
204.66890,0.90294
204.42783,0.89468
204.18676,0.88542
203.94569,0.87704
203.70462,0.86916
203.46355,0.85897
203.22248,0.84574
202.98141,0.83283
202.74034,0.82368
202.49927,0.81751
202.25820,0.81057
202.01713,0.80034
201.77606,0.78743
201.53499,0.77419
201.29391,0.76226
201.05284,0.75174
200.81177,0.74193
200.57070,0.73225
200.32963,0.72279
200.08856,0.71412
199.84749,0.70625
199.60642,0.69804
199.36535,0.68849
199.12428,0.67864
198.88321,0.67089
198.64214,0.66583
198.40107,0.66116
198.16000,0.65456
197.91893,0.64586
197.67786,0.63591
197.43679,0.62604
197.19572,0.61887
196.95464,0.61652
196.71357,0.61691
196.47250,0.61467
196.23143,0.60657
195.99036,0.59466
195.74929,0.58324
195.50822,0.57418
195.26715,0.56620
195.02608,0.55822
194.78501,0.55158
194.54394,0.54848
194.30287,0.54901
194.06180,0.55046
193.82073,0.54937
193.57966,0.54446
193.33859,0.53771
193.09752,0.53226
192.85645,0.52925
192.61537,0.52728
192.37430,0.52452
192.13323,0.52097
191.89216,0.51792
191.65109,0.51554
191.41002,0.51246
191.16895,0.50841
190.92788,0.50493
190.68681,0.50258
190.44574,0.49977
190.20467,0.49515
189.96360,0.48944
189.72253,0.48468
189.48146,0.48221
189.24039,0.48098
188.99932,0.47844
188.75825,0.47423
188.51718,0.47137
188.27610,0.47228
188.03503,0.47527
187.79396,0.47679
187.55289,0.47554
187.31182,0.47298
187.07075,0.47098
186.82968,0.47047
186.58861,0.47133
186.34754,0.47263
186.10647,0.47333
185.86540,0.47290
185.62433,0.47124
185.38326,0.46854
185.14219,0.46594
184.90112,0.46545
184.66005,0.46787
184.41898,0.47135
184.17791,0.47287
183.93683,0.47137
183.69576,0.46867
183.45469,0.46752
183.21362,0.46881
182.97255,0.47099
182.73148,0.47234
182.49041,0.47323
182.24934,0.47519
182.00827,0.47802
181.76720,0.47962
181.52613,0.47879
181.28506,0.47698
181.04399,0.47688
180.80292,0.47963
180.56185,0.48340
180.32078,0.48531
180.07971,0.48505
179.83864,0.48525
179.59756,0.48816
179.35649,0.49340
179.11542,0.49965
178.87435,0.50665
178.63328,0.51448
178.39221,0.52225
178.15114,0.52885
177.91007,0.53467
177.66900,0.54183
177.42793,0.55193
177.18686,0.56388
176.94579,0.57509
176.70472,0.58498
176.46365,0.59528
176.22258,0.60723
175.98151,0.62063
175.74044,0.63500
175.49937,0.64950
175.25829,0.66334
175.01722,0.67730
174.77615,0.69284
174.53508,0.70948
174.29401,0.72474
174.05294,0.73664
173.81187,0.74461
173.57080,0.74938
173.32973,0.75355
173.08866,0.76020
172.84759,0.76966
172.60652,0.77957
172.36545,0.78731
172.12438,0.79188
171.88331,0.79405
171.64224,0.79440
171.40117,0.79148
171.16010,0.78427
170.91902,0.77627
170.67795,0.77324
170.43688,0.77713
170.19581,0.78344
169.95474,0.78498
169.71367,0.77899
169.47260,0.76921
169.23153,0.76107
168.99046,0.75664
168.74939,0.75459
168.50832,0.75313
168.26725,0.75116
168.02618,0.74804
167.78511,0.74415
167.54404,0.74094
167.30297,0.73954
167.06190,0.74045
166.82083,0.74391
166.57975,0.74896
166.33868,0.75309
166.09761,0.75470
165.85654,0.75525
165.61547,0.75725
165.37440,0.76145
165.13333,0.76777
164.89226,0.77626
164.65119,0.78545
164.41012,0.79309
164.16905,0.79934
163.92798,0.80533
163.68691,0.80972
163.44584,0.81112
163.20477,0.81136
162.96370,0.81269
162.72263,0.81483
162.48156,0.81719
162.24048,0.82108
161.99941,0.82846
161.75834,0.83919
161.51727,0.84891
161.27620,0.85188
161.03513,0.84851
160.79406,0.84545
160.55299,0.84558
160.31192,0.84404
160.07085,0.83743
159.82978,0.83004
159.58871,0.82619
159.34764,0.82329
159.10657,0.81708
158.86550,0.80888
158.62443,0.80358
158.38336,0.80235
158.14229,0.80052
157.90121,0.79421
157.66014,0.78629
157.41907,0.78263
157.17800,0.78472
156.93693,0.78854
156.69586,0.78949
156.45479,0.78597
156.21372,0.77909
155.97265,0.77184
155.73158,0.76802
155.49051,0.76737
155.24944,0.76347
155.00837,0.75160
154.76730,0.73637
154.52623,0.72588
154.28516,0.72165
154.04409,0.71803
153.80302,0.70940
153.56194,0.69568
153.32087,0.68122
153.07980,0.66949
152.83873,0.65972
152.59766,0.64886
152.35659,0.63547
152.11552,0.62031
151.87445,0.60469
151.63338,0.58974
151.39231,0.57649
151.15124,0.56565
150.91017,0.55694
150.66910,0.54829
150.42803,0.53725
150.18696,0.52468
149.94589,0.51442
149.70482,0.50800
149.46375,0.50267
149.22267,0.49589
148.98160,0.48910
148.74053,0.48490
148.49946,0.48246
148.25839,0.47823
148.01732,0.47102
147.77625,0.46354
147.53518,0.45854
147.29411,0.45586
147.05304,0.45431
146.81197,0.45390
146.57090,0.45481
146.32983,0.45621
146.08876,0.45734
145.84769,0.45873
145.60662,0.46176
145.36555,0.46697
145.12448,0.47312
144.88340,0.47839
144.64233,0.48229
144.40126,0.48566
144.16019,0.48893
143.91912,0.49137
143.67805,0.49224
143.43698,0.49189
143.19591,0.49069
142.95484,0.48752
142.71377,0.48084
142.47270,0.47130
142.23163,0.46168
141.99056,0.45392
141.74949,0.44778
141.50842,0.44230
141.26735,0.43717
141.02628,0.43263
140.78521,0.42878
140.54413,0.42516
140.30306,0.42108
140.06199,0.41673
139.82092,0.41355
139.57985,0.41328
139.33878,0.41609
139.09771,0.41985
138.85664,0.42284
138.61557,0.42704
138.37450,0.43558
138.13343,0.44769
137.89236,0.45917
137.65129,0.46775
137.41022,0.47509
137.16915,0.48379
136.92808,0.49523
136.68701,0.50932
136.44594,0.52507
136.20486,0.54152
135.96379,0.55860
135.72272,0.57695
135.48165,0.59735
135.24058,0.61923
134.99951,0.64034
134.75844,0.65976
134.51737,0.68048
134.27630,0.70599
134.03523,0.73439
133.79416,0.75928
133.55309,0.77749
133.31202,0.79244
133.07095,0.80892
132.82988,0.82767
132.58881,0.84551
132.34774,0.85817
132.10667,0.86405
131.86559,0.86714
131.62452,0.87330
131.38345,0.88295
131.14238,0.88952
130.90131,0.88600
130.66024,0.87144
130.41917,0.85067
130.17810,0.83056
129.93703,0.81614
129.69596,0.80617
129.45489,0.79384
129.21382,0.77485
128.97275,0.75135
128.73168,0.72615
128.49061,0.69935
128.24954,0.67209
128.00847,0.64736
127.76740,0.62622
127.52632,0.60739
127.28525,0.59003
127.04418,0.57385
126.80311,0.55682
126.56204,0.53633
126.32097,0.51296
126.07990,0.49075
125.83883,0.47297
125.59776,0.45909
125.35669,0.44650
125.11562,0.43436
124.87455,0.42402
124.63348,0.41609
124.39241,0.40894
124.15134,0.40054
123.91027,0.39076
123.66920,0.38148
123.42812,0.37450
123.18705,0.36939
122.94598,0.36433
122.70491,0.35896
122.46384,0.35483
122.22277,0.35323
121.98170,0.35387
121.74063,0.35523
121.49956,0.35557
121.25849,0.35444
121.01742,0.35360
120.77635,0.35533
120.53528,0.35972
120.29421,0.36554
120.05314,0.37324
119.81207,0.38457
119.57100,0.39951
119.32993,0.41623
119.08885,0.43397
118.84778,0.45385
118.60671,0.47662
118.36564,0.50120
118.12457,0.52567
117.88350,0.54855
117.64243,0.56903
117.40136,0.58607
117.16029,0.59813
116.91922,0.60466
116.67815,0.60676
116.43708,0.60500
116.19601,0.59895
115.95494,0.59005
115.71387,0.58215
115.47280,0.57783
115.23173,0.57570
114.99066,0.57122
114.74958,0.56100
114.50851,0.54651
114.26744,0.53251
114.02637,0.52238
113.78530,0.51674
113.54423,0.51434
113.30316,0.51252
113.06209,0.50872
112.82102,0.50338
112.57995,0.50003
112.33888,0.50238
112.09781,0.51172
111.85674,0.52515
111.61567,0.53679
111.37460,0.54281
111.13353,0.54471
110.89246,0.54600
110.65139,0.54655
110.41031,0.54324
110.16924,0.53512
109.92817,0.52544
109.68710,0.51792
109.44603,0.51213
109.20496,0.50423
108.96389,0.49189
108.72282,0.47676
108.48175,0.46151
108.24068,0.44645
107.99961,0.43059
107.75854,0.41445
107.51747,0.39979
107.27640,0.38749
107.03533,0.37691
106.79426,0.36687
106.55319,0.35660
106.31212,0.34600
106.07104,0.33526
105.82997,0.32458
105.58890,0.31443
105.34783,0.30536
105.10676,0.29699
104.86569,0.28830
104.62462,0.27982
104.38355,0.27342
104.14248,0.26949
103.90141,0.26608
103.66034,0.26125
103.41927,0.25492
103.17820,0.24839
102.93713,0.24286
102.69606,0.23869
102.45499,0.23563
102.21392,0.23345
101.97285,0.23169
101.73177,0.22915
101.49070,0.22496
101.24963,0.21956
101.00856,0.21392
100.76749,0.20844
100.52642,0.20338
100.28535,0.19946
100.04428,0.19732
99.80321,0.19660
99.56214,0.19601
99.32107,0.19422
99.08000,0.19094
98.83893,0.18743
98.59786,0.18566
98.35679,0.18663
98.11572,0.18960
97.87465,0.19245
97.63358,0.19262
97.39250,0.18910
97.15143,0.18436
96.91036,0.18297
96.66929,0.18719
96.42822,0.19524
96.18715,0.20365
95.94608,0.20986
95.70501,0.21353
95.46394,0.21664
95.22287,0.22138
94.98180,0.22742
94.74073,0.23255
94.49966,0.23552
94.25859,0.23651
94.01752,0.23613
93.77645,0.23537
93.53538,0.23527
93.29431,0.23536
93.05323,0.23404
92.81216,0.23115
92.57109,0.22897
92.33002,0.23003
92.08895,0.23455
91.84788,0.24024
91.60681,0.24495
91.36574,0.24918
91.12467,0.25497
90.88360,0.26359
90.64253,0.27624
90.40146,0.29532
90.16039,0.32206
89.91932,0.35376
89.67825,0.38618
89.43718,0.41870
89.19611,0.45408
88.95504,0.49212
88.71396,0.52563
88.47289,0.54491
88.23182,0.54595
87.99075,0.53340
87.74968,0.51558
87.50861,0.49652
87.26754,0.47405
87.02647,0.44574
86.78540,0.41417
86.54433,0.38401
86.30326,0.35669
86.06219,0.33034
85.82112,0.30421
85.58005,0.28085
85.33898,0.26314
85.09791,0.25030
84.85684,0.23853
84.61577,0.22567
84.37469,0.21318
84.13362,0.20283
83.89255,0.19410
83.65148,0.18574
83.41041,0.17775
83.16934,0.17072
82.92827,0.16475
82.68720,0.15961
82.44613,0.15501
82.20506,0.15062
81.96399,0.14657
81.72292,0.14318
81.48185,0.14020
81.24078,0.13699
80.99971,0.13363
80.75864,0.13090
80.51757,0.12887
80.27650,0.12643
80.03542,0.12285
79.79435,0.11905
79.55328,0.11641
79.31221,0.11504
79.07114,0.11418
78.83007,0.11356
78.58900,0.11335
78.34793,0.11311
78.10686,0.11182
77.86579,0.10882
77.62472,0.10460
77.38365,0.10077
77.14258,0.09888
76.90151,0.09899
76.66044,0.09950
76.41937,0.09895
76.17830,0.09751
75.93723,0.09643
75.69615,0.09589
75.45508,0.09465
75.21401,0.09195
74.97294,0.08858
74.73187,0.08589
74.49080,0.08486
74.24973,0.08602
74.00866,0.08891
73.76759,0.09168
73.52652,0.09216
73.28545,0.08988
73.04438,0.08667
72.80331,0.08474
72.56224,0.08416
72.32117,0.08300
72.08010,0.08086
71.83903,0.08041
71.59796,0.08388
71.35688,0.08976
71.11581,0.09488
70.87474,0.09836
70.63367,0.10172
70.39260,0.10624
70.15153,0.11193
69.91046,0.11862
69.66939,0.12660
69.42832,0.13575
69.18725,0.14403
68.94618,0.14765
68.70511,0.14438
68.46404,0.13664
68.22297,0.12903
67.98190,0.12334
67.74083,0.11769
67.49976,0.11004
67.25869,0.10083
67.01761,0.09211
66.77654,0.08582
66.53547,0.08269
66.29440,0.08152
66.05333,0.07999
65.81226,0.07709
65.57119,0.07450
65.33012,0.07487
65.08905,0.07883
64.84798,0.08453
64.60691,0.08988
64.36584,0.09424
64.12477,0.09773
63.88370,0.10046
63.64263,0.10244
63.40156,0.10283
63.16049,0.09991
62.91942,0.09335
62.67834,0.08561
62.43727,0.07966
62.19620,0.07598
61.95513,0.07287
61.71406,0.06866
61.47299,0.06310
61.23192,0.05698
60.99085,0.05144
60.74978,0.04789
60.50871,0.04752
60.26764,0.05008
60.02657,0.05375
59.78550,0.05678
59.54443,0.05916
59.30336,0.06160
59.06229,0.06324
58.82122,0.06203
58.58015,0.05824
58.33907,0.05549
58.09800,0.05689
57.85693,0.06099
57.61586,0.06290
57.37479,0.05945
57.13372,0.05243
56.89265,0.04650
56.65158,0.04397
56.41051,0.04241
56.16944,0.03857
55.92837,0.03342
55.68730,0.03113
55.44623,0.03343
55.20516,0.03735
54.96409,0.03853
54.72302,0.03509
54.48195,0.02880
54.24088,0.02400
53.99980,0.02486
53.75873,0.03159
53.51766,0.03990
53.27659,0.04547
53.03552,0.04783
52.79445,0.04958
52.55338,0.05259
52.31231,0.05576
52.07124,0.05646
51.83017,0.05360
51.58910,0.04961
51.34803,0.04855
51.10696,0.05131
50.86589,0.05404
50.62482,0.05236
50.38375,0.04598
50.14268,0.03876
49.90161,0.03457
49.66053,0.03372
49.41946,0.03356
49.17839,0.03201
48.93732,0.02920
48.69625,0.02623
48.45518,0.02334
48.21411,0.01995
47.97304,0.01634
47.73197,0.01464
47.49090,0.01549
47.24983,0.01452
47.00876,0.00717
46.76769,-0.00349
46.52662,-0.01011
46.28555,-0.00993
46.04448,-0.00584
45.80341,-0.00045
45.56234,0.00560
45.32126,0.01029
45.08019,0.01029
44.83912,0.00448
44.59805,-0.00599
44.35698,-0.01901
44.11591,-0.03070
43.87484,-0.03721
43.63377,-0.03810
43.39270,-0.03488
43.15163,-0.02737
42.91056,-0.01591
42.66949,-0.00435
42.42842,0.00297
42.18735,0.00425
41.94628,-0.00043
41.70521,-0.00796
41.46414,-0.01294
41.22307,-0.01478
40.98199,-0.01891
40.74092,-0.02646
40.49985,-0.03103
40.25878,-0.02923
40.01771,-0.02443
39.77664,-0.01856
39.53557,-0.01010
39.29450,-0.00081
39.05343,0.00591
38.81236,0.01172
38.57129,0.01915
38.33022,0.02557
38.08915,0.02699
37.84808,0.02255
37.60701,0.01127
37.36594,-0.00848
37.12487,-0.02970
36.88380,-0.03875
36.64272,-0.03244
36.40165,-0.02321
36.16058,-0.02018
35.91951,-0.01876
35.67844,-0.01528
35.43737,-0.01628
35.19630,-0.02462
34.95523,-0.02768
34.71416,-0.01245
34.47309,0.01423
34.23202,0.03197
33.99095,0.02769
33.74988,0.00902
33.50881,-0.00603
33.26774,-0.00750
33.02667,0.00556
32.78560,0.03475
32.54453,0.08013
32.30345,0.11786
32.06238,0.11652
31.82131,0.07874
31.58024,0.03328
31.33917,0.00071
31.09810,-0.01452
30.85703,-0.01484
30.61596,-0.00716
30.37489,-0.00234
30.13382,-0.00309
29.89275,-0.00062
29.65168,0.00380
29.41061,-0.00129
29.16954,-0.01445
28.92847,-0.02387
28.68740,-0.01967
28.44633,0.00109
28.20526,0.03287
27.96418,0.06607
27.72311,0.09596
27.48204,0.12119
27.24097,0.13307
26.99990,0.12665
26.75883,0.11023
26.51776,0.10356
26.27669,0.12902
26.03562,0.17447
25.79455,0.19002
25.55348,0.17048
25.31241,0.16074
25.07134,0.18004
24.83027,0.20551
24.58920,0.19665
24.34813,0.13833
24.10706,0.07868
23.86599,0.06419
23.62491,0.10949
23.38384,0.20484
23.14277,0.30188
22.90170,0.33490
22.66063,0.32659
22.41956,0.30159
22.17849,0.26973
21.93742,0.24388
21.69635,0.22937
21.45528,0.23673
21.21421,0.28345
20.97314,0.35520
20.73207,0.38827
20.49100,0.34420
20.24993,0.24229
20.00886,0.15762
19.76779,0.17374
19.52672,0.28659
19.28564,0.42881
19.04457,0.55891
18.80350,0.67488
18.56243,0.71464
18.32136,0.45929
18.08029,0.34912
17.83922,0.42545
17.59815,0.63807
17.35708,0.88637
17.11601,0.85734
16.87494,0.75603
16.63387,0.65964
16.39280,0.54034
16.15173,0.46576
15.91066,0.42966
15.66959,0.47521
15.42852,0.58618
15.18745,0.69867
14.94637,0.66139
14.70530,0.57006
14.46423,0.49726
14.22316,0.38337
13.98209,0.32222
13.74102,0.46461
13.49995,0.88969
13.25888,0.87791
13.01781,0.61487
12.77674,0.56505
12.53567,0.75060
12.29460,1.11691
12.05353,0.94913
11.81246,0.73308
11.57139,0.80098
11.33032,1.03125
11.08925,1.12057
10.84818,1.12416
10.60710,1.03421
10.36603,0.80897
10.12496,0.64515
9.88389,0.54377
9.64282,0.49853
9.40175,0.48083
9.16068,0.45924
8.91961,0.48996
8.67854,0.63007
8.43747,0.79612
8.19640,0.94174
7.95533,1.09388
7.71426,1.15708
7.47319,1.00797
7.23212,0.79361
6.99105,0.74476
6.74998,0.70885
6.50891,0.75157
6.26783,0.89158
6.02676,0.97961
5.78569,1.00189
5.54462,0.96238
5.30355,0.90100
5.06248,0.99151
4.82141,1.33752
4.58034,0.93234
4.33927,0.66523
4.09820,0.63243
3.85713,0.56117
3.61606,0.55714
3.37499,0.56781
3.13392,0.56239
2.89285,0.54468
2.65178,0.51211
2.41071,0.51659
2.16964,0.62025
1.92856,0.85086
1.68749,0.87139
1.44642,0.77585
1.20535,0.69194
0.96428,0.62055
0.72321,0.57183
0.48214,0.55690
0.24107,0.60762
-0.00000,0.57664
