399.69498,1.42311
399.45391,1.42240
399.21284,1.42483
398.97177,1.42575
398.73070,1.42481
398.48963,1.42563
398.24856,1.42930
398.00749,1.43283
397.76642,1.43280
397.52535,1.42896
397.28428,1.42441
397.04321,1.42248
396.80214,1.42321
396.56107,1.42439
396.32000,1.42494
396.07892,1.42458
395.83785,1.42106
395.59678,1.41265
395.35571,1.40317
395.11464,1.39928
394.87357,1.40358
394.63250,1.40970
394.39143,1.40880
394.15036,1.40272
393.90929,1.40047
393.66822,1.40376
393.42715,1.40742
393.18608,1.40948
392.94501,1.41152
392.70394,1.41279
392.46287,1.41107
392.22180,1.40728
391.98073,1.40453
391.73965,1.40444
391.49858,1.40646
391.25751,1.40879
391.01644,1.40875
390.77537,1.40377
390.53430,1.39404
390.29323,1.38287
390.05216,1.37448
389.81109,1.37299
389.57002,1.38009
389.32895,1.39038
389.08788,1.39324
388.84681,1.38434
388.60574,1.36887
388.36467,1.35103
388.12360,1.33269
387.88253,1.31853
387.64146,1.31279
387.40038,1.31526
387.15931,1.32115
386.91824,1.32411
386.67717,1.32202
386.43610,1.31830
386.19503,1.31499
385.95396,1.30727
385.71289,1.29044
385.47182,1.26892
385.23075,1.25197
384.98968,1.24390
384.74861,1.24190
384.50754,1.24139
384.26647,1.24029
384.02540,1.23744
383.78433,1.23114
383.54326,1.22021
383.30219,1.20672
383.06111,1.19661
382.82004,1.19281
382.57897,1.19147
382.33790,1.18742
382.09683,1.18117
381.85576,1.17575
381.61469,1.17013
381.37362,1.16374
381.13255,1.15966
380.89148,1.15848
380.65041,1.15618
380.40934,1.15183
380.16827,1.15040
379.92720,1.15349
379.68613,1.15711
379.44506,1.15787
379.20399,1.15819
378.96292,1.16179
378.72184,1.16833
378.48077,1.17547
378.23970,1.18004
377.99863,1.18037
377.75756,1.17985
377.51649,1.18459
377.27542,1.19613
377.03435,1.20793
376.79328,1.21318
376.55221,1.21398
376.31114,1.21794
376.07007,1.22896
375.82900,1.24421
375.58793,1.25756
375.34686,1.26513
375.10579,1.26970
374.86472,1.27694
374.62365,1.28727
374.38257,1.29354
374.14150,1.28899
373.90043,1.27595
373.65936,1.26324
373.41829,1.25798
373.17722,1.26133
372.93615,1.26882
372.69508,1.27436
372.45401,1.27517
372.21294,1.27258
371.97187,1.26864
371.73080,1.26354
371.48973,1.25695
371.24866,1.25098
371.00759,1.24835
370.76652,1.24804
370.52545,1.24752
370.28437,1.24743
370.04330,1.24842
369.80223,1.24715
369.56116,1.24154
369.32009,1.23600
369.07902,1.23605
368.83795,1.24154
368.59688,1.24812
368.35581,1.25019
368.11474,1.24280
367.87367,1.22728
367.63260,1.21211
367.39153,1.20408
367.15046,1.20269
366.90939,1.20509
366.66832,1.21099
366.42725,1.21820
366.18618,1.21901
365.94510,1.20781
365.70403,1.19068
365.46296,1.18047
365.22189,1.18290
364.98082,1.19158
364.73975,1.19538
364.49868,1.18846
364.25761,1.17388
364.01654,1.15894
363.77547,1.14919
363.53440,1.14630
363.29333,1.14901
363.05226,1.15460
362.81119,1.16008
362.57012,1.16371
362.32905,1.16574
362.08798,1.16684
361.84691,1.16726
361.60583,1.16814
361.36476,1.17021
361.12369,1.17085
360.88262,1.16640
360.64155,1.15802
360.40048,1.15146
360.15941,1.14927
359.91834,1.14766
359.67727,1.14252
359.43620,1.13494
359.19513,1.12905
358.95406,1.12676
358.71299,1.12661
358.47192,1.12670
358.23085,1.12687
357.98978,1.12766
357.74871,1.12839
357.50764,1.12796
357.26656,1.12728
357.02549,1.12859
356.78442,1.13138
356.54335,1.13165
356.30228,1.12776
356.06121,1.12369
355.82014,1.12223
355.57907,1.12059
355.33800,1.11689
355.09693,1.11534
354.85586,1.12005
354.61479,1.12839
354.37372,1.13416
354.13265,1.13446
353.89158,1.13064
353.65051,1.12623
353.40944,1.12579
353.16837,1.13130
352.92729,1.13817
352.68622,1.13950
352.44515,1.13488
352.20408,1.13013
351.96301,1.12979
351.72194,1.13459
351.48087,1.14344
351.23980,1.15293
350.99873,1.15723
350.75766,1.15299
350.51659,1.14287
350.27552,1.13226
350.03445,1.12549
349.79338,1.12536
349.55231,1.13150
349.31124,1.13846
349.07017,1.14050
348.82910,1.13908
348.58802,1.14026
348.34695,1.14580
348.10588,1.15141
347.86481,1.15302
347.62374,1.15150
347.38267,1.15043
347.14160,1.15102
346.90053,1.15075
346.65946,1.14759
346.41839,1.14387
346.17732,1.14385
345.93625,1.14808
345.69518,1.15314
345.45411,1.15685
345.21304,1.15975
344.97197,1.16195
344.73090,1.16226
344.48983,1.16139
344.24875,1.16232
344.00768,1.16596
343.76661,1.16974
343.52554,1.17140
343.28447,1.17162
343.04340,1.17190
342.80233,1.17289
342.56126,1.17593
342.32019,1.18270
342.07912,1.19219
341.83805,1.19993
341.59698,1.20272
341.35591,1.20263
341.11484,1.20284
340.87377,1.20339
340.63270,1.20387
340.39163,1.20566
340.15056,1.21011
339.90948,1.21579
339.66841,1.22002
339.42734,1.22280
339.18627,1.22679
338.94520,1.23459
338.70413,1.24530
338.46306,1.25457
338.22199,1.26085
337.98092,1.26691
337.73985,1.27318
337.49878,1.27553
337.25771,1.27237
337.01664,1.26900
336.77557,1.27080
336.53450,1.27575
336.29343,1.27680
336.05236,1.27111
335.81129,1.26338
335.57021,1.25981
335.32914,1.26261
335.08807,1.26835
334.84700,1.27019
334.60593,1.26413
334.36486,1.25395
334.12379,1.24426
333.88272,1.23346
333.64165,1.22031
333.40058,1.20999
333.15951,1.20755
332.91844,1.20927
332.67737,1.20600
332.43630,1.19558
332.19523,1.18642
331.95416,1.18685
331.71309,1.19447
331.47202,1.19966
331.23094,1.19666
330.98987,1.18655
330.74880,1.17343
330.50773,1.16232
330.26666,1.15789
330.02559,1.16225
329.78452,1.17211
329.54345,1.17829
329.30238,1.17338
329.06131,1.16125
328.82024,1.15210
328.57917,1.14916
328.33810,1.14904
328.09703,1.15253
327.85596,1.16338
327.61489,1.17661
327.37382,1.18058
327.13275,1.17378
326.89167,1.16705
326.65060,1.16748
326.40953,1.17182
326.16846,1.17454
325.92739,1.17413
325.68632,1.17089
325.44525,1.16504
325.20418,1.15854
324.96311,1.15430
324.72204,1.15201
324.48097,1.14827
324.23990,1.14219
323.99883,1.13770
323.75776,1.13823
323.51669,1.14190
323.27562,1.14529
323.03455,1.14836
322.79348,1.15248
322.55240,1.15925
322.31133,1.17107
322.07026,1.18672
321.82919,1.19840
321.58812,1.19916
321.34705,1.19127
321.10598,1.18213
320.86491,1.17722
320.62384,1.17885
320.38277,1.18490
320.14170,1.18846
319.90063,1.18561
319.65956,1.18113
319.41849,1.17989
319.17742,1.17812
318.93635,1.16997
318.69528,1.15794
318.45421,1.15143
318.21313,1.15637
317.97206,1.16841
317.73099,1.17777
317.48992,1.18102
317.24885,1.18306
317.00778,1.18655
316.76671,1.18845
316.52564,1.18773
316.28457,1.18632
316.04350,1.18304
315.80243,1.17615
315.56136,1.16955
315.32029,1.16933
315.07922,1.17560
314.83815,1.18250
314.59708,1.18520
314.35601,1.18439
314.11494,1.18436
313.87386,1.18773
313.63279,1.19410
313.39172,1.20113
313.15065,1.20696
312.90958,1.21405
312.66851,1.22498
312.42744,1.23602
312.18637,1.24091
311.94530,1.23973
311.70423,1.23922
311.46316,1.24369
311.22209,1.24906
310.98102,1.24817
310.73995,1.24083
310.49888,1.23439
310.25781,1.23346
310.01674,1.23435
309.77567,1.23221
309.53459,1.22964
309.29352,1.23264
309.05245,1.24185
308.81138,1.25194
308.57031,1.25828
308.32924,1.26147
308.08817,1.26530
307.84710,1.27174
307.60603,1.27787
307.36496,1.27818
307.12389,1.27101
306.88282,1.26116
306.64175,1.25550
306.40068,1.25666
306.15961,1.26093
305.91854,1.26208
305.67747,1.25770
305.43640,1.25072
305.19532,1.24439
304.95425,1.23862
304.71318,1.23197
304.47211,1.22525
304.23104,1.22121
303.98997,1.21932
303.74890,1.21436
303.50783,1.20284
303.26676,1.18886
303.02569,1.18148
302.78462,1.18495
302.54355,1.19325
302.30248,1.19715
302.06141,1.19327
301.82034,1.18529
301.57927,1.17959
301.33820,1.18038
301.09713,1.18587
300.85605,1.18864
300.61498,1.18285
300.37391,1.17085
300.13284,1.15995
299.89177,1.15467
299.65070,1.15467
299.40963,1.15700
299.16856,1.15797
298.92749,1.15465
298.68642,1.14689
298.44535,1.13793
298.20428,1.13201
297.96321,1.13024
297.72214,1.12939
297.48107,1.12633
297.24000,1.12188
296.99893,1.11807
296.75786,1.11465
296.51678,1.11034
296.27571,1.10547
296.03464,1.10172
295.79357,1.10027
295.55250,1.10040
295.31143,1.09989
295.07036,1.09821
294.82929,1.09804
294.58822,1.10115
294.34715,1.10388
294.10608,1.10032
293.86501,1.09046
293.62394,1.08142
293.38287,1.07964
293.14180,1.08411
292.90073,1.08851
292.65966,1.08848
292.41859,1.08455
292.17751,1.07829
291.93644,1.07069
291.69537,1.06423
291.45430,1.06187
291.21323,1.06329
290.97216,1.06486
290.73109,1.06400
290.49002,1.06132
290.24895,1.05808
290.00788,1.05401
289.76681,1.04850
289.52574,1.04285
289.28467,1.03957
289.04360,1.03946
288.80253,1.04135
288.56146,1.04377
288.32039,1.04556
288.07932,1.04604
287.83824,1.04575
287.59717,1.04606
287.35610,1.04666
287.11503,1.04568
286.87396,1.04259
286.63289,1.03917
286.39182,1.03742
286.15075,1.03780
285.90968,1.03901
285.66861,1.03895
285.42754,1.03700
285.18647,1.03511
284.94540,1.03531
284.70433,1.03702
284.46326,1.03812
284.22219,1.03746
283.98112,1.03523
283.74005,1.03196
283.49897,1.02825
283.25790,1.02526
283.01683,1.02397
282.77576,1.02397
282.53469,1.02401
282.29362,1.02373
282.05255,1.02404
281.81148,1.02571
281.57041,1.02825
281.32934,1.03001
281.08827,1.02965
280.84720,1.02792
280.60613,1.02694
280.36506,1.02749
280.12399,1.02846
279.88292,1.02966
279.64185,1.03242
279.40078,1.03650
279.15970,1.03883
278.91863,1.03731
278.67756,1.03397
278.43649,1.03242
278.19542,1.03415
277.95435,1.03791
277.71328,1.04114
277.47221,1.04130
277.23114,1.03839
276.99007,1.03604
276.74900,1.03725
276.50793,1.04022
276.26686,1.04139
276.02579,1.04082
275.78472,1.04070
275.54365,1.04120
275.30258,1.04163
275.06151,1.04265
274.82043,1.04430
274.57936,1.04466
274.33829,1.04257
274.09722,1.03934
273.85615,1.03699
273.61508,1.03661
273.37401,1.03846
273.13294,1.04192
272.89187,1.04522
272.65080,1.04654
272.40973,1.04625
272.16866,1.04662
271.92759,1.04892
271.68652,1.05183
271.44545,1.05365
271.20438,1.05478
270.96331,1.05716
270.72224,1.06217
270.48116,1.06922
270.24009,1.07626
269.99902,1.08163
269.75795,1.08528
269.51688,1.08821
269.27581,1.09150
269.03474,1.09618
268.79367,1.10242
268.55260,1.10882
268.31153,1.11354
268.07046,1.11622
267.82939,1.11764
267.58832,1.11792
267.34725,1.11709
267.10618,1.11717
266.86511,1.12091
266.62404,1.12869
266.38297,1.13888
266.14189,1.15002
265.90082,1.15995
265.65975,1.16553
265.41868,1.16685
265.17761,1.16872
264.93654,1.17531
264.69547,1.18586
264.45440,1.19708
264.21333,1.20717
263.97226,1.21697
263.73119,1.22888
263.49012,1.24400
263.24905,1.26073
263.00798,1.27660
262.76691,1.29085
262.52584,1.30481
262.28477,1.31970
262.04370,1.33395
261.80262,1.34456
261.56155,1.35202
261.32048,1.36114
261.07941,1.37428
260.83834,1.38781
260.59727,1.39893
260.35620,1.41320
260.11513,1.43817
259.87406,1.47188
259.63299,1.50455
259.39192,1.53062
259.15085,1.55173
258.90978,1.56725
258.66871,1.57494
258.42764,1.58439
258.18657,1.61379
257.94550,1.66589
257.70443,1.71179
257.46335,1.71901
257.22228,1.69959
256.98121,1.68602
256.74014,1.68964
256.49907,1.69696
256.25800,1.69294
256.01693,1.67385
255.77586,1.64517
255.53479,1.62053
255.29372,1.60951
255.05265,1.60886
254.81158,1.60789
254.57051,1.59656
254.32944,1.57240
254.08837,1.54402
253.84730,1.52257
253.60623,1.51125
253.36516,1.50605
253.12408,1.50570
252.88301,1.51212
252.64194,1.52231
252.40087,1.52642
252.15980,1.51595
251.91873,1.49232
251.67766,1.46450
251.43659,1.44196
251.19552,1.43002
250.95445,1.43001
250.71338,1.43986
250.47231,1.45263
250.23124,1.45850
249.99017,1.45213
249.74910,1.43733
249.50803,1.42210
249.26696,1.41457
249.02589,1.42037
248.78481,1.43557
248.54374,1.44763
248.30267,1.44757
248.06160,1.43757
247.82053,1.42733
247.57946,1.42508
247.33839,1.43035
247.09732,1.43680
246.85625,1.44125
246.61518,1.44631
246.37411,1.45468
246.13304,1.46501
245.89197,1.47467
245.65090,1.48315
245.40983,1.49208
245.16876,1.50379
244.92769,1.52164
244.68661,1.54888
244.44554,1.58374
244.20447,1.61759
243.96340,1.64605
243.72233,1.68242
243.48126,1.74319
243.24019,1.82434
242.99912,1.90222
242.75805,1.95219
242.51698,1.93811
242.27591,1.83966
242.03484,1.72821
241.79377,1.63309
241.55270,1.55670
241.31163,1.49499
241.07056,1.44125
240.82949,1.38933
240.58842,1.33777
240.34734,1.29015
240.10627,1.24996
239.86520,1.21683
239.62413,1.18889
239.38306,1.16483
239.14199,1.14256
238.90092,1.12021
238.65985,1.09826
238.41878,1.07757
238.17771,1.05747
237.93664,1.03777
237.69557,1.01952
237.45450,1.00262
237.21343,0.98596
236.97236,0.96953
236.73129,0.95465
236.49022,0.94265
236.24915,0.93395
236.00807,0.92746
235.76700,0.92057
235.52593,0.91146
235.28486,0.90149
235.04379,0.89370
234.80272,0.88913
234.56165,0.88593
234.32058,0.88192
234.07951,0.87650
233.83844,0.87018
233.59737,0.86378
233.35630,0.85798
233.11523,0.85294
232.87416,0.84859
232.63309,0.84490
232.39202,0.84126
232.15095,0.83683
231.90988,0.83179
231.66880,0.82698
231.42773,0.82256
231.18666,0.81891
230.94559,0.81723
230.70452,0.81802
230.46345,0.82005
230.22238,0.82130
229.98131,0.82026
229.74024,0.81678
229.49917,0.81220
229.25810,0.80819
229.01703,0.80574
228.77596,0.80513
228.53489,0.80577
228.29382,0.80622
228.05275,0.80483
227.81168,0.80101
227.57061,0.79601
227.32953,0.79232
227.08846,0.79124
226.84739,0.79186
226.60632,0.79238
226.36525,0.79178
226.12418,0.78985
225.88311,0.78692
225.64204,0.78396
225.40097,0.78210
225.15990,0.78159
224.91883,0.78175
224.67776,0.78184
224.43669,0.78186
224.19562,0.78243
223.95455,0.78402
223.71348,0.78610
223.47241,0.78734
223.23134,0.78713
222.99026,0.78675
222.74919,0.78861
222.50812,0.79402
222.26705,0.80175
222.02598,0.80881
221.78491,0.81286
221.54384,0.81448
221.30277,0.81691
221.06170,0.82247
220.82063,0.83021
220.57956,0.83777
220.33849,0.84446
220.09742,0.85122
219.85635,0.85886
219.61528,0.86727
219.37421,0.87565
219.13314,0.88324
218.89207,0.89029
218.65099,0.89760
218.40992,0.90536
218.16885,0.91356
217.92778,0.92324
217.68671,0.93577
217.44564,0.95091
217.20457,0.96668
216.96350,0.98128
216.72243,0.99395
216.48136,1.00493
216.24029,1.01567
215.99922,1.02838
215.75815,1.04344
215.51708,1.05831
215.27601,1.07042
215.03494,1.07985
214.79387,1.08798
214.55280,1.09598
214.31172,1.10559
214.07065,1.11850
213.82958,1.13368
213.58851,1.14708
213.34744,1.15536
213.10637,1.15933
212.86530,1.16261
212.62423,1.16776
212.38316,1.17523
212.14209,1.18460
211.90102,1.19453
211.65995,1.20193
211.41888,1.20391
211.17781,1.20182
210.93674,1.20094
210.69567,1.20437
210.45460,1.20838
210.21353,1.20602
209.97245,1.19635
209.73138,1.18557
209.49031,1.17864
209.24924,1.17580
209.00817,1.17611
208.76710,1.17817
208.52603,1.17861
208.28496,1.17548
208.04389,1.17126
207.80282,1.16750
207.56175,1.16087
207.32068,1.14979
207.07961,1.13897
206.83854,1.13225
206.59747,1.12643
206.35640,1.11619
206.11533,1.10114
205.87426,1.08545
205.63318,1.07331
205.39211,1.06564
205.15104,1.05901
204.90997,1.04842
204.66890,1.03307
204.42783,1.01722
204.18676,1.00410
203.94569,0.99235
203.70462,0.97992
203.46355,0.96803
203.22248,0.95918
202.98141,0.95248
202.74034,0.94310
202.49927,0.92771
202.25820,0.90910
202.01713,0.89268
201.77606,0.88035
201.53499,0.86970
201.29391,0.85769
201.05284,0.84393
200.81177,0.83007
200.57070,0.81752
200.32963,0.80631
200.08856,0.79580
199.84749,0.78529
199.60642,0.77422
199.36535,0.76289
199.12428,0.75242
198.88321,0.74347
198.64214,0.73546
198.40107,0.72744
198.16000,0.71890
197.91893,0.70971
197.67786,0.70031
197.43679,0.69165
197.19572,0.68408
196.95464,0.67691
196.71357,0.66974
196.47250,0.66316
196.23143,0.65744
195.99036,0.65173
195.74929,0.64542
195.50822,0.63900
195.26715,0.63322
195.02608,0.62816
194.78501,0.62354
194.54394,0.61925
194.30287,0.61491
194.06180,0.60976
193.82073,0.60368
193.57966,0.59771
193.33859,0.59254
193.09752,0.58754
192.85645,0.58240
192.61537,0.57821
192.37430,0.57568
192.13323,0.57356
191.89216,0.57024
191.65109,0.56586
191.41002,0.56170
191.16895,0.55843
190.92788,0.55580
190.68681,0.55336
190.44574,0.55073
190.20467,0.54767
189.96360,0.54448
189.72253,0.54206
189.48146,0.54094
189.24039,0.54066
188.99932,0.54028
188.75825,0.53910
188.51718,0.53681
188.27610,0.53370
188.03503,0.53091
187.79396,0.52947
187.55289,0.52899
187.31182,0.52831
187.07075,0.52703
186.82968,0.52554
186.58861,0.52393
186.34754,0.52253
186.10647,0.52237
185.86540,0.52399
185.62433,0.52607
185.38326,0.52679
185.14219,0.52592
184.90112,0.52479
184.66005,0.52461
184.41898,0.52523
184.17791,0.52582
183.93683,0.52621
183.69576,0.52728
183.45469,0.52961
183.21362,0.53240
182.97255,0.53440
182.73148,0.53534
182.49041,0.53566
182.24934,0.53543
182.00827,0.53467
181.76720,0.53427
181.52613,0.53544
181.28506,0.53836
181.04399,0.54193
180.80292,0.54486
180.56185,0.54660
180.32078,0.54763
180.07971,0.54904
179.83864,0.55171
179.59756,0.55579
179.35649,0.56071
179.11542,0.56570
178.87435,0.57100
178.63328,0.57785
178.39221,0.58696
178.15114,0.59737
177.91007,0.60766
177.66900,0.61732
177.42793,0.62644
177.18686,0.63532
176.94579,0.64481
176.70472,0.65593
176.46365,0.66903
176.22258,0.68400
175.98151,0.70071
175.74044,0.71879
175.49937,0.73756
175.25829,0.75625
175.01722,0.77386
174.77615,0.78960
174.53508,0.80451
174.29401,0.82083
174.05294,0.83887
173.81187,0.85607
173.57080,0.86976
173.32973,0.87954
173.08866,0.88740
172.84759,0.89633
172.60652,0.90776
172.36545,0.91956
172.12438,0.92836
171.88331,0.93315
171.64224,0.93466
171.40117,0.93331
171.16010,0.93037
170.91902,0.92801
170.67795,0.92623
170.43688,0.92245
170.19581,0.91538
169.95474,0.90674
169.71367,0.89795
169.47260,0.88854
169.23153,0.87872
168.99046,0.87102
168.74939,0.86726
168.50832,0.86563
168.26725,0.86280
168.02618,0.85804
167.78511,0.85356
167.54404,0.85126
167.30297,0.85062
167.06190,0.85017
166.82083,0.85024
166.57975,0.85254
166.33868,0.85713
166.09761,0.86204
165.85654,0.86620
165.61547,0.87049
165.37440,0.87623
165.13333,0.88407
164.89226,0.89345
164.65119,0.90248
164.41012,0.90934
164.16905,0.91415
163.92798,0.91889
163.68691,0.92579
163.44584,0.93558
163.20477,0.94650
162.96370,0.95611
162.72263,0.96449
162.48156,0.97372
162.24048,0.98368
161.99941,0.99115
161.75834,0.99441
161.51727,0.99600
161.27620,0.99907
161.03513,1.00291
160.79406,1.00344
160.55299,0.99793
160.31192,0.98794
160.07085,0.97749
159.82978,0.96975
159.58871,0.96558
159.34764,0.96367
159.10657,0.96138
158.86550,0.95663
158.62443,0.95001
158.38336,0.94406
158.14229,0.94007
157.90121,0.93682
157.66014,0.93257
157.41907,0.92707
157.17800,0.92162
156.93693,0.91770
156.69586,0.91504
156.45479,0.91089
156.21372,0.90320
155.97265,0.89389
155.73158,0.88634
155.49051,0.88023
155.24944,0.87268
155.00837,0.86339
154.76730,0.85436
154.52623,0.84540
154.28516,0.83452
154.04409,0.82158
153.80302,0.80782
153.56194,0.79323
153.32087,0.77754
153.07980,0.76201
152.83873,0.74787
152.59766,0.73437
152.35659,0.71998
152.11552,0.70471
151.87445,0.69009
151.63338,0.67677
151.39231,0.66375
151.15124,0.65048
150.91017,0.63799
150.66910,0.62680
150.42803,0.61561
150.18696,0.60331
149.94589,0.59066
149.70482,0.57906
149.46375,0.56904
149.22267,0.56010
148.98160,0.55143
148.74053,0.54297
148.49946,0.53571
148.25839,0.53068
148.01732,0.52786
147.77625,0.52615
147.53518,0.52437
147.29411,0.52240
147.05304,0.52122
146.81197,0.52163
146.57090,0.52319
146.32983,0.52484
146.08876,0.52601
145.84769,0.52712
145.60662,0.52917
145.36555,0.53309
145.12448,0.53910
144.88340,0.54647
144.64233,0.55388
144.40126,0.56007
144.16019,0.56429
143.91912,0.56638
143.67805,0.56631
143.43698,0.56396
143.19591,0.55946
142.95484,0.55334
142.71377,0.54597
142.47270,0.53737
142.23163,0.52791
141.99056,0.51870
141.74949,0.51081
141.50842,0.50453
141.26735,0.49951
141.02628,0.49516
140.78521,0.49098
140.54413,0.48703
140.30306,0.48398
140.06199,0.48254
139.82092,0.48295
139.57985,0.48499
139.33878,0.48828
139.09771,0.49248
138.85664,0.49733
138.61557,0.50259
138.37450,0.50850
138.13343,0.51622
137.89236,0.52698
137.65129,0.54058
137.41022,0.55518
137.16915,0.56915
136.92808,0.58253
136.68701,0.59641
136.44594,0.61191
136.20486,0.62980
135.96379,0.65042
135.72272,0.67355
135.48165,0.69851
135.24058,0.72418
134.99951,0.74939
134.75844,0.77418
134.51737,0.80072
134.27630,0.83155
134.03523,0.86704
133.79416,0.90512
133.55309,0.94274
133.31202,0.97782
133.07095,1.01111
132.82988,1.04544
132.58881,1.08055
132.34774,1.10990
132.10667,1.12658
131.86559,1.13200
131.62452,1.13421
131.38345,1.13737
131.14238,1.13667
130.90131,1.12601
130.66024,1.10733
130.41917,1.08736
130.17810,1.06839
129.93703,1.04751
129.69596,1.02231
129.45489,0.99336
129.21382,0.96168
128.97275,0.92727
128.73168,0.89114
128.49061,0.85594
128.24954,0.82338
128.00847,0.79290
127.76740,0.76376
127.52632,0.73652
127.28525,0.71123
127.04418,0.68626
126.80311,0.66045
126.56204,0.63506
126.32097,0.61203
126.07990,0.59166
125.83883,0.57309
125.59776,0.55607
125.35669,0.54108
125.11562,0.52821
124.87455,0.51616
124.63348,0.50323
124.39241,0.48925
124.15134,0.47613
123.91027,0.46601
123.66920,0.45914
123.42812,0.45424
123.18705,0.45017
122.94598,0.44631
122.70491,0.44248
122.46384,0.43939
122.22277,0.43781
121.98170,0.43671
121.74063,0.43461
121.49956,0.43258
121.25849,0.43325
121.01742,0.43727
120.77635,0.44331
120.53528,0.45048
120.29421,0.45895
120.05314,0.46900
119.81207,0.48071
119.57100,0.49416
119.32993,0.50975
119.08885,0.52873
118.84778,0.55248
118.60671,0.58057
118.36564,0.61067
118.12457,0.64094
117.88350,0.67062
117.64243,0.69845
117.40136,0.72258
117.16029,0.74243
116.91922,0.75859
116.67815,0.77071
116.43708,0.77660
116.19601,0.77402
115.95494,0.76421
115.71387,0.75191
115.47280,0.73979
115.23173,0.72583
114.99066,0.70895
114.74958,0.69282
114.50851,0.68128
114.26744,0.67418
114.02637,0.66950
113.78530,0.66572
113.54423,0.66190
113.30316,0.65856
113.06209,0.65777
112.82102,0.66070
112.57995,0.66623
112.33888,0.67230
112.09781,0.67739
111.85674,0.68147
111.61567,0.68573
111.37460,0.69035
111.13353,0.69382
110.89246,0.69568
110.65139,0.69728
110.41031,0.69833
110.16924,0.69592
109.92817,0.68847
109.68710,0.67782
109.44603,0.66622
109.20496,0.65303
108.96389,0.63631
108.72282,0.61623
108.48175,0.59536
108.24068,0.57627
107.99961,0.55991
107.75854,0.54522
107.51747,0.52976
107.27640,0.51210
107.03533,0.49367
106.79426,0.47701
106.55319,0.46281
106.31212,0.45004
106.07104,0.43821
105.82997,0.42752
105.58890,0.41737
105.34783,0.40665
105.10676,0.39549
104.86569,0.38502
104.62462,0.37589
104.38355,0.36783
104.14248,0.36020
103.90141,0.35241
103.66034,0.34419
103.41927,0.33609
103.17820,0.32934
102.93713,0.32461
102.69606,0.32098
102.45499,0.31653
102.21392,0.31063
101.97285,0.30462
101.73177,0.29947
101.49070,0.29451
101.24963,0.28923
101.00856,0.28450
100.76749,0.28080
100.52642,0.27721
100.28535,0.27294
100.04428,0.26860
99.80321,0.26522
99.56214,0.26328
99.32107,0.26247
99.08000,0.26152
98.83893,0.25901
98.59786,0.25504
98.35679,0.25145
98.11572,0.25002
97.87465,0.25105
97.63358,0.25349
97.39250,0.25616
97.15143,0.25837
96.91036,0.25999
96.66929,0.26142
96.42822,0.26363
96.18715,0.26758
95.94608,0.27338
95.70501,0.28051
95.46394,0.28823
95.22287,0.29547
94.98180,0.30089
94.74073,0.30403
94.49966,0.30569
94.25859,0.30681
94.01752,0.30765
93.77645,0.30826
93.53538,0.30884
93.29431,0.30960
93.05323,0.31060
92.81216,0.31169
92.57109,0.31242
92.33002,0.31259
92.08895,0.31258
91.84788,0.31318
91.60681,0.31519
91.36574,0.31963
91.12467,0.32790
90.88360,0.34136
90.64253,0.36067
90.40146,0.38556
90.16039,0.41530
89.91932,0.44947
89.67825,0.48809
89.43718,0.53094
89.19611,0.57617
88.95504,0.61950
88.71396,0.65517
88.47289,0.67819
88.23182,0.68603
87.99075,0.67849
87.74968,0.65642
87.50861,0.62185
87.26754,0.58002
87.02647,0.53849
86.78540,0.50248
86.54433,0.47224
86.30326,0.44526
86.06219,0.41960
85.82112,0.39458
85.58005,0.37002
85.33898,0.34605
85.09791,0.32322
84.85684,0.30270
84.61577,0.28605
84.37469,0.27408
84.13362,0.26578
83.89255,0.25905
83.65148,0.25260
83.41041,0.24637
83.16934,0.24049
82.92827,0.23458
82.68720,0.22844
82.44613,0.22281
82.20506,0.21865
81.96399,0.21560
81.72292,0.21205
81.48185,0.20724
81.24078,0.20210
80.99971,0.19775
80.75864,0.19445
80.51757,0.19225
80.27650,0.19121
80.03542,0.19064
79.79435,0.18955
79.55328,0.18797
79.31221,0.18671
79.07114,0.18594
78.83007,0.18522
78.58900,0.18444
78.34793,0.18346
78.10686,0.18130
77.86579,0.17713
77.62472,0.17180
77.38365,0.16707
77.14258,0.16402
76.90151,0.16273
76.66044,0.16247
76.41937,0.16199
76.17830,0.16068
75.93723,0.15932
75.69615,0.15870
75.45508,0.15801
75.21401,0.15587
74.97294,0.15237
74.73187,0.14912
74.49080,0.14780
74.24973,0.14917
74.00866,0.15295
73.76759,0.15786
73.52652,0.16199
73.28545,0.16360
73.04438,0.16239
72.80331,0.15985
72.56224,0.15785
72.32117,0.15699
72.08010,0.15657
71.83903,0.15600
71.59796,0.15561
71.35688,0.15597
71.11581,0.15704
70.87474,0.15854
70.63367,0.16123
70.39260,0.16684
70.15153,0.17614
69.91046,0.18756
69.66939,0.19906
69.42832,0.21051
69.18725,0.22179
68.94618,0.22970
68.70511,0.22993
68.46404,0.22223
68.22297,0.21074
67.98190,0.19911
67.74083,0.18801
67.49976,0.17720
67.25869,0.16857
67.01761,0.16428
66.77654,0.16281
66.53547,0.15996
66.29440,0.15454
66.05333,0.14946
65.81226,0.14656
65.57119,0.14478
65.33012,0.14376
65.08905,0.14523
64.84798,0.14994
64.60691,0.15698
64.36584,0.16637
64.12477,0.17774
63.88370,0.18697
63.64263,0.18987
63.40156,0.18797
63.16049,0.18460
62.91942,0.17890
62.67834,0.17016
62.43727,0.16280
62.19620,0.16046
61.95513,0.15965
61.71406,0.15558
61.47299,0.14951
61.23192,0.14442
60.99085,0.13925
60.74978,0.13253
60.50871,0.12618
60.26764,0.12231
60.02657,0.12176
59.78550,0.12593
59.54443,0.13426
59.30336,0.14227
59.06229,0.14677
58.82122,0.14861
58.58015,0.14808
58.33907,0.14471
58.09800,0.14059
57.85693,0.13819
57.61586,0.13779
57.37479,0.13950
57.13372,0.14287
56.89265,0.14517
56.65158,0.14420
56.41051,0.14065
56.16944,0.13617
55.92837,0.13255
55.68730,0.13135
55.44623,0.13229
55.20516,0.13425
54.96409,0.13725
54.72302,0.14114
54.48195,0.14446
54.24088,0.14609
53.99980,0.14561
53.75873,0.14330
53.51766,0.14161
53.27659,0.14360
53.03552,0.14907
52.79445,0.15488
52.55338,0.15839
52.31231,0.15915
52.07124,0.15830
51.83017,0.15664
51.58910,0.15358
51.34803,0.14903
51.10696,0.14505
50.86589,0.14393
50.62482,0.14561
50.38375,0.14791
50.14268,0.14968
49.90161,0.15288
49.66053,0.15905
49.41946,0.16550
49.17839,0.16846
48.93732,0.16751
48.69625,0.16383
48.45518,0.15860
48.21411,0.15639
47.97304,0.16270
47.73197,0.17452
47.49090,0.18072
47.24983,0.17464
47.00876,0.16091
46.76769,0.14772
46.52662,0.13756
46.28555,0.13019
46.04448,0.12862
45.80341,0.13545
45.56234,0.14664
45.32126,0.15521
45.08019,0.15917
44.83912,0.16178
44.59805,0.16536
44.35698,0.16873
44.11591,0.17038
43.87484,0.17133
43.63377,0.17411
43.39270,0.17944
43.15163,0.18522
42.91056,0.18958
42.66949,0.19316
42.42842,0.19760
42.18735,0.20249
41.94628,0.20546
41.70521,0.20640
41.46414,0.20841
41.22307,0.21263
40.98199,0.21558
40.74092,0.21339
40.49985,0.20629
40.25878,0.19961
40.01771,0.19934
39.77664,0.20386
39.53557,0.20502
39.29450,0.20086
39.05343,0.20237
38.81236,0.22142
38.57129,0.25076
38.33022,0.26833
38.08915,0.26302
37.84808,0.24525
37.60701,0.23236
37.36594,0.22926
37.12487,0.22866
36.88380,0.22454
36.64272,0.21919
36.40165,0.21706
36.16058,0.21671
35.91951,0.21203
35.67844,0.19873
35.43737,0.17841
35.19630,0.16203
34.95523,0.16654
34.71416,0.19363
34.47309,0.22011
34.23202,0.22402
33.99095,0.20452
33.74988,0.16953
33.50881,0.12504
33.26774,0.08404
33.02667,0.05979
32.78560,0.05291
32.54453,0.07443
32.30345,0.12415
32.06238,0.16121
31.82131,0.16286
31.58024,0.14626
31.33917,0.12822
31.09810,0.10806
30.85703,0.08639
30.61596,0.07253
30.37489,0.07158
30.13382,0.07376
29.89275,0.06399
29.65168,0.03618
29.41061,-0.00269
29.16954,-0.03806
28.92847,-0.06163
28.68740,-0.07797
28.44633,-0.09343
28.20526,-0.11191
27.96418,-0.13908
27.72311,-0.15621
27.48204,-0.12603
27.24097,-0.07590
26.99990,-0.05841
26.75883,-0.08697
26.51776,-0.12497
26.27669,-0.11527
26.03562,-0.06009
25.79455,-0.00158
25.55348,0.02068
25.31241,-0.01055
25.07134,-0.07289
24.83027,-0.12876
24.58920,-0.16936
24.34813,-0.20227
24.10706,-0.22910
23.86599,-0.24770
23.62491,-0.25421
23.38384,-0.24873
23.14277,-0.24064
22.90170,-0.24308
22.66063,-0.26018
22.41956,-0.27845
22.17849,-0.28392
21.93742,-0.28658
21.69635,-0.31939
21.45528,-0.41025
21.21421,-0.47898
20.97314,-0.35744
20.73207,-0.16084
20.49100,-0.03737
20.24993,-0.00348
20.00886,-0.01969
19.76779,0.02851
19.52672,0.13319
19.28564,0.14918
19.04457,0.04751
18.80350,-0.12607
18.56243,-0.28023
18.32136,-0.34180
18.08029,-0.34449
17.83922,-0.33843
17.59815,-0.33631
17.35708,-0.33707
17.11601,-0.33571
16.87494,-0.33091
16.63387,-0.32225
16.39280,-0.30935
16.15173,-0.30068
15.91066,-0.30325
15.66959,-0.31188
15.42852,-0.31172
15.18745,-0.30232
14.94637,-0.30087
14.70530,-0.30409
14.46423,-0.27855
14.22316,-0.21261
13.98209,-0.15850
13.74102,-0.14823
13.49995,-0.13110
13.25888,-0.08471
13.01781,-0.09076
12.77674,-0.17252
12.53567,-0.28820
12.29460,-0.35811
12.05353,-0.37528
11.81246,-0.36413
11.57139,-0.35051
11.33032,-0.35485
11.08925,-0.37333
10.84818,-0.39327
10.60710,-0.41006
10.36603,-0.41510
10.12496,-0.40313
9.88389,-0.38415
9.64282,-0.37107
9.40175,-0.36908
9.16068,-0.37317
8.91961,-0.37225
8.67854,-0.36337
8.43747,-0.34810
8.19640,-0.33404
7.95533,-0.30091
7.71426,-0.13601
7.47319,0.17562
7.23212,0.44974
6.99105,0.62462
6.74998,0.74328
6.50891,0.80663
6.26783,0.71981
6.02676,0.39640
5.78569,-0.12662
5.54462,-0.33443
5.30355,-0.35184
5.06248,-0.35380
4.82141,-0.35300
4.58034,-0.34814
4.33927,-0.34508
4.09820,-0.34423
3.85713,-0.35295
3.61606,-0.37059
3.37499,-0.38237
3.13392,-0.38279
2.89285,-0.37732
2.65178,-0.36400
2.41071,-0.34490
2.16964,-0.34197
1.92856,-0.35854
1.68749,-0.37774
1.44642,-0.38980
1.20535,-0.38167
0.96428,-0.35299
0.72321,-0.35162
0.48214,-0.41451
0.24107,-0.42869
-0.00000,-0.36311
