399.69498,1.56469
399.45391,1.55438
399.21284,1.55162
398.97177,1.54596
398.73070,1.53144
398.48963,1.51712
398.24856,1.51154
398.00749,1.51174
397.76642,1.51176
397.52535,1.51418
397.28428,1.52243
397.04321,1.52955
396.80214,1.52758
396.56107,1.52051
396.32000,1.51723
396.07892,1.52000
395.83785,1.52547
395.59678,1.53219
395.35571,1.54148
395.11464,1.55331
394.87357,1.56498
394.63250,1.57125
394.39143,1.56813
394.15036,1.55579
393.90929,1.53955
393.66822,1.52797
393.42715,1.52548
393.18608,1.52858
392.94501,1.52978
392.70394,1.52428
392.46287,1.51322
392.22180,1.50234
391.98073,1.49675
391.73965,1.49681
391.49858,1.49949
391.25751,1.50164
391.01644,1.50070
390.77537,1.49521
390.53430,1.48619
390.29323,1.47700
390.05216,1.47233
389.81109,1.47747
389.57002,1.49377
389.32895,1.51451
389.08788,1.52587
388.84681,1.51852
388.60574,1.50257
388.36467,1.49291
388.12360,1.49256
387.88253,1.49375
387.64146,1.48781
387.40038,1.47425
387.15931,1.45998
386.91824,1.45003
386.67717,1.44067
386.43610,1.42566
386.19503,1.40609
385.95396,1.38998
385.71289,1.38460
385.47182,1.39100
385.23075,1.40330
384.98968,1.41257
384.74861,1.41135
384.50754,1.39772
384.26647,1.38047
384.02540,1.37270
383.78433,1.37417
383.54326,1.36942
383.30219,1.34981
383.06111,1.32621
382.82004,1.31321
382.57897,1.31193
382.33790,1.31378
382.09683,1.31505
381.85576,1.31665
381.61469,1.31434
381.37362,1.30410
381.13255,1.29192
380.89148,1.28481
380.65041,1.28253
380.40934,1.28350
380.16827,1.29092
379.92720,1.30905
379.68613,1.33078
379.44506,1.34136
379.20399,1.33672
378.96292,1.32592
378.72184,1.31739
378.48077,1.31006
378.23970,1.30117
377.99863,1.29734
377.75756,1.30439
377.51649,1.31526
377.27542,1.32278
377.03435,1.33308
376.79328,1.35426
376.55221,1.37983
376.31114,1.39550
376.07007,1.39971
375.82900,1.40103
375.58793,1.40240
375.34686,1.40297
375.10579,1.40515
374.86472,1.41226
374.62365,1.42448
374.38257,1.43950
374.14150,1.45566
373.90043,1.46901
373.65936,1.46939
373.41829,1.45409
373.17722,1.43689
372.93615,1.43083
372.69508,1.43401
372.45401,1.43478
372.21294,1.42327
371.97187,1.39913
371.73080,1.37382
371.48973,1.36343
371.24866,1.37485
371.00759,1.39691
370.76652,1.40730
370.52545,1.39629
370.28437,1.37788
370.04330,1.37012
369.80223,1.37552
369.56116,1.38445
369.32009,1.39101
369.07902,1.39706
368.83795,1.40048
368.59688,1.39291
368.35581,1.37424
368.11474,1.35507
367.87367,1.34471
367.63260,1.34513
367.39153,1.35155
367.15046,1.35723
366.90939,1.36075
366.66832,1.36542
366.42725,1.36995
366.18618,1.36627
365.94510,1.35008
365.70403,1.32827
365.46296,1.31345
365.22189,1.31330
364.98082,1.32394
364.73975,1.33322
364.49868,1.33283
364.25761,1.32461
364.01654,1.31325
363.77547,1.30136
363.53440,1.29280
363.29333,1.29160
363.05226,1.29506
362.81119,1.29591
362.57012,1.29320
362.32905,1.29257
362.08798,1.29579
361.84691,1.29878
361.60583,1.29878
361.36476,1.29624
361.12369,1.29131
360.88262,1.28234
360.64155,1.27048
360.40048,1.26281
360.15941,1.26404
359.91834,1.26919
359.67727,1.26969
359.43620,1.26420
359.19513,1.25928
358.95406,1.26042
358.71299,1.26650
358.47192,1.27252
358.23085,1.27337
357.98978,1.26787
357.74871,1.26125
357.50764,1.25920
357.26656,1.26036
357.02549,1.26001
356.78442,1.25844
356.54335,1.25894
356.30228,1.25989
356.06121,1.25739
355.82014,1.25447
355.57907,1.25856
355.33800,1.27020
355.09693,1.28042
354.85586,1.28011
354.61479,1.27019
354.37372,1.25940
354.13265,1.25334
353.89158,1.24984
353.65051,1.24607
353.40944,1.24491
353.16837,1.24915
352.92729,1.25426
352.68622,1.25431
352.44515,1.25199
352.20408,1.25501
351.96301,1.26496
351.72194,1.27548
351.48087,1.27954
351.23980,1.27573
350.99873,1.26978
350.75766,1.27004
350.51659,1.27785
350.27552,1.28471
350.03445,1.28340
349.79338,1.27636
349.55231,1.26826
349.31124,1.25973
349.07017,1.25228
348.82910,1.24916
348.58802,1.25000
348.34695,1.25216
348.10588,1.25573
347.86481,1.26122
347.62374,1.26512
347.38267,1.26455
347.14160,1.26425
346.90053,1.27144
346.65946,1.28508
346.41839,1.29625
346.17732,1.29997
345.93625,1.30135
345.69518,1.30633
345.45411,1.31340
345.21304,1.31723
344.97197,1.31415
344.73090,1.30398
344.48983,1.29070
344.24875,1.28223
344.00768,1.28603
343.76661,1.30140
343.52554,1.31840
343.28447,1.32847
343.04340,1.33476
342.80233,1.34554
342.56126,1.35981
342.32019,1.36600
342.07912,1.35597
341.83805,1.33643
341.59698,1.32309
341.35591,1.32593
341.11484,1.34181
340.87377,1.35837
340.63270,1.36642
340.39163,1.36814
340.15056,1.37039
339.90948,1.37406
339.66841,1.37492
339.42734,1.37313
339.18627,1.37557
338.94520,1.38719
338.70413,1.40452
338.46306,1.41823
338.22199,1.42134
337.98092,1.41479
337.73985,1.40568
337.49878,1.40063
337.25771,1.40204
337.01664,1.41091
336.77557,1.42618
336.53450,1.43932
336.29343,1.43920
336.05236,1.42277
335.81129,1.39672
335.57021,1.37102
335.32914,1.35267
335.08807,1.34433
334.84700,1.34487
334.60593,1.35086
334.36486,1.35863
334.12379,1.36552
333.88272,1.37018
333.64165,1.37271
333.40058,1.37549
333.15951,1.38043
332.91844,1.38461
332.67737,1.38273
332.43630,1.37463
332.19523,1.36515
331.95416,1.35619
331.71309,1.34498
331.47202,1.33025
331.23094,1.31592
330.98987,1.30639
330.74880,1.29984
330.50773,1.29259
330.26666,1.28744
330.02559,1.29073
329.78452,1.30369
329.54345,1.32124
329.30238,1.33652
329.06131,1.34524
328.82024,1.34576
328.57917,1.33805
328.33810,1.32403
328.09703,1.30669
327.85596,1.29007
327.61489,1.27963
327.37382,1.27962
327.13275,1.28819
326.89167,1.29692
326.65060,1.30017
326.40953,1.30260
326.16846,1.30928
325.92739,1.31335
325.68632,1.30391
325.44525,1.28523
325.20418,1.27643
324.96311,1.28611
324.72204,1.29955
324.48097,1.30022
324.23990,1.29344
323.99883,1.29419
323.75776,1.30444
323.51669,1.31412
323.27562,1.31793
323.03455,1.32072
322.79348,1.32837
322.55240,1.33908
322.31133,1.34322
322.07026,1.33688
321.82919,1.33024
321.58812,1.33520
321.34705,1.34875
321.10598,1.35343
320.86491,1.34033
320.62384,1.32173
320.38277,1.31094
320.14170,1.30735
319.90063,1.30727
319.65956,1.31090
319.41849,1.31851
319.17742,1.32616
318.93635,1.32617
318.69528,1.31613
318.45421,1.30276
318.21313,1.29367
317.97206,1.29044
317.73099,1.29266
317.48992,1.30485
317.24885,1.32916
317.00778,1.35291
316.76671,1.35658
316.52564,1.34060
316.28457,1.32704
316.04350,1.33152
315.80243,1.34752
315.56136,1.35652
315.32029,1.35104
315.07922,1.34166
314.83815,1.33861
314.59708,1.34058
314.35601,1.34164
314.11494,1.33700
313.87386,1.32592
313.63279,1.31403
313.39172,1.31045
313.15065,1.31930
312.90958,1.33638
312.66851,1.35479
312.42744,1.37017
312.18637,1.37930
311.94530,1.38056
311.70423,1.37798
311.46316,1.37372
311.22209,1.36726
310.98102,1.36351
310.73995,1.37026
310.49888,1.38858
310.25781,1.40869
310.01674,1.41726
309.77567,1.41053
309.53459,1.39769
309.29352,1.38938
309.05245,1.38644
308.81138,1.38161
308.57031,1.37190
308.32924,1.36378
308.08817,1.36336
307.84710,1.36816
307.60603,1.37324
307.36496,1.37879
307.12389,1.38735
306.88282,1.39813
306.64175,1.40599
306.40068,1.40568
306.15961,1.39826
305.91854,1.39108
305.67747,1.38884
305.43640,1.39028
305.19532,1.39329
304.95425,1.39640
304.71318,1.39764
304.47211,1.39480
304.23104,1.38452
303.98997,1.36358
303.74890,1.33889
303.50783,1.32732
303.26676,1.33673
303.02569,1.35449
302.78462,1.36078
302.54355,1.35076
302.30248,1.33420
302.06141,1.32116
301.82034,1.31662
301.57927,1.32170
301.33820,1.33402
301.09713,1.34671
300.85605,1.35215
300.61498,1.34766
300.37391,1.33456
300.13284,1.31678
299.89177,1.30155
299.65070,1.29515
299.40963,1.29522
299.16856,1.29297
298.92749,1.28462
298.68642,1.27534
298.44535,1.27105
298.20428,1.27210
297.96321,1.27516
297.72214,1.27509
297.48107,1.26693
297.24000,1.25237
296.99893,1.24056
296.75786,1.23775
296.51678,1.24076
296.27571,1.24237
296.03464,1.23929
295.79357,1.23350
295.55250,1.22792
295.31143,1.22260
295.07036,1.21638
294.82929,1.21029
294.58822,1.20594
294.34715,1.20258
294.10608,1.19857
293.86501,1.19532
293.62394,1.19660
293.38287,1.20243
293.14180,1.20676
292.90073,1.20419
292.65966,1.19644
292.41859,1.18929
292.17751,1.18608
291.93644,1.18609
291.69537,1.18603
291.45430,1.18323
291.21323,1.17943
290.97216,1.17924
290.73109,1.18308
290.49002,1.18435
290.24895,1.17704
290.00788,1.16422
289.76681,1.15398
289.52574,1.14990
289.28467,1.14978
289.04360,1.15152
288.80253,1.15554
288.56146,1.16099
288.32039,1.16377
288.07932,1.16077
287.83824,1.15255
287.59717,1.14124
287.35610,1.13035
287.11503,1.12457
286.87396,1.12562
286.63289,1.12971
286.39182,1.13151
286.15075,1.12944
285.90968,1.12577
285.66861,1.12364
285.42754,1.12475
285.18647,1.12833
284.94540,1.13208
284.70433,1.13474
284.46326,1.13652
284.22219,1.13695
283.98112,1.13457
283.74005,1.13002
283.49897,1.12702
283.25790,1.12825
283.01683,1.13223
282.77576,1.13601
282.53469,1.13866
282.29362,1.14045
282.05255,1.14083
281.81148,1.13943
281.57041,1.13717
281.32934,1.13509
281.08827,1.13391
280.84720,1.13387
280.60613,1.13339
280.36506,1.13051
280.12399,1.12633
279.88292,1.12436
279.64185,1.12592
279.40078,1.12836
279.15970,1.12865
278.91863,1.12766
278.67756,1.12927
278.43649,1.13473
278.19542,1.14013
277.95435,1.14110
277.71328,1.13839
277.47221,1.13592
277.23114,1.13559
276.99007,1.13635
276.74900,1.13617
276.50793,1.13400
276.26686,1.13082
276.02579,1.12899
275.78472,1.13016
275.54365,1.13346
275.30258,1.13610
275.06151,1.13630
274.82043,1.13572
274.57936,1.13777
274.33829,1.14280
274.09722,1.14676
273.85615,1.14631
273.61508,1.14344
273.37401,1.14250
273.13294,1.14467
272.89187,1.14826
272.65080,1.15204
272.40973,1.15567
272.16866,1.15815
271.92759,1.15772
271.68652,1.15389
271.44545,1.14930
271.20438,1.14815
270.96331,1.15215
270.72224,1.15883
270.48116,1.16402
270.24009,1.16564
269.99902,1.16456
269.75795,1.16287
269.51688,1.16324
269.27581,1.16880
269.03474,1.18082
268.79367,1.19600
268.55260,1.20850
268.31153,1.21498
268.07046,1.21606
267.82939,1.21439
267.58832,1.21326
267.34725,1.21470
267.10618,1.21785
266.86511,1.22131
266.62404,1.22637
266.38297,1.23474
266.14189,1.24475
265.90082,1.25408
265.65975,1.26370
265.41868,1.27459
265.17761,1.28393
264.93654,1.28904
264.69547,1.29254
264.45440,1.29930
264.21333,1.31023
263.97226,1.32206
263.73119,1.33220
263.49012,1.34136
263.24905,1.35181
263.00798,1.36531
262.76691,1.38247
262.52584,1.40128
262.28477,1.41603
262.04370,1.42338
261.80262,1.42942
261.56155,1.44388
261.32048,1.46916
261.07941,1.49802
260.83834,1.52285
260.59727,1.54740
260.35620,1.58205
260.11513,1.62560
259.87406,1.66116
259.63299,1.67954
259.39192,1.69293
259.15085,1.71275
258.90978,1.73314
258.66871,1.74386
258.42764,1.74765
258.18657,1.75572
257.94550,1.77317
257.70443,1.79809
257.46335,1.82924
257.22228,1.86127
256.98121,1.88215
256.74014,1.89784
256.49907,1.93101
256.25800,1.97800
256.01693,1.99689
255.77586,1.96170
255.53479,1.90123
255.29372,1.84759
255.05265,1.80782
254.81158,1.77830
254.57051,1.75585
254.32944,1.73874
254.08837,1.72591
253.84730,1.71671
253.60623,1.71028
253.36516,1.70932
253.12408,1.71562
252.88301,1.71775
252.64194,1.70010
252.40087,1.66782
252.15980,1.63911
251.91873,1.61889
251.67766,1.60187
251.43659,1.58927
251.19552,1.58443
250.95445,1.58223
250.71338,1.57571
250.47231,1.56757
250.23124,1.56438
249.99017,1.56894
249.74910,1.58173
249.50803,1.59712
249.26696,1.60371
249.02589,1.59793
248.78481,1.58970
248.54374,1.58819
248.30267,1.59152
248.06160,1.59326
247.82053,1.59170
247.57946,1.58993
247.33839,1.59277
247.09732,1.60486
246.85625,1.62655
246.61518,1.65246
246.37411,1.67766
246.13304,1.70021
245.89197,1.71545
245.65090,1.71860
245.40983,1.71315
245.16876,1.71099
244.92769,1.72510
244.68661,1.75879
244.44554,1.80091
244.20447,1.83422
243.96340,1.85367
243.72233,1.87048
243.48126,1.89785
243.24019,1.94817
242.99912,2.02428
242.75805,2.07625
242.51698,2.01383
242.27591,1.88464
242.03484,1.76475
241.79377,1.67498
241.55270,1.60438
241.31163,1.54295
241.07056,1.49146
240.82949,1.44931
240.58842,1.40917
240.34734,1.36581
240.10627,1.32013
239.86520,1.27636
239.62413,1.23911
239.38306,1.21053
239.14199,1.18908
238.90092,1.17139
238.65985,1.15403
238.41878,1.13398
238.17771,1.11040
237.93664,1.08662
237.69557,1.06706
237.45450,1.05245
237.21343,1.04007
236.97236,1.02769
236.73129,1.01531
236.49022,1.00448
236.24915,0.99676
236.00807,0.99145
235.76700,0.98480
235.52593,0.97417
235.28486,0.96248
235.04379,0.95496
234.80272,0.95177
234.56165,0.94757
234.32058,0.93910
234.07951,0.92971
233.83844,0.92402
233.59737,0.92148
233.35630,0.91741
233.11523,0.90883
232.87416,0.89755
232.63309,0.88823
232.39202,0.88477
232.15095,0.88702
231.90988,0.89023
231.66880,0.88947
231.42773,0.88486
231.18666,0.88003
230.94559,0.87668
230.70452,0.87417
230.46345,0.87262
230.22238,0.87239
229.98131,0.87160
229.74024,0.86810
229.49917,0.86279
229.25810,0.85792
229.01703,0.85370
228.77596,0.84901
228.53489,0.84429
228.29382,0.84143
228.05275,0.84155
227.81168,0.84385
227.57061,0.84590
227.32953,0.84544
227.08846,0.84270
226.84739,0.84056
226.60632,0.84112
226.36525,0.84266
226.12418,0.84176
225.88311,0.83783
225.64204,0.83270
225.40097,0.82732
225.15990,0.82214
224.91883,0.81980
224.67776,0.82291
224.43669,0.82965
224.19562,0.83534
223.95455,0.83792
223.71348,0.83909
223.47241,0.84047
223.23134,0.84229
222.99026,0.84490
222.74919,0.84848
222.50812,0.85192
222.26705,0.85461
222.02598,0.85815
221.78491,0.86347
221.54384,0.86875
221.30277,0.87261
221.06170,0.87642
220.82063,0.88175
220.57956,0.88855
220.33849,0.89593
220.09742,0.90284
219.85635,0.90908
219.61528,0.91638
219.37421,0.92606
219.13314,0.93639
218.89207,0.94502
218.65099,0.95237
218.40992,0.96018
218.16885,0.96957
217.92778,0.98081
217.68671,0.99296
217.44564,1.00430
217.20457,1.01426
216.96350,1.02374
216.72243,1.03393
216.48136,1.04599
216.24029,1.06031
215.99922,1.07624
215.75815,1.09313
215.51708,1.10967
215.27601,1.12233
215.03494,1.12861
214.79387,1.13179
214.55280,1.13845
214.31172,1.15157
214.07065,1.16744
213.82958,1.17932
213.58851,1.18517
213.34744,1.18942
213.10637,1.19542
212.86530,1.20102
212.62423,1.20344
212.38316,1.20349
212.14209,1.20303
211.90102,1.20414
211.65995,1.21060
211.41888,1.22336
211.17781,1.23699
210.93674,1.24430
210.69567,1.24156
210.45460,1.23094
210.21353,1.21972
209.97245,1.21438
209.73138,1.21511
209.49031,1.21766
209.24924,1.22054
209.00817,1.22680
208.76710,1.23733
208.52603,1.24601
208.28496,1.24423
208.04389,1.22915
207.80282,1.20520
207.56175,1.17925
207.32068,1.15674
207.07961,1.14103
206.83854,1.13377
206.59747,1.13368
206.35640,1.13582
206.11533,1.13519
205.87426,1.13098
205.63318,1.12486
205.39211,1.11656
205.15104,1.10330
204.90997,1.08440
204.66890,1.06448
204.42783,1.04934
204.18676,1.03995
203.94569,1.03242
203.70462,1.02304
203.46355,1.01182
203.22248,1.00121
202.98141,0.99152
202.74034,0.97958
202.49927,0.96305
202.25820,0.94420
202.01713,0.92705
201.77606,0.91325
201.53499,0.90219
201.29391,0.89234
201.05284,0.88226
200.81177,0.87217
200.57070,0.86421
200.32963,0.85980
200.08856,0.85676
199.84749,0.84983
199.60642,0.83550
199.36535,0.81608
199.12428,0.79750
198.88321,0.78350
198.64214,0.77369
198.40107,0.76578
198.16000,0.75798
197.91893,0.74964
197.67786,0.74132
197.43679,0.73428
197.19572,0.72921
196.95464,0.72572
196.71357,0.72212
196.47250,0.71569
196.23143,0.70518
195.99036,0.69309
195.74929,0.68334
195.50822,0.67701
195.26715,0.67180
195.02608,0.66573
194.78501,0.65987
194.54394,0.65619
194.30287,0.65427
194.06180,0.65157
193.82073,0.64620
193.57966,0.63846
193.33859,0.63020
193.09752,0.62401
192.85645,0.62159
192.61537,0.62164
192.37430,0.62055
192.13323,0.61660
191.89216,0.61176
191.65109,0.60825
191.41002,0.60576
191.16895,0.60307
190.92788,0.60020
190.68681,0.59772
190.44574,0.59528
190.20467,0.59171
189.96360,0.58653
189.72253,0.58119
189.48146,0.57817
189.24039,0.57829
188.99932,0.57970
188.75825,0.58004
188.51718,0.57868
188.27610,0.57633
188.03503,0.57389
187.79396,0.57219
187.55289,0.57136
187.31182,0.57013
187.07075,0.56718
186.82968,0.56339
186.58861,0.56126
186.34754,0.56176
186.10647,0.56261
185.86540,0.56105
185.62433,0.55804
185.38326,0.55739
185.14219,0.56084
184.90112,0.56564
184.66005,0.56753
184.41898,0.56554
184.17791,0.56284
183.93683,0.56288
183.69576,0.56586
183.45469,0.56921
183.21362,0.57099
182.97255,0.57170
182.73148,0.57253
182.49041,0.57349
182.24934,0.57410
182.00827,0.57515
181.76720,0.57749
181.52613,0.57948
181.28506,0.57867
181.04399,0.57657
180.80292,0.57732
180.56185,0.58119
180.32078,0.58431
180.07971,0.58528
179.83864,0.58726
179.59756,0.59221
179.35649,0.59811
179.11542,0.60308
178.87435,0.60832
178.63328,0.61510
178.39221,0.62259
178.15114,0.62997
177.91007,0.63763
177.66900,0.64573
177.42793,0.65446
177.18686,0.66519
176.94579,0.67857
176.70472,0.69298
176.46365,0.70725
176.22258,0.72203
175.98151,0.73740
175.74044,0.75262
175.49937,0.76801
175.25829,0.78403
175.01722,0.80057
174.77615,0.81858
174.53508,0.83838
174.29401,0.85682
174.05294,0.87159
173.81187,0.88642
173.57080,0.90562
173.32973,0.92668
173.08866,0.94310
172.84759,0.95221
172.60652,0.95705
172.36545,0.96198
172.12438,0.96770
171.88331,0.97058
171.64224,0.96749
171.40117,0.95985
171.16010,0.95210
170.91902,0.94776
170.67795,0.94595
170.43688,0.94144
170.19581,0.93080
169.95474,0.91800
169.71367,0.90982
169.47260,0.90779
169.23153,0.90702
168.99046,0.90176
168.74939,0.89156
168.50832,0.88143
168.26725,0.87606
168.02618,0.87553
167.78511,0.87736
167.54404,0.88054
167.30297,0.88562
167.06190,0.89234
166.82083,0.89895
166.57975,0.90349
166.33868,0.90513
166.09761,0.90466
165.85654,0.90393
165.61547,0.90503
165.37440,0.90918
165.13333,0.91596
164.89226,0.92389
164.65119,0.93200
164.41012,0.94071
164.16905,0.95102
163.92798,0.96296
163.68691,0.97517
163.44584,0.98589
163.20477,0.99432
162.96370,1.00039
162.72263,1.00335
162.48156,1.00302
162.24048,1.00200
161.99941,1.00324
161.75834,1.00638
161.51727,1.00886
161.27620,1.00931
161.03513,1.00770
160.79406,1.00323
160.55299,0.99528
160.31192,0.98571
160.07085,0.97785
159.82978,0.97360
159.58871,0.97347
159.34764,0.97766
159.10657,0.98443
158.86550,0.98890
158.62443,0.98742
158.38336,0.98155
158.14229,0.97426
157.90121,0.96527
157.66014,0.95370
157.41907,0.94223
157.17800,0.93567
156.93693,0.93584
156.69586,0.93920
156.45479,0.94049
156.21372,0.93824
155.97265,0.93468
155.73158,0.93053
155.49051,0.92286
155.24944,0.90899
155.00837,0.89064
154.76730,0.87271
154.52623,0.85899
154.28516,0.85038
154.04409,0.84530
153.80302,0.84008
153.56194,0.83028
153.32087,0.81403
153.07980,0.79380
152.83873,0.77398
152.59766,0.75761
152.35659,0.74548
152.11552,0.73662
151.87445,0.72848
151.63338,0.71773
151.39231,0.70285
151.15124,0.68603
150.91017,0.67107
150.66910,0.65939
150.42803,0.64957
150.18696,0.64009
149.94589,0.63001
149.70482,0.61797
149.46375,0.60367
149.22267,0.58958
148.98160,0.57895
148.74053,0.57273
148.49946,0.56929
148.25839,0.56630
148.01732,0.56223
147.77625,0.55695
147.53518,0.55147
147.29411,0.54715
147.05304,0.54508
146.81197,0.54528
146.57090,0.54642
146.32983,0.54731
146.08876,0.54875
145.84769,0.55275
145.60662,0.55955
145.36555,0.56670
145.12448,0.57195
144.88340,0.57590
144.64233,0.58038
144.40126,0.58540
144.16019,0.58929
143.91912,0.59137
143.67805,0.59241
143.43698,0.59257
143.19591,0.59072
142.95484,0.58607
142.71377,0.57919
142.47270,0.57079
142.23163,0.56099
141.99056,0.55018
141.74949,0.53972
141.50842,0.53072
141.26735,0.52315
141.02628,0.51678
140.78521,0.51238
140.54413,0.51052
140.30306,0.50989
140.06199,0.50850
139.82092,0.50662
139.57985,0.50664
139.33878,0.50989
139.09771,0.51512
138.85664,0.52047
138.61557,0.52581
138.37450,0.53239
138.13343,0.54089
137.89236,0.55048
137.65129,0.55978
137.41022,0.56909
137.16915,0.58066
136.92808,0.59602
136.68701,0.61361
136.44594,0.63061
136.20486,0.64698
135.96379,0.66529
135.72272,0.68689
135.48165,0.71091
135.24058,0.73695
134.99951,0.76551
134.75844,0.79554
134.51737,0.82469
134.27630,0.85341
134.03523,0.88531
133.79416,0.92179
133.55309,0.95984
133.31202,0.99516
133.07095,1.02425
132.82988,1.04485
132.58881,1.05844
132.34774,1.06998
132.10667,1.08247
131.86559,1.09505
131.62452,1.10680
131.38345,1.11681
131.14238,1.12138
130.90131,1.11657
130.66024,1.10322
130.41917,1.08684
130.17810,1.07192
129.93703,1.05692
129.69596,1.03690
129.45489,1.01064
129.21382,0.98155
128.97275,0.95151
128.73168,0.91866
128.49061,0.88152
128.24954,0.84214
128.00847,0.80469
127.76740,0.77295
127.52632,0.74770
127.28525,0.72556
127.04418,0.70211
126.80311,0.67660
126.56204,0.65205
126.32097,0.63085
126.07990,0.61261
125.83883,0.59569
125.59776,0.57914
125.35669,0.56321
125.11562,0.54883
124.87455,0.53652
124.63348,0.52516
124.39241,0.51300
124.15134,0.49997
123.91027,0.48800
123.66920,0.47901
123.42812,0.47331
123.18705,0.46972
122.94598,0.46672
122.70491,0.46346
122.46384,0.46024
122.22277,0.45774
121.98170,0.45606
121.74063,0.45486
121.49956,0.45426
121.25849,0.45514
121.01742,0.45860
120.77635,0.46503
120.53528,0.47385
120.29421,0.48403
120.05314,0.49467
119.81207,0.50580
119.57100,0.51880
119.32993,0.53554
119.08885,0.55649
118.84778,0.57980
118.60671,0.60311
118.36564,0.62646
118.12457,0.65223
117.88350,0.68125
117.64243,0.71015
117.40136,0.73409
117.16029,0.75109
116.91922,0.76221
116.67815,0.76904
116.43708,0.77247
116.19601,0.77248
115.95494,0.76850
115.71387,0.76071
115.47280,0.75050
115.23173,0.73893
114.99066,0.72569
114.74958,0.71076
114.50851,0.69687
114.26744,0.68806
114.02637,0.68541
113.78530,0.68594
113.54423,0.68624
113.30316,0.68594
113.06209,0.68658
112.82102,0.68896
112.57995,0.69295
112.33888,0.69813
112.09781,0.70335
111.85674,0.70705
111.61567,0.70869
111.37460,0.70879
111.13353,0.70760
110.89246,0.70512
110.65139,0.70205
110.41031,0.69865
110.16924,0.69374
109.92817,0.68627
109.68710,0.67710
109.44603,0.66792
109.20496,0.65863
108.96389,0.64731
108.72282,0.63303
108.48175,0.61717
108.24068,0.60143
107.99961,0.58590
107.75854,0.56945
107.51747,0.55083
107.27640,0.52941
107.03533,0.50621
106.79426,0.48423
106.55319,0.46659
106.31212,0.45414
106.07104,0.44535
105.82997,0.43840
105.58890,0.43273
105.34783,0.42791
105.10676,0.42179
104.86569,0.41134
104.62462,0.39599
104.38355,0.37897
104.14248,0.36457
103.90141,0.35479
103.66034,0.34901
103.41927,0.34557
103.17820,0.34336
102.93713,0.34183
102.69606,0.33986
102.45499,0.33542
102.21392,0.32736
101.97285,0.31709
101.73177,0.30759
101.49070,0.30108
101.24963,0.29823
101.00856,0.29859
100.76749,0.30042
100.52642,0.30006
100.28535,0.29426
100.04428,0.28441
99.80321,0.27641
99.56214,0.27509
99.32107,0.27986
99.08000,0.28546
98.83893,0.28617
98.59786,0.28074
98.35679,0.27345
98.11572,0.26980
97.87465,0.27178
97.63358,0.27650
97.39250,0.27894
97.15143,0.27729
96.91036,0.27484
96.66929,0.27559
96.42822,0.28033
96.18715,0.28691
95.94608,0.29292
95.70501,0.29806
95.46394,0.30375
95.22287,0.31026
94.98180,0.31604
94.74073,0.31937
94.49966,0.31961
94.25859,0.31826
94.01752,0.31861
93.77645,0.32232
93.53538,0.32637
93.29431,0.32585
93.05323,0.32078
92.81216,0.31650
92.57109,0.31667
92.33002,0.31919
92.08895,0.31987
91.84788,0.31963
91.60681,0.32441
91.36574,0.33652
91.12467,0.35049
90.88360,0.36100
90.64253,0.37288
90.40146,0.39476
90.16039,0.42661
89.91932,0.46105
89.67825,0.49691
89.43718,0.54049
89.19611,0.59028
88.95504,0.63524
88.71396,0.67090
88.47289,0.69980
88.23182,0.71587
87.99075,0.71012
87.74968,0.68643
87.50861,0.65404
87.26754,0.61731
87.02647,0.57891
86.78540,0.54146
86.54433,0.50596
86.30326,0.47328
86.06219,0.44445
85.82112,0.41921
85.58005,0.39642
85.33898,0.37476
85.09791,0.35329
84.85684,0.33313
84.61577,0.31675
84.37469,0.30427
84.13362,0.29351
83.89255,0.28339
83.65148,0.27436
83.41041,0.26611
83.16934,0.25746
82.92827,0.24801
82.68720,0.23861
82.44613,0.23058
82.20506,0.22468
81.96399,0.22050
81.72292,0.21696
81.48185,0.21345
81.24078,0.21016
80.99971,0.20737
80.75864,0.20493
80.51757,0.20236
80.27650,0.19939
80.03542,0.19595
79.79435,0.19210
79.55328,0.18848
79.31221,0.18639
79.07114,0.18662
78.83007,0.18798
78.58900,0.18804
78.34793,0.18577
78.10686,0.18250
77.86579,0.17962
77.62472,0.17689
77.38365,0.17384
77.14258,0.17141
76.90151,0.17075
76.66044,0.17129
76.41937,0.17154
76.17830,0.17112
75.93723,0.17069
75.69615,0.16987
75.45508,0.16724
75.21401,0.16290
74.97294,0.15954
74.73187,0.15988
74.49080,0.16400
74.24973,0.16957
74.00866,0.17402
73.76759,0.17617
73.52652,0.17630
73.28545,0.17543
73.04438,0.17462
72.80331,0.17406
72.56224,0.17250
72.32117,0.16894
72.08010,0.16466
71.83903,0.16248
71.59796,0.16383
71.35688,0.16758
71.11581,0.17116
70.87474,0.17259
70.63367,0.17221
70.39260,0.17287
70.15153,0.17800
69.91046,0.18899
69.66939,0.20408
69.42832,0.21900
69.18725,0.22892
68.94618,0.23096
68.70511,0.22570
68.46404,0.21611
68.22297,0.20516
67.98190,0.19499
67.74083,0.18719
67.49976,0.18162
67.25869,0.17543
67.01761,0.16561
66.77654,0.15260
66.53547,0.13968
66.29440,0.12965
66.05333,0.12380
65.81226,0.12250
65.57119,0.12562
65.33012,0.13288
65.08905,0.14409
64.84798,0.15861
64.60691,0.17507
64.36584,0.19172
64.12477,0.20629
63.88370,0.21541
63.64263,0.21612
63.40156,0.20928
63.16049,0.19954
62.91942,0.19117
62.67834,0.18486
62.43727,0.17892
62.19620,0.17241
61.95513,0.16629
61.71406,0.16133
61.47299,0.15672
61.23192,0.15130
60.99085,0.14547
60.74978,0.14106
60.50871,0.13961
60.26764,0.14072
60.02657,0.14251
59.78550,0.14382
59.54443,0.14524
59.30336,0.14741
59.06229,0.14917
58.82122,0.14917
58.58015,0.14853
58.33907,0.15028
58.09800,0.15596
57.85693,0.16356
57.61586,0.16853
57.37479,0.16675
57.13372,0.15803
56.89265,0.14621
56.65158,0.13520
56.41051,0.12613
56.16944,0.11855
55.92837,0.11199
55.68730,0.10609
55.44623,0.10079
55.20516,0.09687
54.96409,0.09546
54.72302,0.09707
54.48195,0.10178
54.24088,0.11055
53.99980,0.12522
53.75873,0.14637
53.51766,0.17128
53.27659,0.19346
53.03552,0.20431
52.79445,0.19823
52.55338,0.17873
52.31231,0.15542
52.07124,0.13485
51.83017,0.11916
51.58910,0.11199
51.34803,0.12000
51.10696,0.14747
50.86589,0.18827
50.62482,0.21544
50.38375,0.19905
50.14268,0.15729
49.90161,0.12364
49.66053,0.11343
49.41946,0.13181
49.17839,0.17013
48.93732,0.19217
48.69625,0.16833
48.45518,0.12989
48.21411,0.11357
47.97304,0.12923
47.73197,0.16471
47.49090,0.18092
47.24983,0.15287
47.00876,0.11883
46.76769,0.11236
46.52662,0.12688
46.28555,0.12736
46.04448,0.10232
45.80341,0.08750
45.56234,0.10704
45.32126,0.13880
45.08019,0.13650
44.83912,0.11305
44.59805,0.10974
44.35698,0.12221
44.11591,0.12215
43.87484,0.11415
43.63377,0.11848
43.39270,0.13222
43.15163,0.14405
42.91056,0.15326
42.66949,0.15887
42.42842,0.15899
42.18735,0.16007
41.94628,0.16528
41.70521,0.16799
41.46414,0.16400
41.22307,0.15611
40.98199,0.14966
40.74092,0.15019
40.49985,0.15809
40.25878,0.16706
40.01771,0.17299
39.77664,0.17762
39.53557,0.18214
39.29450,0.18619
39.05343,0.19165
38.81236,0.20047
38.57129,0.21052
38.33022,0.21776
38.08915,0.22267
37.84808,0.22964
37.60701,0.23882
37.36594,0.24274
37.12487,0.23370
36.88380,0.21568
36.64272,0.19992
36.40165,0.19365
36.16058,0.19738
35.91951,0.20450
35.67844,0.20602
35.43737,0.19858
35.19630,0.18666
34.95523,0.17836
34.71416,0.17741
34.47309,0.17923
34.23202,0.17853
33.99095,0.17741
33.74988,0.18023
33.50881,0.18537
33.26774,0.18712
33.02667,0.18394
32.78560,0.18251
32.54453,0.18913
32.30345,0.19980
32.06238,0.20428
31.82131,0.19844
31.58024,0.18740
31.33917,0.17533
31.09810,0.15930
30.85703,0.13473
30.61596,0.10492
30.37489,0.08101
30.13382,0.07320
29.89275,0.08069
29.65168,0.09155
29.41061,0.09554
29.16954,0.09171
28.92847,0.08235
28.68740,0.06461
28.44633,0.03633
28.20526,0.00509
27.96418,-0.01998
27.72311,-0.03790
27.48204,-0.05097
27.24097,-0.05872
26.99990,-0.05954
26.75883,-0.05230
26.51776,-0.03981
26.27669,-0.03099
26.03562,-0.03122
25.79455,-0.03644
25.55348,-0.04308
25.31241,-0.05035
25.07134,-0.05675
24.83027,-0.06782
24.58920,-0.09389
24.34813,-0.13265
24.10706,-0.16870
23.86599,-0.19097
23.62491,-0.19777
23.38384,-0.18991
23.14277,-0.17058
22.90170,-0.15431
22.66063,-0.16296
22.41956,-0.19893
22.17849,-0.23599
21.93742,-0.25277
21.69635,-0.25822
21.45528,-0.27159
21.21421,-0.29634
20.97314,-0.31973
20.73207,-0.32662
20.49100,-0.31505
20.24993,-0.29959
20.00886,-0.29374
19.76779,-0.29573
19.52672,-0.29771
19.28564,-0.30011
19.04457,-0.30638
18.80350,-0.31476
18.56243,-0.31819
18.32136,-0.31286
18.08029,-0.31196
17.83922,-0.33034
17.59815,-0.36017
17.35708,-0.38405
17.11601,-0.39573
16.87494,-0.39327
16.63387,-0.37755
16.39280,-0.36273
16.15173,-0.35321
15.91066,-0.35180
15.66959,-0.36280
15.42852,-0.38716
15.18745,-0.42183
14.94637,-0.45508
14.70530,-0.46291
14.46423,-0.43294
14.22316,-0.39051
13.98209,-0.36125
13.74102,-0.35274
13.49995,-0.36365
13.25888,-0.39096
13.01781,-0.41794
12.77674,-0.42782
12.53567,-0.42698
12.29460,-0.41130
12.05353,-0.39532
11.81246,-0.40247
11.57139,-0.42132
11.33032,-0.42479
11.08925,-0.42025
10.84818,-0.41875
10.60710,-0.41992
10.36603,-0.41990
10.12496,-0.41350
9.88389,-0.41213
9.64282,-0.41243
9.40175,-0.40707
9.16068,-0.40030
8.91961,-0.39216
8.67854,-0.38574
8.43747,-0.37990
8.19640,-0.37655
7.95533,-0.37948
7.71426,-0.38778
7.47319,-0.39354
7.23212,-0.39428
6.99105,-0.39391
6.74998,-0.37508
6.50891,-0.36279
6.26783,-0.36198
6.02676,-0.37932
5.78569,-0.40487
5.54462,-0.40253
5.30355,-0.39871
5.06248,-0.39701
4.82141,-0.39156
4.58034,-0.38368
4.33927,-0.37091
4.09820,-0.34982
3.85713,-0.33847
3.61606,-0.35196
3.37499,-0.35839
3.13392,-0.34219
2.89285,-0.34503
2.65178,-0.36120
2.41071,-0.37196
2.16964,-0.37579
1.92856,-0.39182
1.68749,-0.41571
1.44642,-0.43975
1.20535,-0.44553
0.96428,-0.41537
0.72321,-0.40592
0.48214,-0.40330
0.24107,-0.39061
-0.00000,-0.26189
