399.69498,1.53499
399.45391,1.54701
399.21284,1.55639
398.97177,1.55599
398.73070,1.54763
398.48963,1.53988
398.24856,1.53672
398.00749,1.53373
397.76642,1.52406
397.52535,1.50829
397.28428,1.49832
397.04321,1.50142
396.80214,1.50804
396.56107,1.50692
396.32000,1.50232
396.07892,1.50668
395.83785,1.52331
395.59678,1.54017
395.35571,1.54178
395.11464,1.52867
394.87357,1.51476
394.63250,1.51049
394.39143,1.51593
394.15036,1.52385
393.90929,1.52840
393.66822,1.52843
393.42715,1.52379
393.18608,1.51472
392.94501,1.50639
392.70394,1.50685
392.46287,1.51910
392.22180,1.53980
391.98073,1.56240
391.73965,1.57944
391.49858,1.58140
391.25751,1.55835
391.01644,1.51659
390.77537,1.47859
390.53430,1.46018
390.29323,1.46373
390.05216,1.48304
389.81109,1.50433
389.57002,1.51163
389.32895,1.50457
389.08788,1.50019
388.84681,1.50893
388.60574,1.52696
388.36467,1.53963
388.12360,1.52577
387.88253,1.48436
387.64146,1.43865
387.40038,1.41084
387.15931,1.40916
386.91824,1.42989
386.67717,1.45802
386.43610,1.46895
386.19503,1.44848
385.95396,1.41129
385.71289,1.38326
385.47182,1.37456
385.23075,1.37514
384.98968,1.37119
384.74861,1.36068
384.50754,1.34895
384.26647,1.33806
384.02540,1.32608
383.78433,1.31063
383.54326,1.29266
383.30219,1.27663
383.06111,1.26575
382.82004,1.25928
382.57897,1.25797
382.33790,1.26481
382.09683,1.27596
381.85576,1.28013
381.61469,1.27139
381.37362,1.25597
381.13255,1.24697
380.89148,1.25481
380.65041,1.27831
380.40934,1.30349
380.16827,1.31680
379.92720,1.31742
379.68613,1.31000
379.44506,1.29948
379.20399,1.28724
378.96292,1.26897
378.72184,1.24941
378.48077,1.24635
378.23970,1.27148
377.99863,1.31639
377.75756,1.35543
377.51649,1.36465
377.27542,1.34815
377.03435,1.33574
376.79328,1.34731
376.55221,1.37042
376.31114,1.37815
376.07007,1.36523
375.82900,1.34570
375.58793,1.33509
375.34686,1.34286
375.10579,1.36682
374.86472,1.39279
374.62365,1.40743
374.38257,1.41121
374.14150,1.40981
373.90043,1.40061
373.65936,1.38213
373.41829,1.36952
373.17722,1.37919
372.93615,1.40574
372.69508,1.42570
372.45401,1.42149
372.21294,1.39696
371.97187,1.36926
371.73080,1.35279
371.48973,1.35296
371.24866,1.36616
371.00759,1.38203
370.76652,1.39075
370.52545,1.39185
370.28437,1.39192
370.04330,1.39302
369.80223,1.39016
369.56116,1.38150
369.32009,1.37303
369.07902,1.36904
368.83795,1.36505
368.59688,1.35586
368.35581,1.34449
368.11474,1.33808
367.87367,1.33933
367.63260,1.34467
367.39153,1.35042
367.15046,1.35544
366.90939,1.35673
366.66832,1.35090
366.42725,1.33876
366.18618,1.32534
365.94510,1.31574
365.70403,1.30839
365.46296,1.29882
365.22189,1.28916
364.98082,1.28517
364.73975,1.28823
364.49868,1.29521
364.25761,1.30260
364.01654,1.30722
363.77547,1.30658
363.53440,1.30195
363.29333,1.29691
363.05226,1.29499
362.81119,1.29821
362.57012,1.30427
362.32905,1.30896
362.08798,1.30887
361.84691,1.30330
361.60583,1.29522
361.36476,1.28897
361.12369,1.28771
360.88262,1.29036
360.64155,1.29148
360.40048,1.28682
360.15941,1.27852
359.91834,1.27496
359.67727,1.28305
359.43620,1.29703
359.19513,1.29918
358.95406,1.28099
358.71299,1.25656
358.47192,1.24607
358.23085,1.25640
357.98978,1.27809
357.74871,1.29414
357.50764,1.29347
357.26656,1.27891
357.02549,1.26012
356.78442,1.24316
356.54335,1.22982
356.30228,1.22268
356.06121,1.22556
355.82014,1.23723
355.57907,1.24837
355.33800,1.25067
355.09693,1.24772
354.85586,1.24887
354.61479,1.25467
354.37372,1.25624
354.13265,1.24950
353.89158,1.24061
353.65051,1.23469
353.40944,1.23224
353.16837,1.23448
352.92729,1.24161
352.68622,1.24878
352.44515,1.24976
352.20408,1.24543
351.96301,1.24300
351.72194,1.24504
351.48087,1.24674
351.23980,1.24497
350.99873,1.24265
350.75766,1.24224
350.51659,1.24238
350.27552,1.24392
350.03445,1.25244
349.79338,1.26874
349.55231,1.28210
349.31124,1.28103
349.07017,1.26727
348.82910,1.25193
348.58802,1.24267
348.34695,1.24035
348.10588,1.24278
347.86481,1.24732
347.62374,1.25240
347.38267,1.25745
347.14160,1.26133
346.90053,1.26184
346.65946,1.25844
346.41839,1.25567
346.17732,1.26083
345.93625,1.27465
345.69518,1.28784
345.45411,1.29435
345.21304,1.29931
344.97197,1.30603
344.73090,1.31056
344.48983,1.31113
344.24875,1.30814
344.00768,1.29886
343.76661,1.28425
343.52554,1.27445
343.28447,1.27898
343.04340,1.29507
342.80233,1.30974
342.56126,1.31309
342.32019,1.30886
342.07912,1.30911
341.83805,1.31800
341.59698,1.32589
341.35591,1.32336
341.11484,1.31472
340.87377,1.31247
340.63270,1.32178
340.39163,1.33664
340.15056,1.35118
339.90948,1.36505
339.66841,1.37513
339.42734,1.37326
339.18627,1.35914
338.94520,1.34652
338.70413,1.34821
338.46306,1.36065
338.22199,1.36844
337.98092,1.36418
337.73985,1.35600
337.49878,1.35323
337.25771,1.35498
337.01664,1.35547
336.77557,1.35496
336.53450,1.35983
336.29343,1.37386
336.05236,1.38987
335.81129,1.39492
335.57021,1.38588
335.32914,1.37193
335.08807,1.36248
334.84700,1.35850
334.60593,1.35731
334.36486,1.35733
334.12379,1.35618
333.88272,1.35298
333.64165,1.35097
333.40058,1.35134
333.15951,1.35160
332.91844,1.34969
332.67737,1.34502
332.43630,1.33496
332.19523,1.31880
331.95416,1.30301
331.71309,1.29523
331.47202,1.29673
331.23094,1.30253
330.98987,1.31116
330.74880,1.32548
330.50773,1.33945
330.26666,1.33921
330.02559,1.32349
329.78452,1.30436
329.54345,1.29042
329.30238,1.28296
329.06131,1.28208
328.82024,1.28856
328.57917,1.29881
328.33810,1.30516
328.09703,1.30484
327.85596,1.30134
327.61489,1.29647
327.37382,1.28742
327.13275,1.27382
326.89167,1.26428
326.65060,1.26981
326.40953,1.28793
326.16846,1.30053
325.92739,1.29830
325.68632,1.29167
325.44525,1.28971
325.20418,1.28923
324.96311,1.28270
324.72204,1.27164
324.48097,1.26629
324.23990,1.27265
323.99883,1.28502
323.75776,1.29118
323.51669,1.28745
323.27562,1.28022
323.03455,1.27263
322.79348,1.26469
322.55240,1.26252
322.31133,1.27209
322.07026,1.28542
321.82919,1.28641
321.58812,1.27561
321.34705,1.26198
321.10598,1.25175
320.86491,1.25311
320.62384,1.27111
320.38277,1.29724
320.14170,1.30943
319.90063,1.29566
319.65956,1.27289
319.41849,1.26604
319.17742,1.28047
318.93635,1.30126
318.69528,1.31385
318.45421,1.31857
318.21313,1.32204
317.97206,1.32654
317.73099,1.33017
317.48992,1.32975
317.24885,1.32357
317.00778,1.31428
316.76671,1.30534
316.52564,1.29676
316.28457,1.28964
316.04350,1.28768
315.80243,1.29129
315.56136,1.29692
315.32029,1.30198
315.07922,1.30516
314.83815,1.30416
314.59708,1.29828
314.35601,1.29061
314.11494,1.28458
313.87386,1.28342
313.63279,1.29011
313.39172,1.30145
313.15065,1.30795
312.90958,1.30623
312.66851,1.30485
312.42744,1.31269
312.18637,1.32760
311.94530,1.33941
311.70423,1.34367
311.46316,1.34517
311.22209,1.34608
310.98102,1.34228
310.73995,1.33415
310.49888,1.33175
310.25781,1.34524
310.01674,1.37412
309.77567,1.40348
309.53459,1.41246
309.29352,1.39728
309.05245,1.37678
308.81138,1.37000
308.57031,1.38096
308.32924,1.40163
308.08817,1.41817
307.84710,1.41666
307.60603,1.39645
307.36496,1.37489
307.12389,1.36888
306.88282,1.37828
306.64175,1.39080
306.40068,1.39563
306.15961,1.39006
305.91854,1.37804
305.67747,1.36535
305.43640,1.35773
305.19532,1.35980
304.95425,1.37165
304.71318,1.38409
304.47211,1.38029
304.23104,1.35665
303.98997,1.32945
303.74890,1.31284
303.50783,1.31045
303.26676,1.31718
303.02569,1.31995
302.78462,1.30813
302.54355,1.28747
302.30248,1.27494
302.06141,1.27970
301.82034,1.29491
301.57927,1.30637
301.33820,1.30640
301.09713,1.29610
300.85605,1.28010
300.61498,1.26607
300.37391,1.26096
300.13284,1.26447
299.89177,1.26968
299.65070,1.26957
299.40963,1.26323
299.16856,1.25654
298.92749,1.25568
298.68642,1.25819
298.44535,1.25430
298.20428,1.24052
297.96321,1.22478
297.72214,1.21569
297.48107,1.21437
297.24000,1.21526
296.99893,1.21253
296.75786,1.20647
296.51678,1.20344
296.27571,1.20752
296.03464,1.21259
295.79357,1.20737
295.55250,1.19094
295.31143,1.17585
295.07036,1.17377
294.82929,1.18430
294.58822,1.19589
294.34715,1.19655
294.10608,1.18675
293.86501,1.17777
293.62394,1.17717
293.38287,1.18163
293.14180,1.18265
292.90073,1.17625
292.65966,1.16526
292.41859,1.15461
292.17751,1.14879
291.93644,1.14985
291.69537,1.15460
291.45430,1.15691
291.21323,1.15386
290.97216,1.14799
290.73109,1.14434
290.49002,1.14699
290.24895,1.15655
290.00788,1.16881
289.76681,1.17591
289.52574,1.17266
289.28467,1.16199
289.04360,1.15057
288.80253,1.14091
288.56146,1.13185
288.32039,1.12422
288.07932,1.12103
287.83824,1.12290
287.59717,1.12651
287.35610,1.12796
287.11503,1.12656
286.87396,1.12437
286.63289,1.12369
286.39182,1.12382
286.15075,1.12109
285.90968,1.11421
285.66861,1.10805
285.42754,1.10847
285.18647,1.11367
284.94540,1.11586
284.70433,1.11238
284.46326,1.10890
284.22219,1.11071
283.98112,1.11626
283.74005,1.12028
283.49897,1.11998
283.25790,1.11712
283.01683,1.11499
282.77576,1.11506
282.53469,1.11670
282.29362,1.11854
282.05255,1.11921
281.81148,1.11739
281.57041,1.11286
281.32934,1.10816
281.08827,1.10799
280.84720,1.11413
280.60613,1.12135
280.36506,1.12264
280.12399,1.11819
279.88292,1.11441
279.64185,1.11467
279.40078,1.11620
279.15970,1.11601
278.91863,1.11593
278.67756,1.11991
278.43649,1.12722
278.19542,1.13240
277.95435,1.13304
277.71328,1.13117
277.47221,1.12718
277.23114,1.12001
276.99007,1.11259
276.74900,1.10968
276.50793,1.11195
276.26686,1.11748
276.02579,1.12516
275.78472,1.13240
275.54365,1.13486
275.30258,1.13223
275.06151,1.12828
274.82043,1.12431
274.57936,1.11906
274.33829,1.11446
274.09722,1.11433
273.85615,1.11847
273.61508,1.12332
273.37401,1.12710
273.13294,1.13108
272.89187,1.13569
272.65080,1.13807
272.40973,1.13509
272.16866,1.12759
271.92759,1.12042
271.68652,1.11893
271.44545,1.12497
271.20438,1.13532
270.96331,1.14456
270.72224,1.15031
270.48116,1.15410
270.24009,1.15826
269.99902,1.16379
269.75795,1.17011
269.51688,1.17559
269.27581,1.17942
269.03474,1.18303
268.79367,1.18823
268.55260,1.19346
268.31153,1.19412
268.07046,1.18900
267.82939,1.18407
267.58832,1.18573
267.34725,1.19284
267.10618,1.19903
266.86511,1.20133
266.62404,1.20262
266.38297,1.20626
266.14189,1.21290
265.90082,1.22249
265.65975,1.23536
265.41868,1.25101
265.17761,1.26728
264.93654,1.28085
264.69547,1.28824
264.45440,1.28818
264.21333,1.28503
263.97226,1.28674
263.73119,1.29686
263.49012,1.31042
263.24905,1.32008
263.00798,1.32610
262.76691,1.33530
262.52584,1.35049
262.28477,1.36770
262.04370,1.38366
261.80262,1.39922
261.56155,1.41390
261.32048,1.42632
261.07941,1.44029
260.83834,1.46293
260.59727,1.49347
260.35620,1.52367
260.11513,1.55275
259.87406,1.58624
259.63299,1.61892
259.39192,1.63955
259.15085,1.65378
258.90978,1.67674
258.66871,1.71107
258.42764,1.74723
258.18657,1.77270
257.94550,1.78073
257.70443,1.77769
257.46335,1.78126
257.22228,1.80514
256.98121,1.83750
256.74014,1.84537
256.49907,1.81942
256.25800,1.79375
256.01693,1.79723
255.77586,1.81651
255.53479,1.81540
255.29372,1.79064
255.05265,1.77642
254.81158,1.78483
254.57051,1.79078
254.32944,1.77096
254.08837,1.73647
253.84730,1.70908
253.60623,1.69652
253.36516,1.69787
253.12408,1.70202
252.88301,1.68956
252.64194,1.65374
252.40087,1.60911
252.15980,1.57804
251.91873,1.57314
251.67766,1.58931
251.43659,1.60781
251.19552,1.61441
250.95445,1.61218
250.71338,1.60776
250.47231,1.59947
250.23124,1.58637
249.99017,1.57537
249.74910,1.56990
249.50803,1.56205
249.26696,1.54802
249.02589,1.53751
248.78481,1.54003
248.54374,1.55196
248.30267,1.56185
248.06160,1.56771
247.82053,1.57654
247.57946,1.58759
247.33839,1.59455
247.09732,1.59900
246.85625,1.60158
246.61518,1.59394
246.37411,1.58083
246.13304,1.58426
245.89197,1.61365
245.65090,1.65092
245.40983,1.67309
245.16876,1.68629
244.92769,1.71466
244.68661,1.76635
244.44554,1.82711
244.20447,1.87954
243.96340,1.92187
243.72233,1.95698
243.48126,1.97170
243.24019,1.97055
242.99912,1.98627
242.75805,2.02881
242.51698,2.03624
242.27591,1.92318
242.03484,1.78698
241.79377,1.67346
241.55270,1.58408
241.31163,1.51527
241.07056,1.46317
240.82949,1.42000
240.58842,1.37515
240.34734,1.32554
240.10627,1.27935
239.86520,1.24568
239.62413,1.22411
239.38306,1.20543
239.14199,1.18221
238.90092,1.15601
238.65985,1.13154
238.41878,1.10967
238.17771,1.08904
237.93664,1.06965
237.69557,1.05211
237.45450,1.03585
237.21343,1.01962
236.97236,1.00341
236.73129,0.98911
236.49022,0.97811
236.24915,0.96905
236.00807,0.95980
235.76700,0.95142
235.52593,0.94617
235.28486,0.94234
235.04379,0.93522
234.80272,0.92407
234.56165,0.91411
234.32058,0.90983
234.07951,0.91001
233.83844,0.91083
233.59737,0.90978
233.35630,0.90472
233.11523,0.89432
232.87416,0.88226
232.63309,0.87551
232.39202,0.87639
232.15095,0.88070
231.90988,0.88320
231.66880,0.88185
231.42773,0.87747
231.18666,0.87223
230.94559,0.86820
230.70452,0.86548
230.46345,0.86288
230.22238,0.86090
229.98131,0.86066
229.74024,0.86012
229.49917,0.85596
229.25810,0.84861
229.01703,0.84082
228.77596,0.83326
228.53489,0.82627
228.29382,0.82264
228.05275,0.82439
227.81168,0.82926
227.57061,0.83309
227.32953,0.83424
227.08846,0.83323
226.84739,0.82992
226.60632,0.82332
226.36525,0.81423
226.12418,0.80640
225.88311,0.80317
225.64204,0.80418
225.40097,0.80703
225.15990,0.81098
224.91883,0.81689
224.67776,0.82445
224.43669,0.83117
224.19562,0.83446
223.95455,0.83457
223.71348,0.83411
223.47241,0.83425
223.23134,0.83409
222.99026,0.83395
222.74919,0.83592
222.50812,0.84085
222.26705,0.84733
222.02598,0.85301
221.78491,0.85616
221.54384,0.85756
221.30277,0.86069
221.06170,0.86774
220.82063,0.87636
220.57956,0.88238
220.33849,0.88438
220.09742,0.88401
219.85635,0.88397
219.61528,0.88722
219.37421,0.89624
219.13314,0.91105
218.89207,0.92803
218.65099,0.94236
218.40992,0.95208
218.16885,0.95897
217.92778,0.96541
217.68671,0.97256
217.44564,0.98145
217.20457,0.99431
216.96350,1.01319
216.72243,1.03650
216.48136,1.05738
216.24029,1.06909
215.99922,1.07268
215.75815,1.07539
215.51708,1.08201
215.27601,1.09215
215.03494,1.10485
214.79387,1.12099
214.55280,1.13831
214.31172,1.14931
214.07065,1.14967
213.82958,1.14526
213.58851,1.14578
213.34744,1.15480
213.10637,1.16979
212.86530,1.18684
212.62423,1.20087
212.38316,1.20660
212.14209,1.20445
211.90102,1.20178
211.65995,1.20515
211.41888,1.21440
211.17781,1.22468
210.93674,1.23119
210.69567,1.23086
210.45460,1.22319
210.21353,1.21204
209.97245,1.20400
209.73138,1.20339
209.49031,1.20963
209.24924,1.21785
209.00817,1.22065
208.76710,1.21336
208.52603,1.19868
208.28496,1.18346
208.04389,1.17252
207.80282,1.16647
207.56175,1.16283
207.32068,1.15722
207.07961,1.14631
206.83854,1.13241
206.59747,1.12248
206.35640,1.12090
206.11533,1.12409
205.87426,1.12191
205.63318,1.10738
205.39211,1.08495
205.15104,1.06491
204.90997,1.05345
204.66890,1.04932
204.42783,1.04601
204.18676,1.03662
203.94569,1.01916
203.70462,0.99852
203.46355,0.98292
203.22248,0.97707
202.98141,0.97731
202.74034,0.97372
202.49927,0.95965
202.25820,0.93877
202.01713,0.92010
201.77606,0.90937
201.53499,0.90603
201.29391,0.90408
201.05284,0.89576
200.81177,0.87764
200.57070,0.85380
200.32963,0.83208
200.08856,0.81785
199.84749,0.81049
199.60642,0.80445
199.36535,0.79482
199.12428,0.78195
198.88321,0.76981
198.64214,0.76193
198.40107,0.75861
198.16000,0.75589
197.91893,0.74879
197.67786,0.73740
197.43679,0.72709
197.19572,0.72167
196.95464,0.71848
196.71357,0.71155
196.47250,0.69975
196.23143,0.68855
195.99036,0.68330
195.74929,0.68315
195.50822,0.68212
195.26715,0.67668
195.02608,0.66979
194.78501,0.66560
194.54394,0.66301
194.30287,0.65739
194.06180,0.64771
193.82073,0.63784
193.57966,0.63093
193.33859,0.62631
193.09752,0.62148
192.85645,0.61511
192.61537,0.60838
192.37430,0.60345
192.13323,0.60098
191.89216,0.59936
191.65109,0.59714
191.41002,0.59495
191.16895,0.59383
190.92788,0.59295
190.68681,0.59137
190.44574,0.59038
190.20467,0.59086
189.96360,0.59043
189.72253,0.58671
189.48146,0.58158
189.24039,0.57830
188.99932,0.57665
188.75825,0.57396
188.51718,0.56961
188.27610,0.56614
188.03503,0.56535
187.79396,0.56549
187.55289,0.56389
187.31182,0.56089
187.07075,0.55834
186.82968,0.55650
186.58861,0.55568
186.34754,0.55772
186.10647,0.56227
185.86540,0.56527
185.62433,0.56403
185.38326,0.56072
185.14219,0.55824
184.90112,0.55680
184.66005,0.55607
184.41898,0.55693
184.17791,0.55949
183.93683,0.56232
183.69576,0.56432
183.45469,0.56521
183.21362,0.56511
182.97255,0.56526
182.73148,0.56704
182.49041,0.56939
182.24934,0.57025
182.00827,0.57020
181.76720,0.57108
181.52613,0.57273
181.28506,0.57424
181.04399,0.57647
180.80292,0.58039
180.56185,0.58497
180.32078,0.58847
180.07971,0.59063
179.83864,0.59219
179.59756,0.59334
179.35649,0.59399
179.11542,0.59520
178.87435,0.59855
178.63328,0.60431
178.39221,0.61182
178.15114,0.62114
177.91007,0.63242
177.66900,0.64491
177.42793,0.65757
177.18686,0.66960
176.94579,0.68054
176.70472,0.69103
176.46365,0.70227
176.22258,0.71469
175.98151,0.72866
175.74044,0.74470
175.49937,0.76124
175.25829,0.77521
175.01722,0.78690
174.77615,0.79973
174.53508,0.81485
174.29401,0.83055
174.05294,0.84725
173.81187,0.86781
173.57080,0.89145
173.32973,0.91148
173.08866,0.92254
172.84759,0.92661
172.60652,0.92829
172.36545,0.92932
172.12438,0.93027
171.88331,0.93268
171.64224,0.93606
171.40117,0.93615
171.16010,0.92985
170.91902,0.92002
170.67795,0.91297
170.43688,0.91186
170.19581,0.91417
169.95474,0.91557
169.71367,0.91435
169.47260,0.91083
169.23153,0.90572
168.99046,0.90016
168.74939,0.89467
168.50832,0.88817
168.26725,0.88001
168.02618,0.87168
167.78511,0.86539
167.54404,0.86212
167.30297,0.86178
167.06190,0.86467
166.82083,0.87154
166.57975,0.88143
166.33868,0.89002
166.09761,0.89254
165.85654,0.88902
165.61547,0.88410
165.37440,0.88230
165.13333,0.88580
164.89226,0.89522
164.65119,0.90967
164.41012,0.92690
164.16905,0.94361
163.92798,0.95527
163.68691,0.95855
163.44584,0.95633
163.20477,0.95583
162.96370,0.96075
162.72263,0.96984
162.48156,0.98156
162.24048,0.99457
161.99941,1.00499
161.75834,1.00871
161.51727,1.00611
161.27620,1.00061
161.03513,0.99434
160.79406,0.98870
160.55299,0.98616
160.31192,0.98748
160.07085,0.98871
159.82978,0.98512
159.58871,0.97753
159.34764,0.96989
159.10657,0.96294
158.86550,0.95544
158.62443,0.94956
158.38336,0.94852
158.14229,0.94985
157.90121,0.94736
157.66014,0.93939
157.41907,0.92980
157.17800,0.92249
156.93693,0.91923
156.69586,0.92039
156.45479,0.92367
156.21372,0.92336
155.97265,0.91476
155.73158,0.90011
155.49051,0.88689
155.24944,0.88008
155.00837,0.87836
154.76730,0.87631
154.52623,0.86793
154.28516,0.85131
154.04409,0.83086
153.80302,0.81290
153.56194,0.79960
153.32087,0.78821
153.07980,0.77561
152.83873,0.76185
152.59766,0.74862
152.35659,0.73638
152.11552,0.72425
151.87445,0.71137
151.63338,0.69712
151.39231,0.68134
151.15124,0.66538
150.91017,0.65183
150.66910,0.64210
150.42803,0.63474
150.18696,0.62628
149.94589,0.61420
149.70482,0.59961
149.46375,0.58657
149.22267,0.57850
148.98160,0.57512
148.74053,0.57235
148.49946,0.56610
148.25839,0.55675
148.01732,0.54859
147.77625,0.54488
147.53518,0.54489
147.29411,0.54563
147.05304,0.54535
146.81197,0.54478
146.57090,0.54556
146.32983,0.54809
146.08876,0.55153
145.84769,0.55549
145.60662,0.56042
145.36555,0.56583
145.12448,0.56983
144.88340,0.57118
144.64233,0.57112
144.40126,0.57256
144.16019,0.57684
143.91912,0.58154
143.67805,0.58287
143.43698,0.58012
143.19591,0.57589
142.95484,0.57184
142.71377,0.56679
142.47270,0.55968
142.23163,0.55185
141.99056,0.54473
141.74949,0.53719
141.50842,0.52770
141.26735,0.51795
141.02628,0.51128
140.78521,0.50783
140.54413,0.50484
140.30306,0.50140
140.06199,0.49952
139.82092,0.50044
139.57985,0.50325
139.33878,0.50701
139.09771,0.51108
138.85664,0.51449
138.61557,0.51797
138.37450,0.52478
138.13343,0.53621
137.89236,0.54863
137.65129,0.55827
137.41022,0.56652
137.16915,0.57685
136.92808,0.59019
136.68701,0.60554
136.44594,0.62218
136.20486,0.63974
135.96379,0.65850
135.72272,0.67936
135.48165,0.70238
135.24058,0.72629
134.99951,0.75045
134.75844,0.77611
134.51737,0.80470
134.27630,0.83549
134.03523,0.86646
133.79416,0.89732
133.55309,0.92945
133.31202,0.96224
133.07095,0.99222
132.82988,1.01668
132.58881,1.03606
132.34774,1.05387
132.10667,1.07467
131.86559,1.09801
131.62452,1.11716
131.38345,1.12786
131.14238,1.13212
130.90131,1.12978
130.66024,1.11637
130.41917,1.09204
130.17810,1.06236
129.93703,1.03078
129.69596,0.99789
129.45489,0.96511
129.21382,0.93421
128.97275,0.90493
128.73168,0.87530
128.49061,0.84400
128.24954,0.81148
128.00847,0.77941
127.76740,0.75014
127.52632,0.72533
127.28525,0.70374
127.04418,0.68204
126.80311,0.65885
126.56204,0.63608
126.32097,0.61584
126.07990,0.59832
125.83883,0.58272
125.59776,0.56842
125.35669,0.55491
125.11562,0.54147
124.87455,0.52765
124.63348,0.51405
124.39241,0.50180
124.15134,0.49138
123.91027,0.48244
123.66920,0.47447
123.42812,0.46712
123.18705,0.46024
122.94598,0.45425
122.70491,0.44984
122.46384,0.44729
122.22277,0.44623
121.98170,0.44616
121.74063,0.44673
121.49956,0.44781
121.25849,0.44974
121.01742,0.45362
120.77635,0.46045
120.53528,0.46983
120.29421,0.48033
120.05314,0.49123
119.81207,0.50302
119.57100,0.51619
119.32993,0.53116
119.08885,0.54910
118.84778,0.57099
118.60671,0.59607
118.36564,0.62243
118.12457,0.64883
117.88350,0.67534
117.64243,0.70277
117.40136,0.73119
117.16029,0.75786
116.91922,0.77791
116.67815,0.78873
116.43708,0.79203
116.19601,0.78980
115.95494,0.78148
115.71387,0.76673
115.47280,0.74823
115.23173,0.73012
114.99066,0.71419
114.74958,0.69905
114.50851,0.68393
114.26744,0.67179
114.02637,0.66657
113.78530,0.66859
113.54423,0.67446
113.30316,0.68057
113.06209,0.68471
112.82102,0.68529
112.57995,0.68170
112.33888,0.67535
112.09781,0.66886
111.85674,0.66393
111.61567,0.66050
111.37460,0.65888
111.13353,0.66163
110.89246,0.67143
110.65139,0.68775
110.41031,0.70505
110.16924,0.71326
109.92817,0.70377
109.68710,0.67942
109.44603,0.65173
109.20496,0.62905
108.96389,0.61406
108.72282,0.60675
108.48175,0.60489
108.24068,0.60271
107.99961,0.59202
107.75854,0.56851
107.51747,0.53748
107.27640,0.50920
107.03533,0.49030
106.79426,0.48087
106.55319,0.47737
106.31212,0.47509
106.07104,0.46810
105.82997,0.45182
105.58890,0.42902
105.34783,0.40859
105.10676,0.39708
104.86569,0.39412
104.62462,0.39374
104.38355,0.38919
104.14248,0.37784
103.90141,0.36298
103.66034,0.35079
103.41927,0.34543
103.17820,0.34584
102.93713,0.34660
102.69606,0.34258
102.45499,0.33343
102.21392,0.32308
101.97285,0.31543
101.73177,0.31198
101.49070,0.31227
101.24963,0.31382
101.00856,0.31234
100.76749,0.30496
100.52642,0.29371
100.28535,0.28435
100.04428,0.28114
99.80321,0.28251
99.56214,0.28167
99.32107,0.27461
99.08000,0.26611
98.83893,0.26332
98.59786,0.26790
98.35679,0.27451
98.11572,0.27546
97.87465,0.26981
97.63358,0.26489
97.39250,0.26680
97.15143,0.27284
96.91036,0.27472
96.66929,0.27079
96.42822,0.26917
96.18715,0.27545
95.94608,0.28523
95.70501,0.29108
95.46394,0.29386
95.22287,0.30073
94.98180,0.31280
94.74073,0.32242
94.49966,0.32452
94.25859,0.32407
94.01752,0.32621
93.77645,0.32756
93.53538,0.32425
93.29431,0.32147
93.05323,0.32398
92.81216,0.32664
92.57109,0.32443
92.33002,0.32263
92.08895,0.32574
91.84788,0.33008
91.60681,0.33344
91.36574,0.33973
91.12467,0.35098
90.88360,0.36548
90.64253,0.38322
90.40146,0.40458
90.16039,0.42849
89.91932,0.45698
89.67825,0.49461
89.43718,0.54073
89.19611,0.58794
88.95504,0.62850
88.71396,0.65984
88.47289,0.68392
88.23182,0.69970
87.99075,0.69982
87.74968,0.68061
87.50861,0.64815
87.26754,0.61101
87.02647,0.57458
86.78540,0.53990
86.54433,0.50472
86.30326,0.46895
86.06219,0.43682
85.82112,0.41033
85.58005,0.38626
85.33898,0.36209
85.09791,0.33947
84.85684,0.32039
84.61577,0.30457
84.37469,0.29069
84.13362,0.27789
83.89255,0.26660
83.65148,0.25828
83.41041,0.25295
83.16934,0.24832
82.92827,0.24271
82.68720,0.23693
82.44613,0.23196
82.20506,0.22719
81.96399,0.22239
81.72292,0.21902
81.48185,0.21794
81.24078,0.21767
80.99971,0.21694
80.75864,0.21641
80.51757,0.21627
80.27650,0.21468
80.03542,0.21061
79.79435,0.20572
79.55328,0.20232
79.31221,0.20125
79.07114,0.20200
78.83007,0.20339
78.58900,0.20379
78.34793,0.20185
78.10686,0.19747
77.86579,0.19198
77.62472,0.18695
77.38365,0.18271
77.14258,0.17865
76.90151,0.17462
76.66044,0.17125
76.41937,0.16908
76.17830,0.16817
75.93723,0.16832
75.69615,0.16914
75.45508,0.16953
75.21401,0.16781
74.97294,0.16375
74.73187,0.15985
74.49080,0.15917
74.24973,0.16191
74.00866,0.16535
73.76759,0.16730
73.52652,0.16797
73.28545,0.16852
73.04438,0.16979
72.80331,0.17236
72.56224,0.17617
72.32117,0.17983
72.08010,0.18152
71.83903,0.18034
71.59796,0.17619
71.35688,0.16953
71.11581,0.16212
70.87474,0.15749
70.63367,0.15939
70.39260,0.16945
70.15153,0.18658
69.91046,0.20831
69.66939,0.23179
69.42832,0.25278
69.18725,0.26571
68.94618,0.26670
68.70511,0.25630
68.46404,0.23826
68.22297,0.21746
67.98190,0.19846
67.74083,0.18378
67.49976,0.17369
67.25869,0.16721
67.01761,0.16256
66.77654,0.15777
66.53547,0.15257
66.29440,0.14834
66.05333,0.14587
65.81226,0.14483
65.57119,0.14582
65.33012,0.15093
65.08905,0.16126
64.84798,0.17517
64.60691,0.18969
64.36584,0.20322
64.12477,0.21536
63.88370,0.22424
63.64263,0.22642
63.40156,0.22049
63.16049,0.20886
62.91942,0.19521
62.67834,0.18152
62.43727,0.16810
62.19620,0.15550
61.95513,0.14491
61.71406,0.13691
61.47299,0.13079
61.23192,0.12536
60.99085,0.11995
60.74978,0.11507
60.50871,0.11305
60.26764,0.11694
60.02657,0.12769
59.78550,0.14279
59.54443,0.15828
59.30336,0.17134
59.06229,0.18035
58.82122,0.18358
58.58015,0.17992
58.33907,0.17131
58.09800,0.16125
57.85693,0.15102
57.61586,0.13987
57.37479,0.12794
57.13372,0.11783
56.89265,0.11320
56.65158,0.11710
56.41051,0.13144
56.16944,0.15631
55.92837,0.18715
55.68730,0.21024
55.44623,0.20809
55.20516,0.18057
54.96409,0.14440
54.72302,0.11368
54.48195,0.09602
54.24088,0.09605
53.99980,0.11658
53.75873,0.15651
53.51766,0.20126
53.27659,0.21846
53.03552,0.19645
52.79445,0.16151
52.55338,0.13583
52.31231,0.12953
52.07124,0.14691
51.83017,0.18188
51.58910,0.20654
51.34803,0.18810
51.10696,0.14515
50.86589,0.11857
50.62482,0.12729
50.38375,0.16880
50.14268,0.20739
49.90161,0.18678
49.66053,0.13171
49.41946,0.10164
49.17839,0.11895
48.93732,0.17256
48.69625,0.19950
48.45518,0.15476
48.21411,0.11230
47.97304,0.12180
47.73197,0.17073
47.49090,0.19440
47.24983,0.16265
47.00876,0.13800
46.76769,0.14371
46.52662,0.14291
46.28555,0.12156
46.04448,0.11620
45.80341,0.13332
45.56234,0.14379
45.32126,0.14080
45.08019,0.14057
44.83912,0.13969
44.59805,0.13198
44.35698,0.13023
44.11591,0.14277
43.87484,0.16177
43.63377,0.17748
43.39270,0.18297
43.15163,0.17516
42.91056,0.16183
42.66949,0.15484
42.42842,0.15816
42.18735,0.16729
41.94628,0.17435
41.70521,0.17619
41.46414,0.17650
41.22307,0.17688
40.98199,0.17670
40.74092,0.17906
40.49985,0.18462
40.25878,0.18672
40.01771,0.18421
39.77664,0.18404
39.53557,0.18801
39.29450,0.19268
39.05343,0.19877
38.81236,0.20686
38.57129,0.21361
38.33022,0.21894
38.08915,0.22728
37.84808,0.24125
37.60701,0.25773
37.36594,0.26900
37.12487,0.26895
36.88380,0.25992
36.64272,0.25118
36.40165,0.25065
36.16058,0.25768
35.91951,0.26293
35.67844,0.25968
35.43737,0.25270
35.19630,0.24822
34.95523,0.24401
34.71416,0.23596
34.47309,0.22558
34.23202,0.21771
33.99095,0.21576
33.74988,0.21985
33.50881,0.22411
33.26774,0.22075
33.02667,0.21173
32.78560,0.20862
32.54453,0.21761
32.30345,0.22786
32.06238,0.22432
31.82131,0.21275
31.58024,0.20435
31.33917,0.19858
31.09810,0.19127
30.85703,0.18117
30.61596,0.16768
30.37489,0.15126
30.13382,0.13544
29.89275,0.12461
29.65168,0.12188
29.41061,0.12411
29.16954,0.12090
28.92847,0.10851
28.68740,0.09509
28.44633,0.08580
28.20526,0.07409
27.96418,0.05581
27.72311,0.04428
27.48204,0.05412
27.24097,0.07584
26.99990,0.08574
26.75883,0.07399
26.51776,0.05167
26.27669,0.03343
26.03562,0.02106
25.79455,0.00580
25.55348,-0.01508
25.31241,-0.03119
25.07134,-0.03287
24.83027,-0.02759
24.58920,-0.02876
24.34813,-0.03613
24.10706,-0.04183
23.86599,-0.04892
23.62491,-0.06848
23.38384,-0.09790
23.14277,-0.12244
22.90170,-0.13785
22.66063,-0.14602
22.41956,-0.14039
22.17849,-0.11677
21.93742,-0.08751
21.69635,-0.07305
21.45528,-0.08169
21.21421,-0.10391
20.97314,-0.12739
20.73207,-0.14967
20.49100,-0.16963
20.24993,-0.18058
20.00886,-0.18255
19.76779,-0.18717
19.52672,-0.20189
19.28564,-0.22382
19.04457,-0.24891
18.80350,-0.26662
18.56243,-0.26241
18.32136,-0.24719
18.08029,-0.24503
17.83922,-0.25587
17.59815,-0.26217
17.35708,-0.25843
17.11601,-0.25895
16.87494,-0.26796
16.63387,-0.26903
16.39280,-0.25022
16.15173,-0.22782
15.91066,-0.22261
15.66959,-0.22859
15.42852,-0.22888
15.18745,-0.22383
14.94637,-0.22333
14.70530,-0.22965
14.46423,-0.23961
14.22316,-0.24522
13.98209,-0.24022
13.74102,-0.23386
13.49995,-0.24172
13.25888,-0.26153
13.01781,-0.27361
12.77674,-0.26756
12.53567,-0.25176
12.29460,-0.24300
12.05353,-0.24830
11.81246,-0.25401
11.57139,-0.25375
11.33032,-0.25983
11.08925,-0.26992
10.84818,-0.27013
10.60710,-0.26183
10.36603,-0.25720
10.12496,-0.26310
9.88389,-0.27664
9.64282,-0.28621
9.40175,-0.28075
9.16068,-0.26306
8.91961,-0.24497
8.67854,-0.23549
8.43747,-0.23245
8.19640,-0.22767
7.95533,-0.22050
7.71426,-0.21510
7.47319,-0.21137
7.23212,-0.20868
6.99105,-0.21298
6.74998,-0.23157
6.50891,-0.25736
6.26783,-0.27040
6.02676,-0.26283
5.78569,-0.24861
5.54462,-0.24025
5.30355,-0.24345
5.06248,-0.25955
4.82141,-0.28765
4.58034,-0.32356
4.33927,-0.34481
4.09820,-0.32948
3.85713,-0.29064
3.61606,-0.25239
3.37499,-0.22952
3.13392,-0.22668
2.89285,-0.23666
2.65178,-0.24095
2.41071,-0.23574
2.16964,-0.23107
1.92856,-0.22595
1.68749,-0.21461
1.44642,-0.20828
1.20535,-0.21277
0.96428,-0.22437
0.72321,-0.26355
0.48214,-0.33845
0.24107,-0.33675
-0.00000,-0.20233
