399.69498,1.95899
399.45391,2.03868
399.21284,2.11059
398.97177,2.14438
398.73070,2.16645
398.48963,2.20521
398.24856,2.22725
398.00749,2.17926
397.76642,2.12894
397.52535,2.16084
397.28428,2.25300
397.04321,2.27517
396.80214,2.20026
396.56107,2.11314
396.32000,2.07101
396.07892,2.10258
395.83785,2.20197
395.59678,2.27078
395.35571,2.26969
395.11464,2.24926
394.87357,2.24330
394.63250,2.10294
394.39143,1.97329
394.15036,1.92857
393.90929,1.93148
393.66822,1.95520
393.42715,1.99448
393.18608,2.03173
392.94501,2.05332
392.70394,2.04354
392.46287,2.04386
392.22180,2.10139
391.98073,2.18698
391.73965,2.19636
391.49858,2.14930
391.25751,2.13751
391.01644,2.21933
390.77537,2.27387
390.53430,2.29268
390.29323,2.22920
390.05216,2.16975
389.81109,2.18209
389.57002,2.17462
389.32895,2.17164
389.08788,2.19589
388.84681,2.17658
388.60574,2.13163
388.36467,2.14324
388.12360,2.27584
387.88253,2.41545
387.64146,2.44081
387.40038,2.30173
387.15931,2.27674
386.91824,2.32172
386.67717,2.35760
386.43610,2.39195
386.19503,2.42769
385.95396,2.34676
385.71289,2.37093
385.47182,2.44570
385.23075,2.30597
384.98968,2.15222
384.74861,2.06777
384.50754,2.08030
384.26647,2.18222
384.02540,2.25080
383.78433,2.24825
383.54326,2.25988
383.30219,2.30694
383.06111,2.27202
382.82004,2.26535
382.57897,2.32321
382.33790,2.33116
382.09683,2.30527
381.85576,2.24261
381.61469,2.13641
381.37362,2.03669
381.13255,1.98707
380.89148,2.00299
380.65041,1.96064
380.40934,1.82527
380.16827,1.82556
379.92720,1.86803
379.68613,1.85021
379.44506,1.93296
379.20399,2.04669
378.96292,1.97547
378.72184,1.96325
378.48077,2.03595
378.23970,2.17789
377.99863,2.22723
377.75756,2.07780
377.51649,1.98543
377.27542,1.98955
377.03435,2.02362
376.79328,1.99082
376.55221,1.91296
376.31114,1.90543
376.07007,2.00581
375.82900,2.11578
375.58793,2.01484
375.34686,1.89346
375.10579,1.86280
374.86472,1.93382
374.62365,2.10206
374.38257,2.23359
374.14150,2.16605
373.90043,2.06323
373.65936,2.05507
373.41829,2.12503
373.17722,2.21258
372.93615,2.30495
372.69508,2.34886
372.45401,2.28407
372.21294,2.15389
371.97187,2.00537
371.73080,1.90164
371.48973,1.87040
371.24866,1.86948
371.00759,1.84808
370.76652,1.80502
370.52545,1.76812
370.28437,1.74948
370.04330,1.74620
369.80223,1.75776
369.56116,1.77331
369.32009,1.78627
369.07902,1.80165
368.83795,1.80661
368.59688,1.78509
368.35581,1.74693
368.11474,1.71543
367.87367,1.70660
367.63260,1.71560
367.39153,1.71905
367.15046,1.70241
366.90939,1.67477
366.66832,1.65203
366.42725,1.64162
366.18618,1.63580
365.94510,1.61368
365.70403,1.56899
365.46296,1.52695
365.22189,1.51617
364.98082,1.53698
364.73975,1.56032
364.49868,1.56036
364.25761,1.54616
364.01654,1.54034
363.77547,1.54565
363.53440,1.55142
363.29333,1.55663
363.05226,1.56676
362.81119,1.57732
362.57012,1.57765
362.32905,1.56291
362.08798,1.54101
361.84691,1.52819
361.60583,1.53283
361.36476,1.55182
361.12369,1.56790
360.88262,1.56008
360.64155,1.53676
360.40048,1.51858
360.15941,1.51241
359.91834,1.51370
359.67727,1.50882
359.43620,1.49093
359.19513,1.47020
358.95406,1.45781
358.71299,1.45500
358.47192,1.45732
358.23085,1.46406
357.98978,1.47971
357.74871,1.50334
357.50764,1.52022
357.26656,1.51622
357.02549,1.49913
356.78442,1.48813
356.54335,1.49040
356.30228,1.49689
356.06121,1.49490
355.82014,1.48057
355.57907,1.46143
355.33800,1.45154
355.09693,1.45932
354.85586,1.47994
354.61479,1.50001
354.37372,1.50620
354.13265,1.49428
353.89158,1.47336
353.65051,1.45677
353.40944,1.44866
353.16837,1.44360
352.92729,1.44037
352.68622,1.44385
352.44515,1.45896
352.20408,1.48684
351.96301,1.51892
351.72194,1.53864
351.48087,1.53873
351.23980,1.53132
350.99873,1.53051
350.75766,1.53468
350.51659,1.53439
350.27552,1.52585
350.03445,1.51132
349.79338,1.49825
349.55231,1.49231
349.31124,1.48984
349.07017,1.48562
348.82910,1.48515
348.58802,1.49919
348.34695,1.52828
348.10588,1.55709
347.86481,1.56340
347.62374,1.54015
347.38267,1.50749
347.14160,1.49131
346.90053,1.49922
346.65946,1.52138
346.41839,1.54509
346.17732,1.56597
345.93625,1.58531
345.69518,1.60370
345.45411,1.61524
345.21304,1.60884
344.97197,1.58514
344.73090,1.55924
344.48983,1.54126
344.24875,1.53607
344.00768,1.55240
343.76661,1.58906
343.52554,1.62352
343.28447,1.63649
343.04340,1.64323
342.80233,1.67251
342.56126,1.72957
342.32019,1.78709
342.07912,1.80086
341.83805,1.75594
341.59698,1.69495
341.35591,1.65679
341.11484,1.64815
340.87377,1.66185
340.63270,1.67945
340.39163,1.68408
340.15056,1.67474
339.90948,1.65852
339.66841,1.66155
339.42734,1.71217
339.18627,1.81144
338.94520,1.91486
338.70413,1.98055
338.46306,2.01521
338.22199,2.00872
337.98092,1.97920
337.73985,1.95293
337.49878,1.93211
337.25771,1.91979
337.01664,1.92083
336.77557,1.94472
336.53450,2.00574
336.29343,2.08671
336.05236,2.12195
335.81129,2.10575
335.57021,2.08325
335.32914,2.02286
335.08807,1.94446
334.84700,1.87057
334.60593,1.81264
334.36486,1.79309
334.12379,1.81457
333.88272,1.83148
333.64165,1.78733
333.40058,1.72955
333.15951,1.71797
332.91844,1.73770
332.67737,1.74466
332.43630,1.72357
332.19523,1.69605
331.95416,1.69889
331.71309,1.74400
331.47202,1.79212
331.23094,1.79656
330.98987,1.77223
330.74880,1.76064
330.50773,1.76524
330.26666,1.75758
330.02559,1.72195
329.78452,1.67251
329.54345,1.63974
329.30238,1.63777
329.06131,1.67700
328.82024,1.75788
328.57917,1.82703
328.33810,1.81902
328.09703,1.75612
327.85596,1.69561
327.61489,1.67877
327.37382,1.70655
327.13275,1.73341
326.89167,1.72714
326.65060,1.70001
326.40953,1.66329
326.16846,1.64482
325.92739,1.66469
325.68632,1.70719
325.44525,1.74330
325.20418,1.77024
324.96311,1.80097
324.72204,1.83156
324.48097,1.83584
324.23990,1.80444
323.99883,1.78657
323.75776,1.80788
323.51669,1.84987
323.27562,1.90385
323.03455,1.99061
322.79348,2.10779
322.55240,2.19438
322.31133,2.19719
322.07026,2.12622
321.82919,2.01710
321.58812,1.89754
321.34705,1.82799
321.10598,1.81970
320.86491,1.83033
320.62384,1.84015
320.38277,1.85917
320.14170,1.89390
319.90063,1.95211
319.65956,2.01117
319.41849,1.97164
319.17742,1.86498
318.93635,1.82781
318.69528,1.87929
318.45421,1.97339
318.21313,2.10349
317.97206,2.19288
317.73099,2.11509
317.48992,1.98725
317.24885,1.92793
317.00778,1.92464
316.76671,1.92526
316.52564,1.90951
316.28457,1.87803
316.04350,1.84893
315.80243,1.86653
315.56136,1.97478
315.32029,2.15062
315.07922,2.23653
314.83815,2.17844
314.59708,2.14387
314.35601,2.24110
314.11494,2.44079
313.87386,2.47170
313.63279,2.30766
313.39172,2.16728
313.15065,2.11050
312.90958,2.10281
312.66851,2.13018
312.42744,2.10564
312.18637,2.05284
311.94530,2.03595
311.70423,2.03312
311.46316,2.07356
311.22209,2.12618
310.98102,2.14678
310.73995,2.18493
310.49888,2.27609
310.25781,2.43123
310.01674,2.50918
309.77567,2.32894
309.53459,2.15245
309.29352,2.05097
309.05245,1.99920
308.81138,1.99047
308.57031,2.01964
308.32924,2.05864
308.08817,2.03258
307.84710,1.96047
307.60603,1.90909
307.36496,1.87270
307.12389,1.82862
306.88282,1.78110
306.64175,1.74557
306.40068,1.73542
306.15961,1.74968
305.91854,1.76418
305.67747,1.75164
305.43640,1.72056
305.19532,1.68755
304.95425,1.65606
304.71318,1.63169
304.47211,1.62116
304.23104,1.61217
303.98997,1.58202
303.74890,1.53953
303.50783,1.51105
303.26676,1.50331
303.02569,1.50538
302.78462,1.50410
302.54355,1.49175
302.30248,1.46647
302.06141,1.43398
301.82034,1.40530
301.57927,1.39195
301.33820,1.39594
301.09713,1.40365
300.85605,1.40260
300.61498,1.39671
300.37391,1.39272
300.13284,1.38655
299.89177,1.37392
299.65070,1.35894
299.40963,1.34662
299.16856,1.33893
298.92749,1.33519
298.68642,1.33200
298.44535,1.32402
298.20428,1.30776
297.96321,1.28540
297.72214,1.26432
297.48107,1.25315
297.24000,1.25368
296.99893,1.25783
296.75786,1.25644
296.51678,1.24815
296.27571,1.23607
296.03464,1.22196
295.79357,1.20918
295.55250,1.20302
295.31143,1.20514
295.07036,1.21109
294.82929,1.21359
294.58822,1.20970
294.34715,1.20462
294.10608,1.20271
293.86501,1.20047
293.62394,1.19384
293.38287,1.18642
293.14180,1.18408
292.90073,1.18585
292.65966,1.18532
292.41859,1.17726
292.17751,1.16125
291.93644,1.14325
291.69537,1.13200
291.45430,1.13132
291.21323,1.13776
290.97216,1.14561
290.73109,1.15166
290.49002,1.15492
290.24895,1.15477
290.00788,1.15077
289.76681,1.14384
289.52574,1.13603
289.28467,1.12842
289.04360,1.12098
288.80253,1.11399
288.56146,1.10825
288.32039,1.10403
288.07932,1.10079
287.83824,1.09797
287.59717,1.09515
287.35610,1.09266
287.11503,1.09155
286.87396,1.09244
286.63289,1.09432
286.39182,1.09432
286.15075,1.09029
285.90968,1.08390
285.66861,1.07890
285.42754,1.07754
285.18647,1.08058
284.94540,1.08773
284.70433,1.09595
284.46326,1.09978
284.22219,1.09585
283.98112,1.08589
283.74005,1.07448
283.49897,1.06577
283.25790,1.06255
283.01683,1.06585
282.77576,1.07344
282.53469,1.08046
282.29362,1.08436
282.05255,1.08665
281.81148,1.08834
281.57041,1.08769
281.32934,1.08417
281.08827,1.07962
280.84720,1.07422
280.60613,1.06724
280.36506,1.06180
280.12399,1.06388
279.88292,1.07443
279.64185,1.08517
279.40078,1.08590
279.15970,1.07724
278.91863,1.07023
278.67756,1.07194
278.43649,1.07759
278.19542,1.07956
277.95435,1.07804
277.71328,1.07653
277.47221,1.07406
277.23114,1.06804
276.99007,1.06020
276.74900,1.05534
276.50793,1.05559
276.26686,1.05770
276.02579,1.05706
275.78472,1.05426
275.54365,1.05443
275.30258,1.05989
275.06151,1.06690
274.82043,1.06996
274.57936,1.06783
274.33829,1.06417
274.09722,1.06252
273.85615,1.06227
273.61508,1.06038
273.37401,1.05702
273.13294,1.05645
272.89187,1.06142
272.65080,1.06937
272.40973,1.07494
272.16866,1.07530
271.92759,1.07221
271.68652,1.06943
271.44545,1.06932
271.20438,1.07141
270.96331,1.07290
270.72224,1.07216
270.48116,1.07167
270.24009,1.07516
269.99902,1.08186
269.75795,1.08696
269.51688,1.08893
269.27581,1.09100
269.03474,1.09513
268.79367,1.09992
268.55260,1.10351
268.31153,1.10474
268.07046,1.10240
267.82939,1.09695
267.58832,1.09228
267.34725,1.09260
267.10618,1.09859
266.86511,1.10808
266.62404,1.11816
266.38297,1.12568
266.14189,1.12768
265.90082,1.12422
265.65975,1.12045
265.41868,1.12156
265.17761,1.12740
264.93654,1.13441
264.69547,1.14074
264.45440,1.14727
264.21333,1.15472
263.97226,1.16176
263.73119,1.16644
263.49012,1.16953
263.24905,1.17614
263.00798,1.19097
262.76691,1.21187
262.52584,1.23159
262.28477,1.24605
262.04370,1.25699
261.80262,1.26772
261.56155,1.27985
261.32048,1.29112
261.07941,1.29583
260.83834,1.29234
260.59727,1.28727
260.35620,1.28940
260.11513,1.30301
259.87406,1.32597
259.63299,1.34994
259.39192,1.36456
259.15085,1.36716
258.90978,1.36749
258.66871,1.38008
258.42764,1.41282
258.18657,1.46168
257.94550,1.51235
257.70443,1.54886
257.46335,1.56941
257.22228,1.58501
256.98121,1.59891
256.74014,1.60741
256.49907,1.61739
256.25800,1.64085
256.01693,1.67889
255.77586,1.72167
255.53479,1.75439
255.29372,1.76750
255.05265,1.76122
254.81158,1.74926
254.57051,1.76160
254.32944,1.81681
254.08837,1.90807
253.84730,1.99945
253.60623,2.05372
253.36516,2.09528
253.12408,2.14904
252.88301,2.22546
252.64194,2.35062
252.40087,2.42135
252.15980,2.31765
251.91873,2.20341
251.67766,2.15872
251.43659,2.16778
251.19552,2.22210
250.95445,2.25283
250.71338,2.21959
250.47231,2.24649
250.23124,2.34103
249.99017,2.30453
249.74910,2.20084
249.50803,2.21156
249.26696,2.37525
249.02589,2.61671
248.78481,2.69971
248.54374,2.56216
248.30267,2.33665
248.06160,2.13709
247.82053,2.11306
247.57946,2.21792
247.33839,2.27983
247.09732,2.24446
246.85625,2.21986
246.61518,2.25973
246.37411,2.27412
246.13304,2.21086
245.89197,2.14062
245.65090,2.05105
245.40983,1.95908
245.16876,1.89504
244.92769,1.85728
244.68661,1.82896
244.44554,1.79855
244.20447,1.76027
243.96340,1.71669
243.72233,1.66777
243.48126,1.61491
243.24019,1.56350
242.99912,1.51479
242.75805,1.46642
242.51698,1.41952
242.27591,1.38035
242.03484,1.35230
241.79377,1.32986
241.55270,1.30327
241.31163,1.26779
241.07056,1.22685
240.82949,1.18678
240.58842,1.15199
240.34734,1.12335
240.10627,1.09929
239.86520,1.07910
239.62413,1.06338
239.38306,1.05023
239.14199,1.03476
238.90092,1.01397
238.65985,0.99018
238.41878,0.96831
238.17771,0.95161
237.93664,0.94104
237.69557,0.93584
237.45450,0.93262
237.21343,0.92662
236.97236,0.91596
236.73129,0.90243
236.49022,0.88753
236.24915,0.87178
236.00807,0.85768
235.76700,0.84871
235.52593,0.84464
235.28486,0.84165
235.04379,0.83762
234.80272,0.83380
234.56165,0.83051
234.32058,0.82484
234.07951,0.81447
233.83844,0.80189
233.59737,0.79304
233.35630,0.79155
233.11523,0.79543
232.87416,0.79955
232.63309,0.80074
232.39202,0.79975
232.15095,0.79831
231.90988,0.79655
231.66880,0.79405
231.42773,0.79111
231.18666,0.78731
230.94559,0.78148
230.70452,0.77418
230.46345,0.76776
230.22238,0.76408
229.98131,0.76342
229.74024,0.76447
229.49917,0.76424
229.25810,0.76019
229.01703,0.75340
228.77596,0.74742
228.53489,0.74433
228.29382,0.74389
228.05275,0.74475
227.81168,0.74482
227.57061,0.74264
227.32953,0.73953
227.08846,0.73836
226.84739,0.74030
226.60632,0.74361
226.36525,0.74502
226.12418,0.74169
225.88311,0.73344
225.64204,0.72382
225.40097,0.71812
225.15990,0.71906
224.91883,0.72476
224.67776,0.73116
224.43669,0.73562
224.19562,0.73752
223.95455,0.73753
223.71348,0.73769
223.47241,0.74003
223.23134,0.74427
222.99026,0.74809
222.74919,0.74972
222.50812,0.75009
222.26705,0.75218
222.02598,0.75779
221.78491,0.76527
221.54384,0.77120
221.30277,0.77438
221.06170,0.77633
220.82063,0.77877
220.57956,0.78268
220.33849,0.78846
220.09742,0.79569
219.85635,0.80348
219.61528,0.81117
219.37421,0.81805
219.13314,0.82336
218.89207,0.82793
218.65099,0.83430
218.40992,0.84369
218.16885,0.85461
217.92778,0.86508
217.68671,0.87456
217.44564,0.88335
217.20457,0.89185
216.96350,0.90017
216.72243,0.90734
216.48136,0.91238
216.24029,0.91636
215.99922,0.92199
215.75815,0.93157
215.51708,0.94499
215.27601,0.95876
215.03494,0.96855
214.79387,0.97405
214.55280,0.97880
214.31172,0.98424
214.07065,0.98792
213.82958,0.98946
213.58851,0.99375
213.34744,1.00432
213.10637,1.01718
212.86530,1.02559
212.62423,1.02884
212.38316,1.03101
212.14209,1.03412
211.90102,1.03736
211.65995,1.04025
211.41888,1.04263
211.17781,1.04390
210.93674,1.04433
210.69567,1.04394
210.45460,1.04167
210.21353,1.03864
209.97245,1.03877
209.73138,1.04309
209.49031,1.04773
209.24924,1.04883
209.00817,1.04612
208.76710,1.04156
208.52603,1.03629
208.28496,1.03041
208.04389,1.02492
207.80282,1.02029
207.56175,1.01446
207.32068,1.00532
207.07961,0.99464
206.83854,0.98605
206.59747,0.98016
206.35640,0.97461
206.11533,0.96802
205.87426,0.96076
205.63318,0.95274
205.39211,0.94402
205.15104,0.93632
204.90997,0.93072
204.66890,0.92545
204.42783,0.91826
204.18676,0.90930
203.94569,0.90010
203.70462,0.89158
203.46355,0.88343
203.22248,0.87443
202.98141,0.86359
202.74034,0.85166
202.49927,0.84088
202.25820,0.83235
202.01713,0.82457
201.77606,0.81558
201.53499,0.80498
201.29391,0.79384
201.05284,0.78374
200.81177,0.77581
200.57070,0.76971
200.32963,0.76289
200.08856,0.75216
199.84749,0.73733
199.60642,0.72242
199.36535,0.71164
199.12428,0.70490
198.88321,0.69852
198.64214,0.69009
198.40107,0.68106
198.16000,0.67405
197.91893,0.66942
197.67786,0.66533
197.43679,0.65993
197.19572,0.65225
196.95464,0.64251
196.71357,0.63269
196.47250,0.62554
196.23143,0.62185
195.99036,0.61918
195.74929,0.61441
195.50822,0.60732
195.26715,0.60042
195.02608,0.59554
194.78501,0.59217
194.54394,0.58854
194.30287,0.58312
194.06180,0.57563
193.82073,0.56785
193.57966,0.56222
193.33859,0.55936
193.09752,0.55793
192.85645,0.55648
192.61537,0.55439
192.37430,0.55135
192.13323,0.54720
191.89216,0.54233
191.65109,0.53782
191.41002,0.53486
191.16895,0.53373
190.92788,0.53342
190.68681,0.53235
190.44574,0.52953
190.20467,0.52514
189.96360,0.52047
189.72253,0.51690
189.48146,0.51454
189.24039,0.51238
188.99932,0.50960
188.75825,0.50607
188.51718,0.50230
188.27610,0.49942
188.03503,0.49843
187.79396,0.49930
187.55289,0.50107
187.31182,0.50257
187.07075,0.50270
186.82968,0.50120
186.58861,0.49930
186.34754,0.49852
186.10647,0.49897
185.86540,0.49997
185.62433,0.50151
185.38326,0.50356
185.14219,0.50487
184.90112,0.50409
184.66005,0.50192
184.41898,0.50044
184.17791,0.50074
183.93683,0.50210
183.69576,0.50326
183.45469,0.50367
183.21362,0.50351
182.97255,0.50291
182.73148,0.50190
182.49041,0.50114
182.24934,0.50160
182.00827,0.50337
181.76720,0.50561
181.52613,0.50738
181.28506,0.50815
181.04399,0.50831
180.80292,0.50920
180.56185,0.51166
180.32078,0.51489
180.07971,0.51807
179.83864,0.52187
179.59756,0.52682
179.35649,0.53164
179.11542,0.53474
178.87435,0.53642
178.63328,0.53863
178.39221,0.54313
178.15114,0.55031
177.91007,0.55952
177.66900,0.56974
177.42793,0.57989
177.18686,0.58936
176.94579,0.59855
176.70472,0.60835
176.46365,0.61938
176.22258,0.63232
175.98151,0.64743
175.74044,0.66295
175.49937,0.67619
175.25829,0.68709
175.01722,0.69818
174.77615,0.71074
174.53508,0.72419
174.29401,0.73847
174.05294,0.75381
173.81187,0.76896
173.57080,0.78259
173.32973,0.79444
173.08866,0.80364
172.84759,0.80860
172.60652,0.80970
172.36545,0.80931
172.12438,0.80921
171.88331,0.80958
171.64224,0.81052
171.40117,0.81350
171.16010,0.81947
170.91902,0.82589
170.67795,0.82770
170.43688,0.82211
170.19581,0.81140
169.95474,0.79994
169.71367,0.79040
169.47260,0.78358
169.23153,0.77944
168.99046,0.77728
168.74939,0.77612
168.50832,0.77478
168.26725,0.77148
168.02618,0.76506
167.78511,0.75762
167.54404,0.75381
167.30297,0.75613
167.06190,0.76254
166.82083,0.76943
166.57975,0.77519
166.33868,0.77978
166.09761,0.78332
165.85654,0.78642
165.61547,0.78975
165.37440,0.79275
165.13333,0.79471
164.89226,0.79698
164.65119,0.80209
164.41012,0.81114
164.16905,0.82254
163.92798,0.83268
163.68691,0.83818
163.44584,0.83897
163.20477,0.83883
162.96370,0.84196
162.72263,0.84988
162.48156,0.86071
162.24048,0.87049
161.99941,0.87625
161.75834,0.87847
161.51727,0.87877
161.27620,0.87659
161.03513,0.87135
160.79406,0.86559
160.55299,0.86234
160.31192,0.86105
160.07085,0.85891
159.82978,0.85464
159.58871,0.84903
159.34764,0.84332
159.10657,0.83822
158.86550,0.83361
158.62443,0.82892
158.38336,0.82433
158.14229,0.82084
157.90121,0.81839
157.66014,0.81514
157.41907,0.80997
157.17800,0.80482
156.93693,0.80215
156.69586,0.80090
156.45479,0.79806
156.21372,0.79376
155.97265,0.79101
155.73158,0.79068
155.49051,0.78990
155.24944,0.78549
155.00837,0.77738
154.76730,0.76778
154.52623,0.75811
154.28516,0.74779
154.04409,0.73578
153.80302,0.72246
153.56194,0.70967
153.32087,0.69902
153.07980,0.68976
152.83873,0.67931
152.59766,0.66658
152.35659,0.65321
152.11552,0.64081
151.87445,0.62906
151.63338,0.61734
151.39231,0.60606
151.15124,0.59547
150.91017,0.58514
150.66910,0.57524
150.42803,0.56644
150.18696,0.55812
149.94589,0.54894
149.70482,0.53908
149.46375,0.52988
149.22267,0.52169
148.98160,0.51394
148.74053,0.50676
148.49946,0.50082
148.25839,0.49613
148.01732,0.49226
147.77625,0.48912
147.53518,0.48652
147.29411,0.48376
147.05304,0.48064
146.81197,0.47815
146.57090,0.47759
146.32983,0.47931
146.08876,0.48257
145.84769,0.48634
145.60662,0.49020
145.36555,0.49453
145.12448,0.49937
144.88340,0.50380
144.64233,0.50714
144.40126,0.51007
144.16019,0.51351
143.91912,0.51709
143.67805,0.51920
143.43698,0.51806
143.19591,0.51279
142.95484,0.50435
142.71377,0.49530
142.47270,0.48798
142.23163,0.48289
141.99056,0.47870
141.74949,0.47357
141.50842,0.46661
141.26735,0.45872
141.02628,0.45194
140.78521,0.44748
140.54413,0.44480
140.30306,0.44309
140.06199,0.44277
139.82092,0.44427
139.57985,0.44608
139.33878,0.44631
139.09771,0.44604
138.85664,0.44864
138.61557,0.45522
138.37450,0.46292
138.13343,0.46881
137.89236,0.47384
137.65129,0.48126
137.41022,0.49194
137.16915,0.50368
136.92808,0.51485
136.68701,0.52641
136.44594,0.54009
136.20486,0.55628
135.96379,0.57440
135.72272,0.59397
135.48165,0.61456
135.24058,0.63560
134.99951,0.65714
134.75844,0.68009
134.51737,0.70472
134.27630,0.72894
134.03523,0.74984
133.79416,0.76716
133.55309,0.78409
133.31202,0.80484
133.07095,0.83114
132.82988,0.85918
132.58881,0.88116
132.34774,0.89327
132.10667,0.89976
131.86559,0.90596
131.62452,0.91213
131.38345,0.91538
131.14238,0.91378
130.90131,0.90730
130.66024,0.89705
130.41917,0.88453
130.17810,0.87029
129.93703,0.85350
129.69596,0.83399
129.45489,0.81347
129.21382,0.79334
128.97275,0.77199
128.73168,0.74666
128.49061,0.71798
128.24954,0.69042
128.00847,0.66742
127.76740,0.64816
127.52632,0.62954
127.28525,0.61006
127.04418,0.59036
126.80311,0.57094
126.56204,0.55143
126.32097,0.53221
126.07990,0.51491
125.83883,0.50059
125.59776,0.48836
125.35669,0.47651
125.11562,0.46422
124.87455,0.45150
124.63348,0.43893
124.39241,0.42799
124.15134,0.42017
123.91027,0.41507
123.66920,0.41058
123.42812,0.40517
123.18705,0.39863
122.94598,0.39129
122.70491,0.38407
122.46384,0.37852
122.22277,0.37560
121.98170,0.37505
121.74063,0.37592
121.49956,0.37688
121.25849,0.37710
121.01742,0.37734
120.77635,0.37983
120.53528,0.38655
120.29421,0.39758
120.05314,0.41074
119.81207,0.42339
119.57100,0.43505
119.32993,0.44728
119.08885,0.46110
118.84778,0.47655
118.60671,0.49453
118.36564,0.51647
118.12457,0.54146
117.88350,0.56577
117.64243,0.58638
117.40136,0.60330
117.16029,0.61736
116.91922,0.62787
116.67815,0.63454
116.43708,0.63872
116.19601,0.64034
115.95494,0.63670
115.71387,0.62718
115.47280,0.61636
115.23173,0.60924
114.99066,0.60501
114.74958,0.59817
114.50851,0.58520
114.26744,0.56800
114.02637,0.55167
113.78530,0.54007
113.54423,0.53419
113.30316,0.53301
113.06209,0.53433
112.82102,0.53596
112.57995,0.53747
112.33888,0.54034
112.09781,0.54586
111.85674,0.55288
111.61567,0.55805
111.37460,0.55871
111.13353,0.55609
110.89246,0.55420
110.65139,0.55539
110.41031,0.55785
110.16924,0.55816
109.92817,0.55449
109.68710,0.54642
109.44603,0.53373
109.20496,0.51701
108.96389,0.49856
108.72282,0.48173
108.48175,0.46890
108.24068,0.45952
107.99961,0.44997
107.75854,0.43675
107.51747,0.42022
107.27640,0.40413
107.03533,0.39151
106.79426,0.38198
106.55319,0.37304
106.31212,0.36324
106.07104,0.35280
105.82997,0.34236
105.58890,0.33301
105.34783,0.32641
105.10676,0.32282
104.86569,0.31985
104.62462,0.31497
104.38355,0.30800
104.14248,0.30000
103.90141,0.29144
103.66034,0.28273
103.41927,0.27500
103.17820,0.26899
102.93713,0.26429
102.69606,0.26021
102.45499,0.25646
102.21392,0.25268
101.97285,0.24825
101.73177,0.24312
101.49070,0.23802
101.24963,0.23348
101.00856,0.22901
100.76749,0.22372
100.52642,0.21790
100.28535,0.21328
100.04428,0.21115
99.80321,0.21111
99.56214,0.21202
99.32107,0.21305
99.08000,0.21307
98.83893,0.21076
98.59786,0.20669
98.35679,0.20360
98.11572,0.20350
97.87465,0.20576
97.63358,0.20818
97.39250,0.20938
97.15143,0.20984
96.91036,0.21090
96.66929,0.21284
96.42822,0.21449
96.18715,0.21523
95.94608,0.21644
95.70501,0.22010
95.46394,0.22647
95.22287,0.23383
94.98180,0.24017
94.74073,0.24478
94.49966,0.24829
94.25859,0.25105
94.01752,0.25236
93.77645,0.25173
93.53538,0.25018
93.29431,0.24936
93.05323,0.24945
92.81216,0.24941
92.57109,0.24907
92.33002,0.24975
92.08895,0.25251
91.84788,0.25667
91.60681,0.26082
91.36574,0.26506
91.12467,0.27150
90.88360,0.28236
90.64253,0.29842
90.40146,0.31932
90.16039,0.34446
89.91932,0.37321
89.67825,0.40483
89.43718,0.43855
89.19611,0.47337
88.95504,0.50726
88.71396,0.53661
88.47289,0.55673
88.23182,0.56360
87.99075,0.55641
87.74968,0.53848
87.50861,0.51451
87.26754,0.48715
87.02647,0.45728
86.78540,0.42639
86.54433,0.39720
86.30326,0.37180
86.06219,0.35002
85.82112,0.32994
85.58005,0.30988
85.33898,0.29006
85.09791,0.27219
84.85684,0.25745
84.61577,0.24526
84.37469,0.23404
84.13362,0.22294
83.89255,0.21248
83.65148,0.20370
83.41041,0.19665
83.16934,0.19023
82.92827,0.18360
82.68720,0.17715
82.44613,0.17155
82.20506,0.16679
81.96399,0.16253
81.72292,0.15844
81.48185,0.15404
81.24078,0.14916
80.99971,0.14454
80.75864,0.14122
80.51757,0.13916
80.27650,0.13729
80.03542,0.13500
79.79435,0.13287
79.55328,0.13160
79.31221,0.13069
79.07114,0.12907
78.83007,0.12680
78.58900,0.12508
78.34793,0.12447
78.10686,0.12397
77.86579,0.12227
77.62472,0.11937
77.38365,0.11643
77.14258,0.11443
76.90151,0.11342
76.66044,0.11283
76.41937,0.11215
76.17830,0.11109
75.93723,0.10931
75.69615,0.10671
75.45508,0.10415
75.21401,0.10291
74.97294,0.10323
74.73187,0.10416
74.49080,0.10489
74.24973,0.10547
74.00866,0.10614
73.76759,0.10687
73.52652,0.10740
73.28545,0.10714
73.04438,0.10567
72.80331,0.10342
72.56224,0.10111
72.32117,0.09862
72.08010,0.09610
71.83903,0.09508
71.59796,0.09655
71.35688,0.09921
71.11581,0.10138
70.87474,0.10332
70.63367,0.10637
70.39260,0.11114
70.15153,0.11752
69.91046,0.12526
69.66939,0.13395
69.42832,0.14298
69.18725,0.15108
68.94618,0.15568
68.70511,0.15400
68.46404,0.14591
68.22297,0.13463
67.98190,0.12398
67.74083,0.11587
67.49976,0.11077
67.25869,0.10859
67.01761,0.10809
66.77654,0.10676
66.53547,0.10292
66.29440,0.09711
66.05333,0.09117
65.81226,0.08637
65.57119,0.08282
65.33012,0.08037
65.08905,0.08000
64.84798,0.08343
64.60691,0.09078
64.36584,0.09980
64.12477,0.10778
63.88370,0.11291
63.64263,0.11375
63.40156,0.10992
63.16049,0.10344
62.91942,0.09788
62.67834,0.09577
62.43727,0.09680
62.19620,0.09832
61.95513,0.09760
61.71406,0.09348
61.47299,0.08653
61.23192,0.07838
60.99085,0.07098
60.74978,0.06559
60.50871,0.06221
60.26764,0.06022
60.02657,0.05958
59.78550,0.06071
59.54443,0.06303
59.30336,0.06487
59.06229,0.06503
58.82122,0.06349
58.58015,0.06054
58.33907,0.05656
58.09800,0.05279
57.85693,0.05062
57.61586,0.05024
57.37479,0.05098
57.13372,0.05248
56.89265,0.05381
56.65158,0.05327
56.41051,0.05043
56.16944,0.04701
55.92837,0.04465
55.68730,0.04331
55.44623,0.04265
55.20516,0.04332
54.96409,0.04571
54.72302,0.04859
54.48195,0.05031
54.24088,0.05072
53.99980,0.05106
53.75873,0.05247
53.51766,0.05496
53.27659,0.05741
53.03552,0.05918
52.79445,0.06145
52.55338,0.06540
52.31231,0.06939
52.07124,0.07018
51.83017,0.06695
51.58910,0.06218
51.34803,0.05910
51.10696,0.05921
50.86589,0.06125
50.62482,0.06220
50.38375,0.06037
50.14268,0.05721
49.90161,0.05511
49.66053,0.05466
49.41946,0.05476
49.17839,0.05374
48.93732,0.05154
48.69625,0.05060
48.45518,0.05139
48.21411,0.04865
47.97304,0.03740
47.73197,0.02197
47.49090,0.01227
47.24983,0.01108
47.00876,0.01282
46.76769,0.01311
46.52662,0.01270
46.28555,0.01333
46.04448,0.01552
45.80341,0.01843
45.56234,0.01919
45.32126,0.01548
45.08019,0.00885
44.83912,0.00326
44.59805,0.00084
44.35698,0.00112
44.11591,0.00347
43.87484,0.00664
43.63377,0.00846
43.39270,0.00790
43.15163,0.00529
42.91056,0.00057
42.66949,-0.00646
42.42842,-0.01369
42.18735,-0.01804
41.94628,-0.01987
41.70521,-0.02218
41.46414,-0.02512
41.22307,-0.02518
40.98199,-0.01979
40.74092,-0.00935
40.49985,0.00384
40.25878,0.01553
40.01771,0.02046
39.77664,0.01757
39.53557,0.01294
39.29450,0.01345
39.05343,0.02002
38.81236,0.02867
38.57129,0.03680
38.33022,0.04597
38.08915,0.05467
37.84808,0.05339
37.60701,0.03636
37.36594,0.01172
37.12487,-0.00875
36.88380,-0.02132
36.64272,-0.02465
36.40165,-0.01634
36.16058,-0.00208
35.91951,0.00541
35.67844,0.00309
35.43737,0.00156
35.19630,0.00880
34.95523,0.01913
34.71416,0.02233
34.47309,0.01498
34.23202,-0.00417
33.99095,-0.03775
33.74988,-0.07399
33.50881,-0.08407
33.26774,-0.05257
33.02667,0.00965
32.78560,0.07820
32.54453,0.12450
32.30345,0.13332
32.06238,0.11507
31.82131,0.08802
31.58024,0.06331
31.33917,0.04495
31.09810,0.03563
30.85703,0.03655
30.61596,0.03606
30.37489,0.02373
30.13382,0.00931
29.89275,0.01164
29.65168,0.03968
29.41061,0.08060
29.16954,0.10772
28.92847,0.10613
28.68740,0.08542
28.44633,0.07548
28.20526,0.08716
27.96418,0.08005
27.72311,0.01841
27.48204,-0.06115
27.24097,-0.07762
26.99990,-0.01605
26.75883,0.06590
26.51776,0.12473
26.27669,0.14636
26.03562,0.13626
25.79455,0.11703
25.55348,0.11107
25.31241,0.12966
25.07134,0.16134
24.83027,0.16893
24.58920,0.13464
24.34813,0.08654
24.10706,0.06977
23.86599,0.10762
23.62491,0.18139
23.38384,0.24671
23.14277,0.27765
22.90170,0.29012
22.66063,0.31981
22.41956,0.36897
22.17849,0.38929
21.93742,0.34883
21.69635,0.28788
21.45528,0.28517
21.21421,0.37417
20.97314,0.47452
20.73207,0.49526
20.49100,0.45635
20.24993,0.40849
20.00886,0.40143
19.76779,0.46216
19.52672,0.52461
19.28564,0.57431
19.04457,0.63297
18.80350,0.68306
18.56243,0.69212
18.32136,0.74496
18.08029,0.87030
17.83922,0.89735
17.59815,0.74782
17.35708,0.61313
17.11601,0.58313
16.87494,0.66448
16.63387,0.76726
16.39280,0.80307
16.15173,0.86996
15.91066,0.94733
15.66959,0.94472
15.42852,0.78914
15.18745,0.72764
14.94637,0.84813
14.70530,1.15351
14.46423,1.25217
14.22316,0.86628
13.98209,0.75497
13.74102,0.68321
13.49995,0.65205
13.25888,0.75783
13.01781,0.85825
12.77674,0.92811
12.53567,0.95926
12.29460,0.96331
12.05353,1.03258
11.81246,1.11543
11.57139,1.13411
11.33032,1.01691
11.08925,0.73540
10.84818,0.62216
10.60710,0.78159
10.36603,0.91016
10.12496,0.90851
9.88389,1.02125
9.64282,1.29100
9.40175,1.40997
9.16068,1.28157
8.91961,1.08162
8.67854,1.21604
8.43747,1.30768
8.19640,1.19216
7.95533,1.29491
7.71426,1.71200
7.47319,2.07721
7.23212,1.77184
6.99105,1.29995
6.74998,1.01491
6.50891,0.99445
6.26783,1.12788
6.02676,1.26077
5.78569,1.35190
5.54462,1.43408
5.30355,1.41378
5.06248,1.14832
4.82141,1.18558
4.58034,1.46200
4.33927,1.62059
4.09820,1.48871
3.85713,1.18694
3.61606,0.96992
3.37499,0.99898
3.13392,1.13094
2.89285,1.18949
2.65178,1.13531
2.41071,0.94578
2.16964,0.75918
1.92856,0.70528
1.68749,0.75825
1.44642,0.85702
1.20535,0.87504
0.96428,0.80535
0.72321,0.71083
0.48214,0.67337
0.24107,0.69454
-0.00000,0.73138
