399.69498,1.60643
399.45391,1.59441
399.21284,1.59860
398.97177,1.60935
398.73070,1.61104
398.48963,1.60133
398.24856,1.58648
398.00749,1.57049
397.76642,1.55708
397.52535,1.55359
397.28428,1.56403
397.04321,1.57934
396.80214,1.58394
396.56107,1.57335
396.32000,1.55881
396.07892,1.55277
395.83785,1.55799
395.59678,1.56730
395.35571,1.56964
395.11464,1.56425
394.87357,1.56446
394.63250,1.58158
394.39143,1.60865
394.15036,1.62295
393.90929,1.61233
393.66822,1.59014
393.42715,1.57519
393.18608,1.56798
392.94501,1.55355
392.70394,1.52831
392.46287,1.50659
392.22180,1.50320
391.98073,1.51638
391.73965,1.52912
391.49858,1.52758
391.25751,1.51446
391.01644,1.50491
390.77537,1.51136
390.53430,1.53121
390.29323,1.54728
390.05216,1.54721
389.81109,1.54203
389.57002,1.54962
389.32895,1.56791
389.08788,1.57777
388.84681,1.56954
388.60574,1.55221
388.36467,1.53334
388.12360,1.51070
387.88253,1.48415
387.64146,1.46412
387.40038,1.46284
387.15931,1.47944
386.91824,1.49847
386.67717,1.50701
386.43610,1.50502
386.19503,1.49377
385.95396,1.47278
385.71289,1.44951
385.47182,1.43496
385.23075,1.42709
384.98968,1.41720
384.74861,1.40553
384.50754,1.39861
384.26647,1.39678
384.02540,1.38937
383.78433,1.37000
383.54326,1.34817
383.30219,1.33970
383.06111,1.35431
382.82004,1.38734
382.57897,1.41964
382.33790,1.43012
382.09683,1.41426
381.85576,1.38736
381.61469,1.36666
381.37362,1.35477
381.13255,1.34066
380.89148,1.32048
380.65041,1.30360
380.40934,1.29493
380.16827,1.29463
379.92720,1.30384
379.68613,1.31521
379.44506,1.31626
379.20399,1.30738
378.96292,1.29976
378.72184,1.29811
378.48077,1.30011
378.23970,1.30934
377.99863,1.33029
377.75756,1.35507
377.51649,1.37151
377.27542,1.37864
377.03435,1.38435
376.79328,1.39040
376.55221,1.39167
376.31114,1.38663
376.07007,1.38097
375.82900,1.38666
375.58793,1.40663
375.34686,1.42701
375.10579,1.43625
374.86472,1.44042
374.62365,1.45597
374.38257,1.48787
374.14150,1.51698
373.90043,1.52278
373.65936,1.50811
373.41829,1.48479
373.17722,1.45868
372.93615,1.43799
372.69508,1.42935
372.45401,1.42925
372.21294,1.43057
371.97187,1.43067
371.73080,1.43504
371.48973,1.44912
371.24866,1.46453
371.00759,1.46733
370.76652,1.45747
370.52545,1.44668
370.28437,1.44541
370.04330,1.45421
369.80223,1.46315
369.56116,1.46246
369.32009,1.45350
369.07902,1.44530
368.83795,1.44354
368.59688,1.44727
368.35581,1.44974
368.11474,1.44199
367.87367,1.42375
367.63260,1.40485
367.39153,1.39536
367.15046,1.39699
366.90939,1.40200
366.66832,1.40188
366.42725,1.39639
366.18618,1.39169
365.94510,1.39245
365.70403,1.39893
365.46296,1.40742
365.22189,1.41084
364.98082,1.40195
364.73975,1.38069
364.49868,1.35615
364.25761,1.33738
364.01654,1.32859
363.77547,1.33098
363.53440,1.34046
363.29333,1.34793
363.05226,1.34916
362.81119,1.34638
362.57012,1.33785
362.32905,1.32189
362.08798,1.30822
361.84691,1.30843
361.60583,1.32054
361.36476,1.33239
361.12369,1.33543
360.88262,1.33061
360.64155,1.32455
360.40048,1.32333
360.15941,1.32576
359.91834,1.32249
359.67727,1.30849
359.43620,1.29325
359.19513,1.29015
358.95406,1.30083
358.71299,1.31367
358.47192,1.31666
358.23085,1.31066
357.98978,1.30470
357.74871,1.30400
357.50764,1.30782
357.26656,1.31443
357.02549,1.32203
356.78442,1.32541
356.54335,1.32108
356.30228,1.31233
356.06121,1.30382
355.82014,1.29716
355.57907,1.29346
355.33800,1.29474
355.09693,1.30016
354.85586,1.30575
354.61479,1.30903
354.37372,1.31105
354.13265,1.31452
353.89158,1.31974
353.65051,1.32366
353.40944,1.32383
353.16837,1.32086
352.92729,1.31621
352.68622,1.31093
352.44515,1.30619
352.20408,1.30310
351.96301,1.30431
351.72194,1.31294
351.48087,1.32605
351.23980,1.33323
350.99873,1.32802
350.75766,1.31600
350.51659,1.30677
350.27552,1.30493
350.03445,1.31037
349.79338,1.31974
349.55231,1.32621
349.31124,1.32321
349.07017,1.31170
348.82910,1.30129
348.58802,1.29904
348.34695,1.30235
348.10588,1.30459
347.86481,1.30389
347.62374,1.30374
347.38267,1.30790
347.14160,1.31836
346.90053,1.33432
346.65946,1.35014
346.41839,1.35806
346.17732,1.35495
345.93625,1.34452
345.69518,1.33412
345.45411,1.33110
345.21304,1.33622
344.97197,1.34085
344.73090,1.33973
344.48983,1.33976
344.24875,1.34878
344.00768,1.36543
343.76661,1.38205
343.52554,1.39141
343.28447,1.39139
343.04340,1.38553
342.80233,1.38041
342.56126,1.38105
342.32019,1.38552
342.07912,1.38718
341.83805,1.38516
341.59698,1.38533
341.35591,1.38834
341.11484,1.39025
340.87377,1.39350
340.63270,1.40209
340.39163,1.41199
340.15056,1.41644
339.90948,1.41656
339.66841,1.41786
339.42734,1.42247
339.18627,1.43310
338.94520,1.45422
338.70413,1.47992
338.46306,1.49523
338.22199,1.49196
337.98092,1.47651
337.73985,1.46101
337.49878,1.45091
337.25771,1.44655
337.01664,1.44778
336.77557,1.45333
336.53450,1.45877
336.29343,1.45858
336.05236,1.45006
335.81129,1.43419
335.57021,1.41588
335.32914,1.40185
335.08807,1.39642
334.84700,1.40130
334.60593,1.41488
334.36486,1.42974
334.12379,1.43528
333.88272,1.42834
333.64165,1.41639
333.40058,1.40435
333.15951,1.39255
332.91844,1.38331
332.67737,1.37650
332.43630,1.36978
332.19523,1.36353
331.95416,1.35574
331.71309,1.34408
331.47202,1.33645
331.23094,1.34447
330.98987,1.36578
330.74880,1.38305
330.50773,1.38462
330.26666,1.37736
330.02559,1.37446
329.78452,1.37484
329.54345,1.36177
329.30238,1.33185
329.06131,1.30905
328.82024,1.31456
328.57917,1.34177
328.33810,1.36120
328.09703,1.35125
327.85596,1.32579
327.61489,1.31282
327.37382,1.31860
327.13275,1.32774
326.89167,1.33062
326.65060,1.33634
326.40953,1.35238
326.16846,1.36924
325.92739,1.37411
325.68632,1.36387
325.44525,1.33949
325.20418,1.30976
324.96311,1.29366
324.72204,1.30473
324.48097,1.33699
324.23990,1.36790
323.99883,1.38107
323.75776,1.38060
323.51669,1.37827
323.27562,1.37821
323.03455,1.37583
322.79348,1.36890
322.55240,1.36389
322.31133,1.37013
322.07026,1.39097
321.82919,1.41781
321.58812,1.43064
321.34705,1.41371
321.10598,1.37445
320.86491,1.33775
320.62384,1.32372
320.38277,1.33494
320.14170,1.35699
319.90063,1.37175
319.65956,1.37398
319.41849,1.36892
319.17742,1.35637
318.93635,1.33276
318.69528,1.30790
318.45421,1.30041
318.21313,1.31887
317.97206,1.35271
317.73099,1.37845
317.48992,1.37864
317.24885,1.35824
317.00778,1.33760
316.76671,1.33138
316.52564,1.33794
316.28457,1.34555
316.04350,1.34924
315.80243,1.35786
315.56136,1.37761
315.32029,1.39764
315.07922,1.40300
314.83815,1.39439
314.59708,1.38282
314.35601,1.37552
314.11494,1.37484
313.87386,1.38195
313.63279,1.39686
313.39172,1.41338
313.15065,1.42042
312.90958,1.41652
312.66851,1.41478
312.42744,1.42461
312.18637,1.43917
311.94530,1.44648
311.70423,1.44375
311.46316,1.43149
311.22209,1.40632
310.98102,1.37627
310.73995,1.36191
310.49888,1.37724
310.25781,1.41297
310.01674,1.44072
309.77567,1.44883
309.53459,1.45132
309.29352,1.45578
309.05245,1.45470
308.81138,1.44541
308.57031,1.44040
308.32924,1.44953
308.08817,1.46345
307.84710,1.46490
307.60603,1.45015
307.36496,1.42778
307.12389,1.40609
306.88282,1.39077
306.64175,1.38780
306.40068,1.40002
306.15961,1.41985
305.91854,1.43104
305.67747,1.42525
305.43640,1.41225
305.19532,1.40641
304.95425,1.40794
304.71318,1.40806
304.47211,1.40342
304.23104,1.39549
303.98997,1.38591
303.74890,1.37962
303.50783,1.37972
303.26676,1.37890
303.02569,1.36807
302.78462,1.35141
302.54355,1.33985
302.30248,1.33685
302.06141,1.33938
301.82034,1.34337
301.57927,1.34643
301.33820,1.34940
301.09713,1.35275
300.85605,1.35503
300.61498,1.35447
300.37391,1.34951
300.13284,1.34029
299.89177,1.32634
299.65070,1.30898
299.40963,1.29628
299.16856,1.29408
298.92749,1.30023
298.68642,1.31038
298.44535,1.31870
298.20428,1.31860
297.96321,1.31043
297.72214,1.30007
297.48107,1.28972
297.24000,1.28050
296.99893,1.27727
296.75786,1.28116
296.51678,1.28376
296.27571,1.27666
296.03464,1.26288
295.79357,1.25058
295.55250,1.24369
295.31143,1.24379
295.07036,1.25086
294.82929,1.25952
294.58822,1.26215
294.34715,1.25986
294.10608,1.26100
293.86501,1.26515
293.62394,1.26156
293.38287,1.24762
293.14180,1.23449
292.90073,1.23154
292.65966,1.23615
292.41859,1.24012
292.17751,1.24004
291.93644,1.23796
291.69537,1.23600
291.45430,1.23384
291.21323,1.22954
290.97216,1.22179
290.73109,1.21271
290.49002,1.20733
290.24895,1.20857
290.00788,1.21348
289.76681,1.21639
289.52574,1.21592
289.28467,1.21638
289.04360,1.22136
288.80253,1.22753
288.56146,1.22629
288.32039,1.21314
288.07932,1.19359
287.83824,1.17757
287.59717,1.17101
287.35610,1.17370
287.11503,1.18095
286.87396,1.18585
286.63289,1.18339
286.39182,1.17474
286.15075,1.16648
285.90968,1.16420
285.66861,1.16722
285.42754,1.17012
285.18647,1.16880
284.94540,1.16449
284.70433,1.16173
284.46326,1.16312
284.22219,1.16743
283.98112,1.17319
283.74005,1.18012
283.49897,1.18589
283.25790,1.18773
283.01683,1.18619
282.77576,1.18267
282.53469,1.17690
282.29362,1.16971
282.05255,1.16438
281.81148,1.16333
281.57041,1.16619
281.32934,1.17129
281.08827,1.17645
280.84720,1.17916
280.60613,1.17789
280.36506,1.17299
280.12399,1.16696
279.88292,1.16321
279.64185,1.16236
279.40078,1.16139
279.15970,1.15891
278.91863,1.15811
278.67756,1.16239
278.43649,1.17073
278.19542,1.17794
277.95435,1.17898
277.71328,1.17355
277.47221,1.16575
277.23114,1.16033
276.99007,1.16096
276.74900,1.16879
276.50793,1.18001
276.26686,1.18703
276.02579,1.18514
275.78472,1.17618
275.54365,1.16662
275.30258,1.16330
275.06151,1.16871
274.82043,1.17829
274.57936,1.18353
274.33829,1.17932
274.09722,1.16855
273.85615,1.15925
273.61508,1.15760
273.37401,1.16326
273.13294,1.17076
272.89187,1.17465
272.65080,1.17355
272.40973,1.17001
272.16866,1.16799
271.92759,1.17034
271.68652,1.17757
271.44545,1.18748
271.20438,1.19555
270.96331,1.19828
270.72224,1.19771
270.48116,1.19949
270.24009,1.20499
269.99902,1.20882
269.75795,1.20658
269.51688,1.20310
269.27581,1.20776
269.03474,1.22102
268.79367,1.23220
268.55260,1.23344
268.31153,1.22938
268.07046,1.22875
267.82939,1.23407
267.58832,1.24243
267.34725,1.25051
267.10618,1.25693
266.86511,1.26120
266.62404,1.26201
266.38297,1.25914
266.14189,1.25660
265.90082,1.26031
265.65975,1.27210
265.41868,1.28723
265.17761,1.29900
264.93654,1.30709
264.69547,1.31770
264.45440,1.33426
264.21333,1.35134
263.97226,1.36074
263.73119,1.36109
263.49012,1.35751
263.24905,1.35669
263.00798,1.36471
262.76691,1.38394
262.52584,1.41031
262.28477,1.43699
262.04370,1.46146
261.80262,1.48563
261.56155,1.50846
261.32048,1.52372
261.07941,1.52958
260.83834,1.53613
260.59727,1.55445
260.35620,1.58116
260.11513,1.60139
259.87406,1.60867
259.63299,1.61559
259.39192,1.64148
259.15085,1.69436
258.90978,1.76217
258.66871,1.81645
258.42764,1.83754
258.18657,1.84274
257.94550,1.85570
257.70443,1.87548
257.46335,1.89866
257.22228,1.91806
256.98121,1.90673
256.74014,1.86701
256.49907,1.83329
256.25800,1.82310
256.01693,1.83122
255.77586,1.84185
255.53479,1.84523
255.29372,1.84262
255.05265,1.83138
254.81158,1.80427
254.57051,1.76948
254.32944,1.74036
254.08837,1.71413
253.84730,1.68627
253.60623,1.66837
253.36516,1.66992
253.12408,1.68606
252.88301,1.70298
252.64194,1.70615
252.40087,1.69649
252.15980,1.69128
251.91873,1.70372
251.67766,1.72581
251.43659,1.73045
251.19552,1.70664
250.95445,1.67503
250.71338,1.65234
250.47231,1.63753
250.23124,1.62193
249.99017,1.60458
249.74910,1.59627
249.50803,1.60484
249.26696,1.62238
249.02589,1.63121
248.78481,1.62594
248.54374,1.61730
248.30267,1.61446
248.06160,1.61545
247.82053,1.61619
247.57946,1.61809
247.33839,1.62000
247.09732,1.61665
246.85625,1.61259
246.61518,1.61968
246.37411,1.63725
246.13304,1.65296
245.89197,1.66198
245.65090,1.67089
245.40983,1.68629
245.16876,1.70834
244.92769,1.73542
244.68661,1.76579
244.44554,1.79696
244.20447,1.82793
243.96340,1.86378
243.72233,1.91367
243.48126,1.97890
243.24019,2.03820
242.99912,2.05285
242.75805,2.02141
242.51698,1.96805
242.27591,1.90053
242.03484,1.81721
241.79377,1.71850
241.55270,1.62288
241.31163,1.54887
241.07056,1.49557
240.82949,1.45201
240.58842,1.41237
240.34734,1.37562
240.10627,1.33818
239.86520,1.29637
239.62413,1.25409
239.38306,1.21993
239.14199,1.19670
238.90092,1.18012
238.65985,1.16620
238.41878,1.15383
238.17771,1.14059
237.93664,1.12271
237.69557,1.10018
237.45450,1.07757
237.21343,1.05880
236.97236,1.04362
236.73129,1.02968
236.49022,1.01631
236.24915,1.00494
236.00807,0.99704
235.76700,0.99340
235.52593,0.99412
235.28486,0.99679
235.04379,0.99721
234.80272,0.99357
234.56165,0.98672
234.32058,0.97644
234.07951,0.96225
233.83844,0.94709
233.59737,0.93546
233.35630,0.92876
233.11523,0.92502
232.87416,0.92207
232.63309,0.91919
232.39202,0.91618
232.15095,0.91329
231.90988,0.91192
231.66880,0.91294
231.42773,0.91421
231.18666,0.91245
230.94559,0.90778
230.70452,0.90284
230.46345,0.89841
230.22238,0.89361
229.98131,0.88840
229.74024,0.88369
229.49917,0.88073
229.25810,0.88051
229.01703,0.88222
228.77596,0.88293
228.53489,0.88083
228.29382,0.87780
228.05275,0.87645
227.81168,0.87579
227.57061,0.87270
227.32953,0.86711
227.08846,0.86200
226.84739,0.85864
226.60632,0.85575
226.36525,0.85329
226.12418,0.85254
225.88311,0.85264
225.64204,0.85158
225.40097,0.85007
225.15990,0.85020
224.91883,0.85117
224.67776,0.85065
224.43669,0.84847
224.19562,0.84596
223.95455,0.84428
223.71348,0.84490
223.47241,0.84886
223.23134,0.85527
222.99026,0.86212
222.74919,0.86752
222.50812,0.86983
222.26705,0.86910
222.02598,0.86826
221.78491,0.87030
221.54384,0.87594
221.30277,0.88518
221.06170,0.89759
220.82063,0.90999
220.57956,0.91832
220.33849,0.92214
220.09742,0.92402
219.85635,0.92606
219.61528,0.92947
219.37421,0.93460
219.13314,0.94056
218.89207,0.94688
218.65099,0.95545
218.40992,0.96909
218.16885,0.98713
217.92778,1.00349
217.68671,1.01282
217.44564,1.01782
217.20457,1.02511
216.96350,1.03655
216.72243,1.05016
216.48136,1.06502
216.24029,1.08089
215.99922,1.09632
215.75815,1.10891
215.51708,1.11624
215.27601,1.11905
215.03494,1.12349
214.79387,1.13559
214.55280,1.15531
214.31172,1.17839
214.07065,1.19972
213.82958,1.21316
213.58851,1.21601
213.34744,1.21367
213.10637,1.21237
212.86530,1.21174
212.62423,1.20988
212.38316,1.21187
212.14209,1.22657
211.90102,1.25497
211.65995,1.28489
211.41888,1.29857
211.17781,1.28496
210.93674,1.25109
210.69567,1.21995
210.45460,1.20999
210.21353,1.22164
209.97245,1.24057
209.73138,1.25118
209.49031,1.24768
209.24924,1.23412
209.00817,1.21895
208.76710,1.20876
208.52603,1.20494
208.28496,1.20680
208.04389,1.21445
207.80282,1.22527
207.56175,1.23154
207.32068,1.22607
207.07961,1.20946
206.83854,1.18991
206.59747,1.17563
206.35640,1.16874
206.11533,1.16563
205.87426,1.16057
205.63318,1.14901
205.39211,1.13053
205.15104,1.10960
204.90997,1.09187
204.66890,1.08039
204.42783,1.07448
204.18676,1.06965
203.94569,1.05972
203.70462,1.04193
203.46355,1.02068
203.22248,1.00456
202.98141,0.99872
202.74034,0.99913
202.49927,0.99402
202.25820,0.97615
202.01713,0.95288
201.77606,0.93533
201.53499,0.92574
201.29391,0.91908
201.05284,0.90912
200.81177,0.89308
200.57070,0.87437
200.32963,0.85943
200.08856,0.85045
199.84749,0.84357
199.60642,0.83527
199.36535,0.82709
199.12428,0.82093
198.88321,0.81436
198.64214,0.80428
198.40107,0.79167
198.16000,0.77998
197.91893,0.77095
197.67786,0.76334
197.43679,0.75576
197.19572,0.74909
196.95464,0.74389
196.71357,0.73759
196.47250,0.72705
196.23143,0.71324
195.99036,0.70121
195.74929,0.69496
195.50822,0.69375
195.26715,0.69269
195.02608,0.68738
194.78501,0.67848
194.54394,0.67014
194.30287,0.66454
194.06180,0.66024
193.82073,0.65494
193.57966,0.64902
193.33859,0.64543
193.09752,0.64513
192.85645,0.64425
192.61537,0.63865
192.37430,0.63030
192.13323,0.62484
191.89216,0.62372
191.65109,0.62301
191.41002,0.61961
191.16895,0.61486
190.92788,0.61127
190.68681,0.60928
190.44574,0.60814
190.20467,0.60718
189.96360,0.60509
189.72253,0.60066
189.48146,0.59553
189.24039,0.59326
188.99932,0.59483
188.75825,0.59715
188.51718,0.59625
188.27610,0.59181
188.03503,0.58754
187.79396,0.58651
187.55289,0.58743
187.31182,0.58693
187.07075,0.58471
186.82968,0.58319
186.58861,0.58307
186.34754,0.58319
186.10647,0.58342
185.86540,0.58342
185.62433,0.58106
185.38326,0.57625
185.14219,0.57296
184.90112,0.57382
184.66005,0.57633
184.41898,0.57714
184.17791,0.57663
183.93683,0.57657
183.69576,0.57699
183.45469,0.57754
183.21362,0.57903
182.97255,0.58202
182.73148,0.58552
182.49041,0.58863
182.24934,0.59150
182.00827,0.59389
181.76720,0.59473
181.52613,0.59421
181.28506,0.59393
181.04399,0.59428
180.80292,0.59452
180.56185,0.59545
180.32078,0.59858
180.07971,0.60285
179.83864,0.60587
179.59756,0.60796
179.35649,0.61140
179.11542,0.61678
178.87435,0.62337
178.63328,0.63109
178.39221,0.63978
178.15114,0.64887
177.91007,0.65835
177.66900,0.66783
177.42793,0.67603
177.18686,0.68318
176.94579,0.69156
176.70472,0.70281
176.46365,0.71680
176.22258,0.73267
175.98151,0.74873
175.74044,0.76384
175.49937,0.77982
175.25829,0.79932
175.01722,0.82178
174.77615,0.84436
174.53508,0.86477
174.29401,0.88128
174.05294,0.89322
173.81187,0.90237
173.57080,0.91113
173.32973,0.91979
173.08866,0.92774
172.84759,0.93576
172.60652,0.94514
172.36545,0.95483
172.12438,0.96147
171.88331,0.96312
171.64224,0.96036
171.40117,0.95420
171.16010,0.94616
170.91902,0.93888
170.67795,0.93413
170.43688,0.93180
170.19581,0.93080
169.95474,0.92957
169.71367,0.92708
169.47260,0.92386
169.23153,0.92053
168.99046,0.91688
168.74939,0.91326
168.50832,0.91042
168.26725,0.90780
168.02618,0.90477
167.78511,0.90232
167.54404,0.90097
167.30297,0.89992
167.06190,0.89991
166.82083,0.90314
166.57975,0.90882
166.33868,0.91231
166.09761,0.91043
165.85654,0.90592
165.61547,0.90429
165.37440,0.90787
165.13333,0.91495
164.89226,0.92377
164.65119,0.93424
164.41012,0.94570
164.16905,0.95587
163.92798,0.96220
163.68691,0.96371
163.44584,0.96247
163.20477,0.96271
162.96370,0.96740
162.72263,0.97644
162.48156,0.98793
162.24048,0.99946
161.99941,1.00981
161.75834,1.02002
161.51727,1.02996
161.27620,1.03429
161.03513,1.02780
160.79406,1.01412
160.55299,1.00258
160.31192,0.99783
160.07085,0.99775
159.82978,0.99951
159.58871,1.00231
159.34764,1.00391
159.10657,1.00022
158.86550,0.99021
158.62443,0.97872
158.38336,0.97254
158.14229,0.97416
157.90121,0.97897
157.66014,0.97831
157.41907,0.96706
157.17800,0.94898
156.93693,0.93338
156.69586,0.92747
156.45479,0.93111
156.21372,0.93722
155.97265,0.93816
155.73158,0.93155
155.49051,0.91931
155.24944,0.90374
155.00837,0.88754
154.76730,0.87471
154.52623,0.86754
154.28516,0.86404
154.04409,0.86003
153.80302,0.85133
153.56194,0.83502
153.32087,0.81269
153.07980,0.79040
152.83873,0.77311
152.59766,0.76088
152.35659,0.75017
152.11552,0.73804
151.87445,0.72475
151.63338,0.71193
151.39231,0.69989
151.15124,0.68818
150.91017,0.67689
150.66910,0.66627
150.42803,0.65565
150.18696,0.64356
149.94589,0.62984
149.70482,0.61692
149.46375,0.60726
149.22267,0.60024
148.98160,0.59289
148.74053,0.58398
148.49946,0.57568
148.25839,0.57095
148.01732,0.57017
147.77625,0.57034
147.53518,0.56752
147.29411,0.56123
147.05304,0.55534
146.81197,0.55395
146.57090,0.55712
146.32983,0.56117
146.08876,0.56292
145.84769,0.56313
145.60662,0.56515
145.36555,0.57040
145.12448,0.57661
144.88340,0.58114
144.64233,0.58407
144.40126,0.58680
144.16019,0.58955
143.91912,0.59177
143.67805,0.59350
143.43698,0.59479
143.19591,0.59425
142.95484,0.58993
142.71377,0.58195
142.47270,0.57258
142.23163,0.56334
141.99056,0.55429
141.74949,0.54600
141.50842,0.53917
141.26735,0.53257
141.02628,0.52439
140.78521,0.51614
140.54413,0.51178
140.30306,0.51261
140.06199,0.51553
139.82092,0.51700
139.57985,0.51733
139.33878,0.51931
139.09771,0.52337
138.85664,0.52744
138.61557,0.53079
138.37450,0.53502
138.13343,0.54131
137.89236,0.54938
137.65129,0.55921
137.41022,0.57147
137.16915,0.58618
136.92808,0.60236
136.68701,0.61926
136.44594,0.63693
136.20486,0.65579
135.96379,0.67608
135.72272,0.69759
135.48165,0.71985
135.24058,0.74369
134.99951,0.77185
134.75844,0.80541
134.51737,0.84013
134.27630,0.87008
134.03523,0.89449
133.79416,0.91667
133.55309,0.93936
133.31202,0.96518
133.07095,0.99661
132.82988,1.03147
132.58881,1.06268
132.34774,1.08389
132.10667,1.09286
131.86559,1.09260
131.62452,1.09063
131.38345,1.09317
131.14238,1.10034
130.90131,1.10736
130.66024,1.10816
130.41917,1.09910
130.17810,1.07993
129.93703,1.05262
129.69596,1.02076
129.45489,0.98823
129.21382,0.95741
128.97275,0.92902
128.73168,0.90182
128.49061,0.87242
128.24954,0.83851
128.00847,0.80256
127.76740,0.76946
127.52632,0.74145
127.28525,0.71703
127.04418,0.69378
126.80311,0.67070
126.56204,0.64840
126.32097,0.62730
126.07990,0.60724
125.83883,0.58896
125.59776,0.57398
125.35669,0.56190
125.11562,0.55046
124.87455,0.53895
124.63348,0.52866
124.39241,0.51935
124.15134,0.50877
123.91027,0.49629
123.66920,0.48446
123.42812,0.47599
123.18705,0.47087
122.94598,0.46732
122.70491,0.46447
122.46384,0.46276
122.22277,0.46221
121.98170,0.46175
121.74063,0.46064
121.49956,0.46001
121.25849,0.46160
121.01742,0.46575
120.77635,0.47160
120.53528,0.47882
120.29421,0.48753
120.05314,0.49714
119.81207,0.50686
119.57100,0.51687
119.32993,0.52836
119.08885,0.54332
118.84778,0.56403
118.60671,0.59087
118.36564,0.62130
118.12457,0.65292
117.88350,0.68600
117.64243,0.72120
117.40136,0.75570
117.16029,0.78342
116.91922,0.79986
116.67815,0.80561
116.43708,0.80371
116.19601,0.79592
115.95494,0.78331
115.71387,0.76687
115.47280,0.74710
115.23173,0.72629
114.99066,0.70899
114.74958,0.69840
114.50851,0.69400
114.26744,0.69291
114.02637,0.69239
113.78530,0.69106
113.54423,0.68855
113.30316,0.68422
113.06209,0.67778
112.82102,0.67109
112.57995,0.66735
112.33888,0.66880
112.09781,0.67581
111.85674,0.68796
111.61567,0.70431
111.37460,0.72175
111.13353,0.73473
110.89246,0.73855
110.65139,0.73197
110.41031,0.71652
110.16924,0.69591
109.92817,0.67613
109.68710,0.66346
109.44603,0.66106
109.20496,0.66643
108.96389,0.67035
108.72282,0.66083
108.48175,0.63381
108.24068,0.59799
107.99961,0.56565
107.75854,0.54246
107.51747,0.52746
107.27640,0.51747
107.03533,0.51008
106.79426,0.50394
106.55319,0.49692
106.31212,0.48599
106.07104,0.46987
105.82997,0.45109
105.58890,0.43432
105.34783,0.42267
105.10676,0.41573
104.86569,0.41055
104.62462,0.40387
104.38355,0.39394
104.14248,0.38089
103.90141,0.36654
103.66034,0.35391
103.41927,0.34622
103.17820,0.34482
102.93713,0.34651
102.69606,0.34396
102.45499,0.33337
102.21392,0.32000
101.97285,0.31117
101.73177,0.30883
101.49070,0.31024
101.24963,0.31140
101.00856,0.30888
100.76749,0.30120
100.52642,0.29050
100.28535,0.28177
100.04428,0.27901
99.80321,0.28215
99.56214,0.28670
99.32107,0.28637
99.08000,0.27899
98.83893,0.27019
98.59786,0.26824
98.35679,0.27518
98.11572,0.28287
97.87465,0.28168
97.63358,0.27428
97.39250,0.27163
97.15143,0.27824
96.91036,0.28753
96.66929,0.29058
96.42822,0.28828
96.18715,0.28901
95.94608,0.29631
95.70501,0.30484
95.46394,0.30826
95.22287,0.30902
94.98180,0.31323
94.74073,0.31974
94.49966,0.32253
94.25859,0.32169
94.01752,0.32303
93.77645,0.32744
93.53538,0.33002
93.29431,0.32996
93.05323,0.33130
92.81216,0.33364
92.57109,0.33193
92.33002,0.32695
92.08895,0.32601
91.84788,0.33137
91.60681,0.33712
91.36574,0.34017
91.12467,0.34585
90.88360,0.35791
90.64253,0.37449
90.40146,0.39580
90.16039,0.42503
89.91932,0.46016
89.67825,0.49732
89.43718,0.53947
89.19611,0.58850
88.95504,0.63695
88.71396,0.67746
88.47289,0.70766
88.23182,0.72217
87.99075,0.71952
87.74968,0.70607
87.50861,0.68233
87.26754,0.64486
87.02647,0.59937
86.78540,0.55583
86.54433,0.51801
86.30326,0.48438
86.06219,0.45312
85.82112,0.42428
85.58005,0.39896
85.33898,0.37687
85.09791,0.35604
84.85684,0.33572
84.61577,0.31729
84.37469,0.30201
84.13362,0.28993
83.89255,0.28047
83.65148,0.27258
83.41041,0.26507
83.16934,0.25702
82.92827,0.24828
82.68720,0.23985
82.44613,0.23293
82.20506,0.22776
81.96399,0.22437
81.72292,0.22303
81.48185,0.22266
81.24078,0.22082
80.99971,0.21646
80.75864,0.21105
80.51757,0.20675
80.27650,0.20463
80.03542,0.20408
79.79435,0.20349
79.55328,0.20195
79.31221,0.19982
79.07114,0.19768
78.83007,0.19585
78.58900,0.19448
78.34793,0.19345
78.10686,0.19236
77.86579,0.19077
77.62472,0.18822
77.38365,0.18446
77.14258,0.17989
76.90151,0.17589
76.66044,0.17424
76.41937,0.17514
76.17830,0.17613
75.93723,0.17444
75.69615,0.17055
75.45508,0.16752
75.21401,0.16736
74.97294,0.16932
74.73187,0.17093
74.49080,0.17004
74.24973,0.16695
74.00866,0.16440
73.76759,0.16493
73.52652,0.16866
73.28545,0.17385
73.04438,0.17862
72.80331,0.18184
72.56224,0.18305
72.32117,0.18254
72.08010,0.18149
71.83903,0.18088
71.59796,0.18045
71.35688,0.17957
71.11581,0.17838
70.87474,0.17706
70.63367,0.17574
70.39260,0.17642
70.15153,0.18310
69.91046,0.19808
69.66939,0.21891
69.42832,0.23935
69.18725,0.25305
68.94618,0.25600
68.70511,0.24829
68.46404,0.23379
68.22297,0.21623
67.98190,0.19726
67.74083,0.17897
67.49976,0.16469
67.25869,0.15613
67.01761,0.15161
66.77654,0.14796
66.53547,0.14365
66.29440,0.13935
66.05333,0.13629
65.81226,0.13547
65.57119,0.13788
65.33012,0.14447
65.08905,0.15554
64.84798,0.17049
64.60691,0.18756
64.36584,0.20323
64.12477,0.21307
63.88370,0.21523
63.64263,0.21233
63.40156,0.20807
63.16049,0.20321
62.91942,0.19608
62.67834,0.18606
62.43727,0.17531
62.19620,0.16742
61.95513,0.16451
61.71406,0.16604
61.47299,0.16959
61.23192,0.17173
60.99085,0.16924
60.74978,0.16138
60.50871,0.15040
60.26764,0.13932
60.02657,0.13043
59.78550,0.12479
59.54443,0.12098
59.30336,0.11617
59.06229,0.11026
58.82122,0.10731
58.58015,0.11223
58.33907,0.12699
58.09800,0.15009
57.85693,0.17787
57.61586,0.20447
57.37479,0.22009
57.13372,0.21452
56.89265,0.18882
56.65158,0.15552
56.41051,0.12550
56.16944,0.10385
55.92837,0.09390
55.68730,0.09833
55.44623,0.11580
55.20516,0.13897
54.96409,0.15792
54.72302,0.16586
54.48195,0.15989
54.24088,0.14001
53.99980,0.11342
53.75873,0.09361
53.51766,0.09216
53.27659,0.11406
53.03552,0.15732
52.79445,0.20939
52.55338,0.23809
52.31231,0.21854
52.07124,0.17669
51.83017,0.14312
51.58910,0.12909
51.34803,0.13840
51.10696,0.17072
50.86589,0.20575
50.62482,0.19749
50.38375,0.14797
50.14268,0.10649
49.90161,0.09958
49.66053,0.13542
49.41946,0.19501
49.17839,0.20127
48.93732,0.14222
48.69625,0.10325
48.45518,0.11674
48.21411,0.16320
47.97304,0.17949
47.73197,0.14366
47.49090,0.11884
47.24983,0.13447
47.00876,0.15859
46.76769,0.14261
46.52662,0.11126
46.28555,0.10310
46.04448,0.10721
45.80341,0.10115
45.56234,0.09876
45.32126,0.11142
45.08019,0.11437
44.83912,0.09680
44.59805,0.08786
44.35698,0.09851
44.11591,0.10944
43.87484,0.11293
43.63377,0.12141
43.39270,0.13577
43.15163,0.14724
42.91056,0.15041
42.66949,0.14082
42.42842,0.12393
42.18735,0.11626
41.94628,0.12129
41.70521,0.12700
41.46414,0.12630
41.22307,0.12402
40.98199,0.12793
40.74092,0.14190
40.49985,0.16078
40.25878,0.17391
40.01771,0.17659
39.77664,0.17270
39.53557,0.16943
39.29450,0.17301
39.05343,0.18575
38.81236,0.20606
38.57129,0.22812
38.33022,0.24410
38.08915,0.25551
37.84808,0.27212
37.60701,0.29140
37.36594,0.29361
37.12487,0.27380
36.88380,0.25084
36.64272,0.23282
36.40165,0.21543
36.16058,0.20300
35.91951,0.20562
35.67844,0.22148
35.43737,0.23489
35.19630,0.23401
34.95523,0.22448
34.71416,0.21962
34.47309,0.21984
34.23202,0.21300
33.99095,0.19361
33.74988,0.17086
33.50881,0.15926
33.26774,0.16199
33.02667,0.16808
32.78560,0.16926
32.54453,0.16905
32.30345,0.17581
32.06238,0.19080
31.82131,0.20715
31.58024,0.21853
31.33917,0.22133
31.09810,0.21530
30.85703,0.19955
30.61596,0.17255
30.37489,0.14370
30.13382,0.12829
29.89275,0.12583
29.65168,0.12003
29.41061,0.10229
29.16954,0.08192
28.92847,0.06871
28.68740,0.06001
28.44633,0.05129
28.20526,0.04622
27.96418,0.04584
27.72311,0.04356
27.48204,0.03885
27.24097,0.04026
26.99990,0.05223
26.75883,0.06438
26.51776,0.05982
26.27669,0.03320
26.03562,-0.00032
25.79455,-0.01854
25.55348,-0.01625
25.31241,-0.00541
25.07134,0.00126
24.83027,-0.00107
24.58920,-0.01292
24.34813,-0.03925
24.10706,-0.07767
23.86599,-0.10224
23.62491,-0.09426
23.38384,-0.07107
23.14277,-0.06057
22.90170,-0.07353
22.66063,-0.10103
22.41956,-0.12036
22.17849,-0.11232
21.93742,-0.08525
21.69635,-0.06342
21.45528,-0.06140
21.21421,-0.07828
20.97314,-0.10322
20.73207,-0.12256
20.49100,-0.13180
20.24993,-0.13938
20.00886,-0.15110
19.76779,-0.16208
19.52672,-0.16291
19.28564,-0.15585
19.04457,-0.15579
18.80350,-0.16717
18.56243,-0.17943
18.32136,-0.18475
18.08029,-0.18696
17.83922,-0.19027
17.59815,-0.19371
17.35708,-0.19921
17.11601,-0.20373
16.87494,-0.20163
16.63387,-0.19799
16.39280,-0.19910
16.15173,-0.20211
15.91066,-0.20381
15.66959,-0.20534
15.42852,-0.20833
15.18745,-0.21861
14.94637,-0.23252
14.70530,-0.23780
14.46423,-0.22782
14.22316,-0.20861
13.98209,-0.19584
13.74102,-0.20210
13.49995,-0.21917
13.25888,-0.22388
13.01781,-0.21279
12.77674,-0.20704
12.53567,-0.22090
12.29460,-0.24750
12.05353,-0.26528
11.81246,-0.25701
11.57139,-0.23516
11.33032,-0.21967
11.08925,-0.21502
10.84818,-0.21940
10.60710,-0.23229
10.36603,-0.25033
10.12496,-0.27112
9.88389,-0.29424
9.64282,-0.30786
9.40175,-0.30242
9.16068,-0.28236
8.91961,-0.25695
8.67854,-0.23568
8.43747,-0.22628
8.19640,-0.23553
7.95533,-0.25963
7.71426,-0.27947
7.47319,-0.27925
7.23212,-0.26769
6.99105,-0.26500
6.74998,-0.28167
6.50891,-0.31110
6.26783,-0.33251
6.02676,-0.33925
5.78569,-0.34927
5.54462,-0.35962
5.30355,-0.33718
5.06248,-0.29326
4.82141,-0.27350
4.58034,-0.27737
4.33927,-0.28002
4.09820,-0.26291
3.85713,-0.23654
3.61606,-0.22628
3.37499,-0.22539
3.13392,-0.22826
2.89285,-0.23945
2.65178,-0.25513
2.41071,-0.26594
2.16964,-0.26630
1.92856,-0.25867
1.68749,-0.25303
1.44642,-0.25903
1.20535,-0.27048
0.96428,-0.27884
0.72321,-0.29563
0.48214,-0.30816
0.24107,-0.27132
-0.00000,-0.08145
