399.69498,1.56427
399.45391,1.56263
399.21284,1.55651
398.97177,1.55549
398.73070,1.56370
398.48963,1.57056
398.24856,1.56555
398.00749,1.54969
397.76642,1.53107
397.52535,1.51838
397.28428,1.51720
397.04321,1.52828
396.80214,1.54693
396.56107,1.56380
396.32000,1.56931
396.07892,1.56210
395.83785,1.55235
395.59678,1.55037
395.35571,1.55526
395.11464,1.55917
394.87357,1.55729
394.63250,1.55244
394.39143,1.55178
394.15036,1.55734
393.90929,1.56170
393.66822,1.55831
393.42715,1.55411
393.18608,1.56028
392.94501,1.57168
392.70394,1.57026
392.46287,1.55055
392.22180,1.52358
391.98073,1.49996
391.73965,1.48790
391.49858,1.49434
391.25751,1.51600
391.01644,1.53528
390.77537,1.53336
390.53430,1.51103
390.29323,1.48810
390.05216,1.47928
389.81109,1.48227
389.57002,1.48743
389.32895,1.48787
389.08788,1.48275
388.84681,1.47806
388.60574,1.48120
388.36467,1.49154
388.12360,1.49640
387.88253,1.48622
387.64146,1.47452
387.40038,1.47957
387.15931,1.49926
386.91824,1.51496
386.67717,1.51353
386.43610,1.50064
386.19503,1.48831
385.95396,1.48086
385.71289,1.47560
385.47182,1.46566
385.23075,1.44440
384.98968,1.41563
384.74861,1.39133
384.50754,1.37745
384.26647,1.37125
384.02540,1.36985
383.78433,1.36952
383.54326,1.36135
383.30219,1.34349
383.06111,1.33017
382.82004,1.33326
382.57897,1.34448
382.33790,1.34489
382.09683,1.32730
381.85576,1.30190
381.61469,1.28056
381.37362,1.26784
381.13255,1.26406
380.89148,1.26909
380.65041,1.28141
380.40934,1.29450
380.16827,1.30017
379.92720,1.29824
379.68613,1.29700
379.44506,1.30150
379.20399,1.30722
378.96292,1.31128
378.72184,1.31935
378.48077,1.33265
378.23970,1.34361
377.99863,1.34697
377.75756,1.34455
377.51649,1.33822
377.27542,1.33396
377.03435,1.34477
376.79328,1.37571
376.55221,1.40887
376.31114,1.41839
376.07007,1.40384
375.82900,1.38495
375.58793,1.37407
375.34686,1.37449
375.10579,1.38691
374.86472,1.40651
374.62365,1.42572
374.38257,1.44220
374.14150,1.45410
373.90043,1.45336
373.65936,1.43762
373.41829,1.41789
373.17722,1.40593
372.93615,1.40634
372.69508,1.41968
372.45401,1.44202
372.21294,1.46068
371.97187,1.46275
371.73080,1.45110
371.48973,1.43845
371.24866,1.43166
371.00759,1.43035
370.76652,1.43115
370.52545,1.42745
370.28437,1.41350
370.04330,1.39362
369.80223,1.37674
369.56116,1.36572
369.32009,1.36150
369.07902,1.36711
368.83795,1.37922
368.59688,1.38543
368.35581,1.37874
368.11474,1.36704
367.87367,1.36130
367.63260,1.36257
367.39153,1.36364
367.15046,1.35974
366.90939,1.35438
366.66832,1.35402
366.42725,1.35959
366.18618,1.36560
365.94510,1.36684
365.70403,1.36207
365.46296,1.35212
365.22189,1.33938
364.98082,1.32774
364.73975,1.32155
364.49868,1.32439
364.25761,1.33553
364.01654,1.34719
363.77547,1.35071
363.53440,1.34521
363.29333,1.33506
363.05226,1.32277
362.81119,1.31041
362.57012,1.30170
362.32905,1.29814
362.08798,1.29936
361.84691,1.30662
361.60583,1.31867
361.36476,1.32641
361.12369,1.32200
360.88262,1.31176
360.64155,1.30848
360.40048,1.31526
360.15941,1.32404
359.91834,1.32702
359.67727,1.32421
359.43620,1.31980
359.19513,1.31879
358.95406,1.32195
358.71299,1.32089
358.47192,1.30880
358.23085,1.29173
357.98978,1.27957
357.74871,1.27405
357.50764,1.27221
357.26656,1.27489
357.02549,1.28325
356.78442,1.29187
356.54335,1.29340
356.30228,1.28775
356.06121,1.28059
355.82014,1.27682
355.57907,1.27870
355.33800,1.28564
355.09693,1.29370
354.85586,1.29743
354.61479,1.29403
354.37372,1.28540
354.13265,1.27593
353.89158,1.26883
353.65051,1.26450
353.40944,1.26212
353.16837,1.26310
352.92729,1.27122
352.68622,1.28742
352.44515,1.30537
352.20408,1.31523
351.96301,1.31269
351.72194,1.30361
351.48087,1.29751
351.23980,1.29884
350.99873,1.30467
350.75766,1.30736
350.51659,1.30144
350.27552,1.29021
350.03445,1.28272
349.79338,1.28379
349.55231,1.29106
349.31124,1.30028
349.07017,1.30919
348.82910,1.31749
348.58802,1.32601
348.34695,1.33245
348.10588,1.32960
347.86481,1.31428
347.62374,1.29432
347.38267,1.28034
347.14160,1.27551
346.90053,1.27785
346.65946,1.28524
346.41839,1.29539
346.17732,1.30675
345.93625,1.31853
345.69518,1.32685
345.45411,1.32491
345.21304,1.31238
344.97197,1.29860
344.73090,1.29369
344.48983,1.30079
344.24875,1.31380
344.00768,1.32255
343.76661,1.32402
343.52554,1.32590
343.28447,1.33530
343.04340,1.34729
342.80233,1.34880
342.56126,1.33627
342.32019,1.32169
342.07912,1.31696
341.83805,1.32389
341.59698,1.33898
341.35591,1.35689
341.11484,1.36892
340.87377,1.36936
340.63270,1.36371
340.39163,1.36237
340.15056,1.36935
339.90948,1.38119
339.66841,1.39081
339.42734,1.38978
339.18627,1.37604
338.94520,1.36082
338.70413,1.35754
338.46306,1.36782
338.22199,1.38244
337.98092,1.39384
337.73985,1.40259
337.49878,1.41164
337.25771,1.42396
337.01664,1.44094
336.77557,1.45432
336.53450,1.45177
336.29343,1.43428
336.05236,1.41554
335.81129,1.40542
335.57021,1.40319
335.32914,1.40158
335.08807,1.39421
334.84700,1.38260
334.60593,1.37352
334.36486,1.36885
334.12379,1.36484
333.88272,1.36020
333.64165,1.35917
333.40058,1.36445
333.15951,1.37178
332.91844,1.37332
332.67737,1.36317
332.43630,1.34363
332.19523,1.32463
331.95416,1.31339
331.71309,1.31027
331.47202,1.31398
331.23094,1.32478
330.98987,1.33913
330.74880,1.34880
330.50773,1.34995
330.26666,1.34436
330.02559,1.33321
329.78452,1.31802
329.54345,1.30352
329.30238,1.29532
329.06131,1.29636
328.82024,1.30650
328.57917,1.32034
328.33810,1.32666
328.09703,1.31951
327.85596,1.30846
327.61489,1.30857
327.37382,1.32227
327.13275,1.33716
326.89167,1.34244
326.65060,1.34148
326.40953,1.34228
326.16846,1.34293
325.92739,1.33535
325.68632,1.32015
325.44525,1.30711
325.20418,1.30271
324.96311,1.30473
324.72204,1.30825
324.48097,1.31305
324.23990,1.32200
323.99883,1.33394
323.75776,1.34194
323.51669,1.34245
323.27562,1.34204
323.03455,1.34641
322.79348,1.34729
322.55240,1.33450
322.31133,1.31272
322.07026,1.29544
321.82919,1.29197
321.58812,1.29884
321.34705,1.30585
321.10598,1.30887
320.86491,1.31158
320.62384,1.31644
320.38277,1.32088
320.14170,1.32349
319.90063,1.32470
319.65956,1.32490
319.41849,1.32801
319.17742,1.33375
318.93635,1.33312
318.69528,1.32453
318.45421,1.31506
318.21313,1.31064
317.97206,1.31110
317.73099,1.31113
317.48992,1.31294
317.24885,1.32494
317.00778,1.34335
316.76671,1.35141
316.52564,1.34348
316.28457,1.33321
316.04350,1.33334
315.80243,1.34090
315.56136,1.34370
315.32029,1.34104
315.07922,1.34540
314.83815,1.35751
314.59708,1.35968
314.35601,1.34609
314.11494,1.33525
313.87386,1.33894
313.63279,1.34795
313.39172,1.35244
313.15065,1.35605
312.90958,1.36295
312.66851,1.37072
312.42744,1.37801
312.18637,1.38537
311.94530,1.38790
311.70423,1.38324
311.46316,1.38105
311.22209,1.38747
310.98102,1.39188
310.73995,1.38195
310.49888,1.36381
310.25781,1.35382
310.01674,1.35906
309.77567,1.37595
309.53459,1.39873
309.29352,1.41950
309.05245,1.42661
308.81138,1.41576
308.57031,1.39746
308.32924,1.38655
308.08817,1.38928
307.84710,1.39962
307.60603,1.40735
307.36496,1.41004
307.12389,1.41276
306.88282,1.41931
306.64175,1.42756
306.40068,1.42923
306.15961,1.41976
305.91854,1.40559
305.67747,1.39618
305.43640,1.39434
305.19532,1.39702
304.95425,1.40240
304.71318,1.40885
304.47211,1.41076
304.23104,1.40492
303.98997,1.39566
303.74890,1.38740
303.50783,1.38195
303.26676,1.37992
303.02569,1.37846
302.78462,1.37358
302.54355,1.36609
302.30248,1.35953
302.06141,1.35470
301.82034,1.35104
301.57927,1.34853
301.33820,1.34416
301.09713,1.33384
300.85605,1.31957
300.61498,1.30660
300.37391,1.29703
300.13284,1.29161
299.89177,1.29223
299.65070,1.29826
299.40963,1.30380
299.16856,1.30415
298.92749,1.30206
298.68642,1.30256
298.44535,1.30442
298.20428,1.30126
297.96321,1.29061
297.72214,1.27861
297.48107,1.27286
297.24000,1.27325
296.99893,1.27269
296.75786,1.26714
296.51678,1.26139
296.27571,1.26141
296.03464,1.26531
295.79357,1.26640
295.55250,1.26256
295.31143,1.25620
295.07036,1.24878
294.82929,1.24176
294.58822,1.23759
294.34715,1.23617
294.10608,1.23448
293.86501,1.23224
293.62394,1.23223
293.38287,1.23379
293.14180,1.23188
292.90073,1.22460
292.65966,1.21590
292.41859,1.20918
292.17751,1.20405
291.93644,1.20035
291.69537,1.19988
291.45430,1.20233
291.21323,1.20404
290.97216,1.20253
290.73109,1.19934
290.49002,1.19741
290.24895,1.19839
290.00788,1.20204
289.76681,1.20558
289.52574,1.20502
289.28467,1.19916
289.04360,1.19108
288.80253,1.18435
288.56146,1.17992
288.32039,1.17756
288.07932,1.17793
287.83824,1.18136
287.59717,1.18600
287.35610,1.18920
287.11503,1.18998
286.87396,1.18877
286.63289,1.18626
286.39182,1.18392
286.15075,1.18349
285.90968,1.18432
285.66861,1.18309
285.42754,1.17806
285.18647,1.17174
284.94540,1.16746
284.70433,1.16519
284.46326,1.16312
284.22219,1.16165
283.98112,1.16289
283.74005,1.16719
283.49897,1.17254
283.25790,1.17659
283.01683,1.17808
282.77576,1.17726
282.53469,1.17511
282.29362,1.17131
282.05255,1.16466
281.81148,1.15720
281.57041,1.15434
281.32934,1.15856
281.08827,1.16591
280.84720,1.16996
280.60613,1.16816
280.36506,1.16386
280.12399,1.16238
279.88292,1.16473
279.64185,1.16602
279.40078,1.16251
279.15970,1.15761
278.91863,1.15755
278.67756,1.16322
278.43649,1.16910
278.19542,1.16909
277.95435,1.16223
277.71328,1.15338
277.47221,1.14850
277.23114,1.14942
276.99007,1.15344
276.74900,1.15747
276.50793,1.16018
276.26686,1.16094
276.02579,1.15979
275.78472,1.15882
275.54365,1.16061
275.30258,1.16523
275.06151,1.16988
274.82043,1.17145
274.57936,1.16991
274.33829,1.16875
274.09722,1.17068
273.85615,1.17406
273.61508,1.17608
273.37401,1.17743
273.13294,1.18063
272.89187,1.18563
272.65080,1.19002
272.40973,1.19260
272.16866,1.19453
271.92759,1.19648
271.68652,1.19682
271.44545,1.19384
271.20438,1.18850
270.96331,1.18405
270.72224,1.18377
270.48116,1.18888
270.24009,1.19703
269.99902,1.20337
269.75795,1.20524
269.51688,1.20531
269.27581,1.20804
269.03474,1.21490
268.79367,1.22429
268.55260,1.23398
268.31153,1.24223
268.07046,1.24897
267.82939,1.25573
267.58832,1.26285
267.34725,1.26894
267.10618,1.27386
266.86511,1.27929
266.62404,1.28522
266.38297,1.28893
266.14189,1.28925
265.90082,1.28931
265.65975,1.29321
265.41868,1.30156
265.17761,1.31200
264.93654,1.32378
264.69547,1.33763
264.45440,1.35083
264.21333,1.35980
263.97226,1.36688
263.73119,1.37731
263.49012,1.39103
263.24905,1.40315
263.00798,1.41144
262.76691,1.41891
262.52584,1.42949
262.28477,1.44317
262.04370,1.45567
261.80262,1.46552
261.56155,1.47859
261.32048,1.49959
261.07941,1.52484
260.83834,1.54585
260.59727,1.55793
260.35620,1.56449
260.11513,1.57310
259.87406,1.58942
259.63299,1.61344
259.39192,1.64233
259.15085,1.67761
258.90978,1.72665
258.66871,1.78955
258.42764,1.84376
258.18657,1.86126
257.94550,1.84946
257.70443,1.84027
257.46335,1.84967
257.22228,1.87004
256.98121,1.87958
256.74014,1.86034
256.49907,1.81572
256.25800,1.76380
256.01693,1.72241
255.77586,1.70396
255.53479,1.70909
255.29372,1.72523
255.05265,1.73472
254.81158,1.72907
254.57051,1.71144
254.32944,1.68772
254.08837,1.66671
253.84730,1.65601
253.60623,1.65432
253.36516,1.65401
253.12408,1.65115
252.88301,1.64841
252.64194,1.64651
252.40087,1.63995
252.15980,1.62470
251.91873,1.60436
251.67766,1.58623
251.43659,1.57657
251.19552,1.57883
250.95445,1.59135
250.71338,1.60636
250.47231,1.61324
250.23124,1.60700
249.99017,1.59183
249.74910,1.57632
249.50803,1.56808
249.26696,1.56725
249.02589,1.56851
248.78481,1.57247
248.54374,1.58503
248.30267,1.60454
248.06160,1.62157
247.82053,1.63199
247.57946,1.63941
247.33839,1.64537
247.09732,1.64684
246.85625,1.64229
246.61518,1.63191
246.37411,1.61839
246.13304,1.61027
245.89197,1.61300
245.65090,1.62133
245.40983,1.63007
245.16876,1.64477
244.92769,1.67426
244.68661,1.71408
244.44554,1.74133
244.20447,1.74260
243.96340,1.74032
243.72233,1.77366
243.48126,1.86337
243.24019,1.98291
242.99912,2.05718
242.75805,2.05530
242.51698,2.02897
242.27591,2.00955
242.03484,1.97211
241.79377,1.88584
241.55270,1.77563
241.31163,1.67742
241.07056,1.59558
240.82949,1.52067
240.58842,1.45377
240.34734,1.40326
240.10627,1.36866
239.86520,1.33891
239.62413,1.30654
239.38306,1.27508
239.14199,1.24948
238.90092,1.22707
238.65985,1.20112
238.41878,1.17049
238.17771,1.14137
237.93664,1.11978
237.69557,1.10609
237.45450,1.09636
237.21343,1.08709
236.97236,1.07680
236.73129,1.06393
236.49022,1.04733
236.24915,1.02825
236.00807,1.00909
235.76700,0.99240
235.52593,0.98094
235.28486,0.97569
235.04379,0.97383
234.80272,0.97079
234.56165,0.96450
234.32058,0.95615
234.07951,0.94769
233.83844,0.94086
233.59737,0.93635
233.35630,0.93287
233.11523,0.92860
232.87416,0.92371
232.63309,0.91960
232.39202,0.91626
232.15095,0.91251
231.90988,0.90823
231.66880,0.90455
231.42773,0.90181
231.18666,0.89912
230.94559,0.89611
230.70452,0.89376
230.46345,0.89289
230.22238,0.89259
229.98131,0.89145
229.74024,0.88921
229.49917,0.88639
229.25810,0.88334
229.01703,0.88001
228.77596,0.87691
228.53489,0.87506
228.29382,0.87425
228.05275,0.87260
227.81168,0.86868
227.57061,0.86352
227.32953,0.85970
227.08846,0.85906
226.84739,0.86070
226.60632,0.86100
226.36525,0.85781
226.12418,0.85416
225.88311,0.85384
225.64204,0.85575
225.40097,0.85648
225.15990,0.85576
224.91883,0.85573
224.67776,0.85633
224.43669,0.85577
224.19562,0.85445
223.95455,0.85477
223.71348,0.85756
223.47241,0.86126
223.23134,0.86473
222.99026,0.86836
222.74919,0.87207
222.50812,0.87494
222.26705,0.87724
222.02598,0.88072
221.78491,0.88615
221.54384,0.89220
221.30277,0.89722
221.06170,0.90076
220.82063,0.90373
220.57956,0.90837
220.33849,0.91670
220.09742,0.92690
219.85635,0.93417
219.61528,0.93769
219.37421,0.94324
219.13314,0.95502
218.89207,0.96955
218.65099,0.98089
218.40992,0.98822
218.16885,0.99481
217.92778,1.00297
217.68671,1.01296
217.44564,1.02444
217.20457,1.03743
216.96350,1.05191
216.72243,1.06644
216.48136,1.07896
216.24029,1.09019
215.99922,1.10307
215.75815,1.11770
215.51708,1.13111
215.27601,1.14182
215.03494,1.15127
214.79387,1.16147
214.55280,1.17392
214.31172,1.18970
214.07065,1.20734
213.82958,1.22313
213.58851,1.23493
213.34744,1.24266
213.10637,1.24619
212.86530,1.24678
212.62423,1.24857
212.38316,1.25396
212.14209,1.25896
211.90102,1.25845
211.65995,1.25471
211.41888,1.25427
211.17781,1.25828
210.93674,1.26131
210.69567,1.26021
210.45460,1.25815
210.21353,1.25791
209.97245,1.25717
209.73138,1.25269
209.49031,1.24500
209.24924,1.23782
209.00817,1.23512
208.76710,1.23786
208.52603,1.24281
208.28496,1.24534
208.04389,1.24368
207.80282,1.23950
207.56175,1.23430
207.32068,1.22782
207.07961,1.22039
206.83854,1.21298
206.59747,1.20463
206.35640,1.19256
206.11533,1.17588
205.87426,1.15768
205.63318,1.14157
205.39211,1.12844
205.15104,1.11761
204.90997,1.10814
204.66890,1.09792
204.42783,1.08478
204.18676,1.06991
203.94569,1.05743
203.70462,1.04949
203.46355,1.04449
203.22248,1.04049
202.98141,1.03675
202.74034,1.03030
202.49927,1.01579
202.25820,0.99249
202.01713,0.96702
201.77606,0.94651
201.53499,0.93239
201.29391,0.92146
201.05284,0.91038
200.81177,0.89834
200.57070,0.88631
200.32963,0.87525
200.08856,0.86555
199.84749,0.85735
199.60642,0.85024
199.36535,0.84263
199.12428,0.83228
198.88321,0.81901
198.64214,0.80561
198.40107,0.79472
198.16000,0.78579
197.91893,0.77647
197.67786,0.76606
197.43679,0.75631
197.19572,0.74939
196.95464,0.74567
196.71357,0.74297
196.47250,0.73796
196.23143,0.72854
195.99036,0.71533
195.74929,0.70141
195.50822,0.69062
195.26715,0.68542
195.02608,0.68538
194.78501,0.68728
194.54394,0.68644
194.30287,0.67984
194.06180,0.66879
193.82073,0.65773
193.57966,0.65016
193.33859,0.64671
193.09752,0.64621
192.85645,0.64647
192.61537,0.64452
192.37430,0.63844
192.13323,0.62981
191.89216,0.62253
191.65109,0.61880
191.41002,0.61725
191.16895,0.61510
190.92788,0.61126
190.68681,0.60664
190.44574,0.60248
190.20467,0.59908
189.96360,0.59588
189.72253,0.59249
189.48146,0.58975
189.24039,0.58900
188.99932,0.59032
188.75825,0.59176
188.51718,0.59096
188.27610,0.58774
188.03503,0.58449
187.79396,0.58314
187.55289,0.58255
187.31182,0.58038
187.07075,0.57646
186.82968,0.57236
186.58861,0.56917
186.34754,0.56747
186.10647,0.56766
185.86540,0.56894
185.62433,0.56942
185.38326,0.56825
185.14219,0.56633
184.90112,0.56502
184.66005,0.56561
184.41898,0.56920
184.17791,0.57500
183.93683,0.57978
183.69576,0.58096
183.45469,0.57984
183.21362,0.57990
182.97255,0.58240
182.73148,0.58463
182.49041,0.58343
182.24934,0.58003
182.00827,0.57888
181.76720,0.58166
181.52613,0.58479
181.28506,0.58443
181.04399,0.58218
180.80292,0.58263
180.56185,0.58689
180.32078,0.59205
180.07971,0.59623
179.83864,0.60099
179.59756,0.60764
179.35649,0.61460
179.11542,0.62013
178.87435,0.62445
178.63328,0.62805
178.39221,0.63132
178.15114,0.63634
177.91007,0.64564
177.66900,0.65861
177.42793,0.67180
177.18686,0.68345
176.94579,0.69543
176.70472,0.70992
176.46365,0.72640
176.22258,0.74257
175.98151,0.75653
175.74044,0.76796
175.49937,0.77904
175.25829,0.79353
175.01722,0.81234
174.77615,0.83190
174.53508,0.84962
174.29401,0.86787
174.05294,0.88905
173.81187,0.91074
173.57080,0.92846
173.32973,0.94071
173.08866,0.94978
172.84759,0.95822
172.60652,0.96542
172.36545,0.96959
172.12438,0.97227
171.88331,0.97717
171.64224,0.98461
171.40117,0.99130
171.16010,0.99463
170.91902,0.99340
170.67795,0.98630
170.43688,0.97376
170.19581,0.95961
169.95474,0.94819
169.71367,0.94090
169.47260,0.93672
169.23153,0.93441
168.99046,0.93267
168.74939,0.92976
168.50832,0.92479
168.26725,0.91872
168.02618,0.91315
167.78511,0.90897
167.54404,0.90623
167.30297,0.90466
167.06190,0.90425
166.82083,0.90511
166.57975,0.90712
166.33868,0.91060
166.09761,0.91639
165.85654,0.92392
165.61547,0.93104
165.37440,0.93691
165.13333,0.94295
164.89226,0.95010
164.65119,0.95750
164.41012,0.96421
164.16905,0.97029
163.92798,0.97666
163.68691,0.98459
163.44584,0.99426
163.20477,1.00388
162.96370,1.01164
162.72263,1.01765
162.48156,1.02293
162.24048,1.02782
161.99941,1.03201
161.75834,1.03494
161.51727,1.03635
161.27620,1.03690
161.03513,1.03859
160.79406,1.04278
160.55299,1.04695
160.31192,1.04637
160.07085,1.03985
159.82978,1.03075
159.58871,1.02267
159.34764,1.01700
159.10657,1.01320
158.86550,1.00993
158.62443,1.00664
158.38336,1.00346
158.14229,0.99946
157.90121,0.99344
157.66014,0.98699
157.41907,0.98285
157.17800,0.98046
156.93693,0.97607
156.69586,0.96734
156.45479,0.95573
156.21372,0.94403
155.97265,0.93354
155.73158,0.92419
155.49051,0.91595
155.24944,0.90873
155.00837,0.90174
154.76730,0.89401
154.52623,0.88511
154.28516,0.87467
154.04409,0.86240
153.80302,0.84924
153.56194,0.83720
153.32087,0.82742
153.07980,0.81862
152.83873,0.80781
152.59766,0.79296
152.35659,0.77499
152.11552,0.75652
151.87445,0.73898
151.63338,0.72179
151.39231,0.70416
151.15124,0.68660
150.91017,0.67049
150.66910,0.65663
150.42803,0.64480
150.18696,0.63460
149.94589,0.62609
149.70482,0.61902
149.46375,0.61244
149.22267,0.60545
148.98160,0.59798
148.74053,0.59013
148.49946,0.58164
148.25839,0.57267
148.01732,0.56435
147.77625,0.55807
147.53518,0.55483
147.29411,0.55506
147.05304,0.55816
146.81197,0.56196
146.57090,0.56402
146.32983,0.56386
146.08876,0.56297
145.84769,0.56267
145.60662,0.56346
145.36555,0.56618
145.12448,0.57159
144.88340,0.57856
144.64233,0.58458
144.40126,0.58869
144.16019,0.59254
143.91912,0.59760
143.67805,0.60223
143.43698,0.60256
143.19591,0.59681
142.95484,0.58718
142.71377,0.57699
142.47270,0.56752
142.23163,0.55856
141.99056,0.55005
141.74949,0.54215
141.50842,0.53476
141.26735,0.52814
141.02628,0.52296
140.78521,0.51941
140.54413,0.51668
140.30306,0.51384
140.06199,0.51116
139.82092,0.51005
139.57985,0.51172
139.33878,0.51589
139.09771,0.52097
138.85664,0.52570
138.61557,0.53073
138.37450,0.53785
138.13343,0.54739
137.89236,0.55741
137.65129,0.56659
137.41022,0.57663
137.16915,0.59026
136.92808,0.60751
136.68701,0.62525
136.44594,0.64087
136.20486,0.65573
135.96379,0.67380
135.72272,0.69663
135.48165,0.72145
135.24058,0.74531
134.99951,0.76949
134.75844,0.79768
134.51737,0.83067
134.27630,0.86518
134.03523,0.89743
133.79416,0.92529
133.55309,0.94848
133.31202,0.97035
133.07095,0.99808
132.82988,1.03504
132.58881,1.07363
132.34774,1.10230
132.10667,1.11828
131.86559,1.12562
131.62452,1.12759
131.38345,1.12896
131.14238,1.13405
130.90131,1.13727
130.66024,1.12819
130.41917,1.10622
130.17810,1.07927
129.93703,1.05257
129.69596,1.02676
129.45489,1.00122
129.21382,0.97461
128.97275,0.94549
128.73168,0.91392
128.49061,0.88065
128.24954,0.84658
128.00847,0.81359
127.76740,0.78422
127.52632,0.76020
127.28525,0.74051
127.04418,0.72045
126.80311,0.69511
126.56204,0.66559
126.32097,0.63817
126.07990,0.61679
125.83883,0.59983
125.59776,0.58400
125.35669,0.56852
125.11562,0.55452
124.87455,0.54251
124.63348,0.53164
124.39241,0.52064
124.15134,0.50895
123.91027,0.49718
123.66920,0.48656
123.42812,0.47806
123.18705,0.47175
122.94598,0.46733
122.70491,0.46492
122.46384,0.46491
122.22277,0.46656
121.98170,0.46734
121.74063,0.46498
121.49956,0.46011
121.25849,0.45569
121.01742,0.45422
120.77635,0.45636
120.53528,0.46179
120.29421,0.47035
120.05314,0.48220
119.81207,0.49724
119.57100,0.51499
119.32993,0.53528
119.08885,0.55845
118.84778,0.58429
118.60671,0.61151
118.36564,0.63882
118.12457,0.66573
117.88350,0.69227
117.64243,0.71868
117.40136,0.74443
117.16029,0.76692
116.91922,0.78304
116.67815,0.79235
116.43708,0.79638
116.19601,0.79584
115.95494,0.79041
115.71387,0.78019
115.47280,0.76704
115.23173,0.75424
114.99066,0.74337
114.74958,0.73282
114.50851,0.72086
114.26744,0.70841
114.02637,0.69756
113.78530,0.68909
113.54423,0.68261
113.30316,0.67757
113.06209,0.67364
112.82102,0.67062
112.57995,0.66853
112.33888,0.66804
112.09781,0.67013
111.85674,0.67445
111.61567,0.67899
111.37460,0.68278
111.13353,0.68728
110.89246,0.69403
110.65139,0.70246
110.41031,0.70978
110.16924,0.71163
109.92817,0.70468
109.68710,0.69073
109.44603,0.67575
109.20496,0.66325
108.96389,0.65099
108.72282,0.63513
108.48175,0.61550
108.24068,0.59507
107.99961,0.57630
107.75854,0.55948
107.51747,0.54373
107.27640,0.52845
107.03533,0.51409
106.79426,0.50123
106.55319,0.48954
106.31212,0.47848
106.07104,0.46831
105.82997,0.45916
105.58890,0.45033
105.34783,0.44118
105.10676,0.43129
104.86569,0.41991
104.62462,0.40668
104.38355,0.39272
104.14248,0.37967
103.90141,0.36812
103.66034,0.35761
103.41927,0.34761
103.17820,0.33771
102.93713,0.32781
102.69606,0.31874
102.45499,0.31217
102.21392,0.30897
101.97285,0.30826
101.73177,0.30837
101.49070,0.30823
101.24963,0.30771
101.00856,0.30702
100.76749,0.30585
100.52642,0.30300
100.28535,0.29736
100.04428,0.28897
99.80321,0.27926
99.56214,0.27052
99.32107,0.26462
99.08000,0.26171
98.83893,0.26112
98.59786,0.26337
98.35679,0.26941
98.11572,0.27690
97.87465,0.27960
97.63358,0.27340
97.39250,0.26214
97.15143,0.25438
96.91036,0.25606
96.66929,0.26674
96.42822,0.28051
96.18715,0.29048
95.94608,0.29397
95.70501,0.29400
95.46394,0.29535
95.22287,0.30043
94.98180,0.30869
94.74073,0.31735
94.49966,0.32250
94.25859,0.32211
94.01752,0.31859
93.77645,0.31663
93.53538,0.31851
93.29431,0.32223
93.05323,0.32391
92.81216,0.32215
92.57109,0.31952
92.33002,0.31960
92.08895,0.32323
91.84788,0.32637
91.60681,0.32439
91.36574,0.32086
91.12467,0.32589
90.88360,0.34432
90.64253,0.36964
90.40146,0.39298
90.16039,0.41745
89.91932,0.45324
89.67825,0.50176
89.43718,0.55272
89.19611,0.59832
88.95504,0.64237
88.71396,0.68343
88.47289,0.70824
88.23182,0.71291
87.99075,0.70547
87.74968,0.68501
87.50861,0.64850
87.26754,0.60684
87.02647,0.57059
86.78540,0.53792
86.54433,0.50425
86.30326,0.47055
86.06219,0.43919
85.82112,0.41126
85.58005,0.38741
85.33898,0.36651
85.09791,0.34635
84.85684,0.32709
84.61577,0.31058
84.37469,0.29723
84.13362,0.28586
83.89255,0.27551
83.65148,0.26602
83.41041,0.25767
83.16934,0.25067
82.92827,0.24475
82.68720,0.23916
82.44613,0.23322
82.20506,0.22705
81.96399,0.22153
81.72292,0.21742
81.48185,0.21452
81.24078,0.21201
80.99971,0.20933
80.75864,0.20647
80.51757,0.20378
80.27650,0.20123
80.03542,0.19822
79.79435,0.19443
79.55328,0.19084
79.31221,0.18900
79.07114,0.18913
78.83007,0.18959
78.58900,0.18831
78.34793,0.18455
78.10686,0.17925
77.86579,0.17389
77.62472,0.16919
77.38365,0.16499
77.14258,0.16137
76.90151,0.15907
76.66044,0.15811
76.41937,0.15706
76.17830,0.15510
75.93723,0.15338
75.69615,0.15294
75.45508,0.15284
75.21401,0.15181
74.97294,0.15005
74.73187,0.14886
74.49080,0.14942
74.24973,0.15172
74.00866,0.15420
73.76759,0.15539
73.52652,0.15594
73.28545,0.15709
73.04438,0.15831
72.80331,0.15857
72.56224,0.15858
72.32117,0.15894
72.08010,0.15816
71.83903,0.15532
71.59796,0.15264
71.35688,0.15237
71.11581,0.15366
70.87474,0.15487
70.63367,0.15713
70.39260,0.16310
70.15153,0.17336
69.91046,0.18615
69.66939,0.20041
69.42832,0.21640
69.18725,0.23186
68.94618,0.24025
68.70511,0.23618
68.46404,0.22259
68.22297,0.20837
67.98190,0.19958
67.74083,0.19479
67.49976,0.18768
67.25869,0.17500
67.01761,0.16136
66.77654,0.15353
66.53547,0.15306
66.29440,0.15551
66.05333,0.15491
65.81226,0.14916
65.57119,0.14169
65.33012,0.13790
65.08905,0.14135
64.84798,0.15277
64.60691,0.17039
64.36584,0.18928
64.12477,0.20175
63.88370,0.20223
63.64263,0.19255
63.40156,0.17981
63.16049,0.17050
62.91942,0.16772
62.67834,0.17118
62.43727,0.17745
62.19620,0.18110
61.95513,0.17776
61.71406,0.16675
61.47299,0.15023
61.23192,0.13160
60.99085,0.11497
60.74978,0.10396
60.50871,0.09956
60.26764,0.09994
60.02657,0.10295
59.78550,0.10864
59.54443,0.11784
59.30336,0.12917
59.06229,0.13885
58.82122,0.14339
58.58015,0.14234
58.33907,0.13917
58.09800,0.13829
57.85693,0.14042
57.61586,0.14250
57.37479,0.14236
57.13372,0.14065
56.89265,0.13847
56.65158,0.13562
56.41051,0.13148
56.16944,0.12618
55.92837,0.12115
55.68730,0.11840
55.44623,0.11902
55.20516,0.12207
54.96409,0.12542
54.72302,0.12748
54.48195,0.12758
54.24088,0.12512
53.99980,0.12014
53.75873,0.11472
53.51766,0.11231
53.27659,0.11458
53.03552,0.11968
52.79445,0.12472
52.55338,0.13042
52.31231,0.14150
52.07124,0.16073
51.83017,0.18339
51.58910,0.19971
51.34803,0.20477
51.10696,0.20370
50.86589,0.20199
50.62482,0.19521
50.38375,0.17400
50.14268,0.13799
49.90161,0.09826
49.66053,0.06896
49.41946,0.06013
49.17839,0.07580
48.93732,0.11659
48.69625,0.17779
48.45518,0.22548
48.21411,0.20114
47.97304,0.13559
47.73197,0.08793
47.49090,0.07713
47.24983,0.10468
47.00876,0.15658
46.76769,0.18414
46.52662,0.15292
46.28555,0.11130
46.04448,0.10291
45.80341,0.13011
45.56234,0.15199
45.32126,0.12822
45.08019,0.10107
44.83912,0.11292
44.59805,0.14931
44.35698,0.15402
44.11591,0.12402
43.87484,0.10865
43.63377,0.11672
43.39270,0.12647
43.15163,0.13142
42.91056,0.13934
42.66949,0.14453
42.42842,0.14157
42.18735,0.13891
41.94628,0.14114
41.70521,0.14359
41.46414,0.14152
41.22307,0.13365
40.98199,0.12421
40.74092,0.12297
40.49985,0.13447
40.25878,0.15034
40.01771,0.15897
39.77664,0.15947
39.53557,0.15858
39.29450,0.16032
39.05343,0.16305
38.81236,0.16337
38.57129,0.16166
38.33022,0.16297
38.08915,0.17237
37.84808,0.18666
37.60701,0.19382
37.36594,0.18848
37.12487,0.17971
36.88380,0.17843
36.64272,0.18596
36.40165,0.19626
36.16058,0.20214
35.91951,0.20094
35.67844,0.19733
35.43737,0.19634
35.19630,0.19608
34.95523,0.19332
34.71416,0.19021
34.47309,0.19058
34.23202,0.19349
33.99095,0.19146
33.74988,0.18105
33.50881,0.17207
33.26774,0.17495
33.02667,0.18595
32.78560,0.19040
32.54453,0.17787
32.30345,0.15208
32.06238,0.12672
31.82131,0.11227
31.58024,0.10868
31.33917,0.10907
31.09810,0.10637
30.85703,0.09819
30.61596,0.08875
30.37489,0.08388
30.13382,0.08356
29.89275,0.08402
29.65168,0.08436
29.41061,0.08461
29.16954,0.07880
28.92847,0.06048
28.68740,0.03502
28.44633,0.01431
28.20526,-0.00064
27.96418,-0.01938
27.72311,-0.04370
27.48204,-0.05987
27.24097,-0.05710
26.99990,-0.04405
26.75883,-0.03843
26.51776,-0.04706
26.27669,-0.06251
26.03562,-0.07663
25.79455,-0.09181
25.55348,-0.11391
25.31241,-0.13770
25.07134,-0.15121
24.83027,-0.15614
24.58920,-0.16814
24.34813,-0.19120
24.10706,-0.20824
23.86599,-0.20603
23.62491,-0.19911
23.38384,-0.20664
23.14277,-0.22236
22.90170,-0.23054
22.66063,-0.23583
22.41956,-0.25308
22.17849,-0.27651
21.93742,-0.28690
21.69635,-0.28226
21.45528,-0.27701
21.21421,-0.28118
20.97314,-0.29263
20.73207,-0.30332
20.49100,-0.30853
20.24993,-0.31154
20.00886,-0.31917
19.76779,-0.32987
19.52672,-0.33641
19.28564,-0.33751
19.04457,-0.33466
18.80350,-0.33536
18.56243,-0.35544
18.32136,-0.38562
18.08029,-0.41144
17.83922,-0.42553
17.59815,-0.42909
17.35708,-0.42037
17.11601,-0.39658
16.87494,-0.38132
16.63387,-0.38080
16.39280,-0.38659
16.15173,-0.38882
15.91066,-0.39748
15.66959,-0.41546
15.42852,-0.40003
15.18745,-0.36125
14.94637,-0.34742
14.70530,-0.37449
14.46423,-0.41954
14.22316,-0.43722
13.98209,-0.42250
13.74102,-0.40382
13.49995,-0.40917
13.25888,-0.43813
13.01781,-0.46200
12.77674,-0.46576
12.53567,-0.44462
12.29460,-0.40610
12.05353,-0.36925
11.81246,-0.34890
11.57139,-0.35031
11.33032,-0.36857
11.08925,-0.39891
10.84818,-0.43511
10.60710,-0.46343
10.36603,-0.47655
10.12496,-0.48798
9.88389,-0.49378
9.64282,-0.47187
9.40175,-0.43160
9.16068,-0.41243
8.91961,-0.41233
8.67854,-0.40863
8.43747,-0.39982
8.19640,-0.40320
7.95533,-0.41275
7.71426,-0.42204
7.47319,-0.42699
7.23212,-0.41534
6.99105,-0.39677
6.74998,-0.38662
6.50891,-0.38902
6.26783,-0.39898
6.02676,-0.41227
5.78569,-0.42424
5.54462,-0.43137
5.30355,-0.43392
5.06248,-0.43061
4.82141,-0.42118
4.58034,-0.40588
4.33927,-0.38368
4.09820,-0.36407
3.85713,-0.36141
3.61606,-0.37309
3.37499,-0.38750
3.13392,-0.39951
2.89285,-0.40636
2.65178,-0.41384
2.41071,-0.42421
2.16964,-0.42929
1.92856,-0.42714
1.68749,-0.42659
1.44642,-0.43717
1.20535,-0.45561
0.96428,-0.46332
0.72321,-0.44858
0.48214,-0.42377
0.24107,-0.36658
-0.00000,-0.06814
