399.69498,1.54162
399.45391,1.55253
399.21284,1.56229
398.97177,1.56873
398.73070,1.57102
398.48963,1.56631
398.24856,1.55400
398.00749,1.54164
397.76642,1.53887
397.52535,1.54641
397.28428,1.55663
397.04321,1.56297
396.80214,1.56394
396.56107,1.56180
396.32000,1.56175
396.07892,1.56721
395.83785,1.57008
395.59678,1.55784
395.35571,1.53654
395.11464,1.52494
394.87357,1.52939
394.63250,1.54047
394.39143,1.54712
394.15036,1.54626
393.90929,1.54175
393.66822,1.54012
393.42715,1.54603
393.18608,1.55632
392.94501,1.55893
392.70394,1.54863
392.46287,1.53756
392.22180,1.53568
391.98073,1.53531
391.73965,1.52624
391.49858,1.51306
391.25751,1.50654
391.01644,1.50849
390.77537,1.51018
390.53430,1.50162
390.29323,1.48341
390.05216,1.46844
389.81109,1.46631
389.57002,1.47372
389.32895,1.48172
389.08788,1.48575
388.84681,1.48607
388.60574,1.48586
388.36467,1.48941
388.12360,1.49578
387.88253,1.49853
387.64146,1.49183
387.40038,1.47256
387.15931,1.44242
386.91824,1.41279
386.67717,1.39777
386.43610,1.40050
386.19503,1.41229
385.95396,1.42211
385.71289,1.42033
385.47182,1.39876
385.23075,1.36127
384.98968,1.32701
384.74861,1.31294
384.50754,1.32098
384.26647,1.33709
384.02540,1.33973
383.78433,1.32254
383.54326,1.30190
383.30219,1.29403
383.06111,1.29893
382.82004,1.30472
382.57897,1.30316
382.33790,1.30092
382.09683,1.31007
381.85576,1.32787
381.61469,1.33106
381.37362,1.30416
381.13255,1.26738
380.89148,1.24990
380.65041,1.25956
380.40934,1.28637
380.16827,1.31199
379.92720,1.32029
379.68613,1.30992
379.44506,1.29136
379.20399,1.27506
378.96292,1.26609
378.72184,1.26705
378.48077,1.28023
378.23970,1.30444
377.99863,1.33385
377.75756,1.36132
377.51649,1.38354
377.27542,1.39820
377.03435,1.39784
376.79328,1.38290
376.55221,1.37031
376.31114,1.37296
376.07007,1.38706
375.82900,1.40038
375.58793,1.40391
375.34686,1.39841
375.10579,1.39282
374.86472,1.39529
374.62365,1.40440
374.38257,1.41294
374.14150,1.41926
373.90043,1.42686
373.65936,1.43327
373.41829,1.42840
373.17722,1.40970
372.93615,1.39143
372.69508,1.38916
372.45401,1.40082
372.21294,1.40868
371.97187,1.40269
371.73080,1.39334
371.48973,1.39286
371.24866,1.39723
371.00759,1.39474
370.76652,1.38403
370.52545,1.37473
370.28437,1.37374
370.04330,1.37864
369.80223,1.38143
369.56116,1.37555
369.32009,1.36220
369.07902,1.34975
368.83795,1.34551
368.59688,1.34970
368.35581,1.35799
368.11474,1.36512
367.87367,1.36575
367.63260,1.35893
367.39153,1.35105
367.15046,1.34713
366.90939,1.34253
366.66832,1.33115
366.42725,1.31767
366.18618,1.31190
365.94510,1.31604
365.70403,1.32304
365.46296,1.32466
365.22189,1.31943
364.98082,1.31156
364.73975,1.30602
364.49868,1.30604
364.25761,1.31155
364.01654,1.31778
363.77547,1.31774
363.53440,1.30996
363.29333,1.30081
363.05226,1.29584
362.81119,1.29334
362.57012,1.28913
362.32905,1.28333
362.08798,1.27908
361.84691,1.27675
361.60583,1.27366
361.36476,1.26864
361.12369,1.26299
360.88262,1.25857
360.64155,1.25770
360.40048,1.26185
360.15941,1.26846
359.91834,1.27257
359.67727,1.27235
359.43620,1.26981
359.19513,1.26686
358.95406,1.26503
358.71299,1.26563
358.47192,1.26753
358.23085,1.26875
357.98978,1.27013
357.74871,1.27347
357.50764,1.27738
357.26656,1.27721
357.02549,1.26975
356.78442,1.25805
356.54335,1.25005
356.30228,1.25118
356.06121,1.25921
355.82014,1.26621
355.57907,1.26483
355.33800,1.25533
355.09693,1.24677
354.85586,1.24758
354.61479,1.25565
354.37372,1.26203
354.13265,1.26311
353.89158,1.26253
353.65051,1.26256
353.40944,1.26197
353.16837,1.25983
352.92729,1.25640
352.68622,1.25234
352.44515,1.24961
352.20408,1.25026
351.96301,1.25279
351.72194,1.25334
351.48087,1.25153
351.23980,1.25115
350.99873,1.25443
350.75766,1.25963
350.51659,1.26384
350.27552,1.26519
350.03445,1.26347
349.79338,1.26034
349.55231,1.25747
349.31124,1.25490
349.07017,1.25291
348.82910,1.25259
348.58802,1.25385
348.34695,1.25517
348.10588,1.25506
347.86481,1.25373
347.62374,1.25308
347.38267,1.25456
347.14160,1.25773
346.90053,1.26084
346.65946,1.26286
346.41839,1.26412
346.17732,1.26629
345.93625,1.27270
345.69518,1.28516
345.45411,1.30015
345.21304,1.31208
344.97197,1.31951
344.73090,1.32383
344.48983,1.32410
344.24875,1.31845
344.00768,1.30855
343.76661,1.30126
343.52554,1.30384
343.28447,1.31591
343.04340,1.32870
342.80233,1.33365
342.56126,1.32994
342.32019,1.32360
342.07912,1.32171
341.83805,1.32680
341.59698,1.33450
341.35591,1.33840
341.11484,1.33770
340.87377,1.33623
340.63270,1.33616
340.39163,1.33883
340.15056,1.34807
339.90948,1.36665
339.66841,1.39142
339.42734,1.41434
339.18627,1.42840
338.94520,1.43000
338.70413,1.41823
338.46306,1.40020
338.22199,1.39024
337.98092,1.39592
337.73985,1.41044
337.49878,1.42249
337.25771,1.42849
337.01664,1.43018
336.77557,1.42679
336.53450,1.41746
336.29343,1.40721
336.05236,1.40245
335.81129,1.40288
335.57021,1.40131
335.32914,1.39321
335.08807,1.38284
334.84700,1.37798
334.60593,1.38147
334.36486,1.38876
334.12379,1.39360
333.88272,1.39616
333.64165,1.40106
333.40058,1.40542
333.15951,1.39856
332.91844,1.37921
332.67737,1.36165
332.43630,1.35628
332.19523,1.35622
331.95416,1.35154
331.71309,1.34587
331.47202,1.34574
331.23094,1.34638
330.98987,1.34076
330.74880,1.33273
330.50773,1.33067
330.26666,1.33420
330.02559,1.33405
329.78452,1.32624
329.54345,1.31775
329.30238,1.31463
329.06131,1.31390
328.82024,1.30887
328.57917,1.29994
328.33810,1.29358
328.09703,1.29455
327.85596,1.30136
327.61489,1.30690
327.37382,1.30556
327.13275,1.29997
326.89167,1.29809
326.65060,1.30472
326.40953,1.31606
326.16846,1.32255
325.92739,1.31882
325.68632,1.30874
325.44525,1.29900
325.20418,1.29225
324.96311,1.28891
324.72204,1.28988
324.48097,1.29361
324.23990,1.29638
323.99883,1.29963
323.75776,1.31067
323.51669,1.32947
323.27562,1.34057
323.03455,1.32986
322.79348,1.30747
322.55240,1.29377
322.31133,1.29475
322.07026,1.30267
321.82919,1.30848
321.58812,1.30999
321.34705,1.31206
321.10598,1.31803
320.86491,1.32064
320.62384,1.31185
320.38277,1.30007
320.14170,1.29746
319.90063,1.30147
319.65956,1.30485
319.41849,1.31062
319.17742,1.32286
318.93635,1.33409
318.69528,1.33354
318.45421,1.32100
318.21313,1.30405
317.97206,1.29050
317.73099,1.28642
317.48992,1.29223
317.24885,1.30183
317.00778,1.30611
316.76671,1.30027
316.52564,1.28973
316.28457,1.28497
316.04350,1.29160
315.80243,1.30769
315.56136,1.32580
315.32029,1.33628
315.07922,1.33760
314.83815,1.34002
314.59708,1.35071
314.35601,1.36360
314.11494,1.37114
313.87386,1.37565
313.63279,1.37842
313.39172,1.37439
313.15065,1.36295
312.90958,1.35119
312.66851,1.34569
312.42744,1.34502
312.18637,1.34253
311.94530,1.33730
311.70423,1.33635
311.46316,1.34304
311.22209,1.35266
310.98102,1.36033
310.73995,1.36819
310.49888,1.38281
310.25781,1.40706
310.01674,1.43474
309.77567,1.45243
309.53459,1.45169
309.29352,1.43819
309.05245,1.42348
308.81138,1.41318
308.57031,1.40545
308.32924,1.40122
308.08817,1.40602
307.84710,1.42127
307.60603,1.43917
307.36496,1.44753
307.12389,1.44144
306.88282,1.42674
306.64175,1.41011
306.40068,1.39296
306.15961,1.37660
305.91854,1.36574
305.67747,1.36346
305.43640,1.36657
305.19532,1.36972
304.95425,1.37149
304.71318,1.37209
304.47211,1.36969
304.23104,1.36400
303.98997,1.35779
303.74890,1.35217
303.50783,1.34597
303.26676,1.34073
303.02569,1.34094
302.78462,1.34695
302.54355,1.35103
302.30248,1.34579
302.06141,1.33442
301.82034,1.32593
301.57927,1.32309
301.33820,1.32094
301.09713,1.31510
300.85605,1.30498
300.61498,1.29160
300.37391,1.27841
300.13284,1.27246
299.89177,1.27826
299.65070,1.28983
299.40963,1.29453
299.16856,1.28759
298.92749,1.27675
298.68642,1.27012
298.44535,1.26819
298.20428,1.26792
297.96321,1.26683
297.72214,1.26391
297.48107,1.26027
297.24000,1.25778
296.99893,1.25558
296.75786,1.25120
296.51678,1.24530
296.27571,1.24108
296.03464,1.23920
295.79357,1.23681
295.55250,1.23091
295.31143,1.22161
295.07036,1.21268
294.82929,1.20932
294.58822,1.21320
294.34715,1.21987
294.10608,1.22361
293.86501,1.22280
293.62394,1.21896
293.38287,1.21420
293.14180,1.20962
292.90073,1.20384
292.65966,1.19511
292.41859,1.18515
292.17751,1.17772
291.93644,1.17396
291.69537,1.17160
291.45430,1.16878
291.21323,1.16668
290.97216,1.16713
290.73109,1.16905
290.49002,1.16873
290.24895,1.16383
290.00788,1.15606
289.76681,1.14966
289.52574,1.14795
289.28467,1.15098
289.04360,1.15528
288.80253,1.15672
288.56146,1.15442
288.32039,1.15063
288.07932,1.14716
287.83824,1.14397
287.59717,1.14117
287.35610,1.13997
287.11503,1.14049
286.87396,1.14065
286.63289,1.13819
286.39182,1.13355
286.15075,1.12981
285.90968,1.13026
285.66861,1.13526
285.42754,1.14054
285.18647,1.14075
284.94540,1.13562
284.70433,1.12986
284.46326,1.12675
284.22219,1.12547
283.98112,1.12401
283.74005,1.12193
283.49897,1.12008
283.25790,1.11928
283.01683,1.11962
282.77576,1.12075
282.53469,1.12237
282.29362,1.12348
282.05255,1.12164
281.81148,1.11549
281.57041,1.10826
281.32934,1.10578
281.08827,1.11050
280.84720,1.11926
280.60613,1.12737
280.36506,1.13282
280.12399,1.13521
279.88292,1.13331
279.64185,1.12633
279.40078,1.11689
279.15970,1.11007
278.91863,1.10930
278.67756,1.11385
278.43649,1.11972
278.19542,1.12354
277.95435,1.12582
277.71328,1.12902
277.47221,1.13301
277.23114,1.13456
276.99007,1.13159
276.74900,1.12683
276.50793,1.12558
276.26686,1.12926
276.02579,1.13288
275.78472,1.13135
275.54365,1.12659
275.30258,1.12378
275.06151,1.12344
274.82043,1.12264
274.57936,1.12115
274.33829,1.12153
274.09722,1.12496
273.85615,1.13011
273.61508,1.13492
273.37401,1.13817
273.13294,1.14004
272.89187,1.14113
272.65080,1.14155
272.40973,1.14124
272.16866,1.13975
271.92759,1.13641
271.68652,1.13267
271.44545,1.13201
271.20438,1.13577
270.96331,1.14240
270.72224,1.15093
270.48116,1.16136
270.24009,1.17186
269.99902,1.17877
269.75795,1.17907
269.51688,1.17320
269.27581,1.16631
269.03474,1.16523
268.79367,1.17218
268.55260,1.18279
268.31153,1.19192
268.07046,1.19970
267.82939,1.20822
267.58832,1.21570
267.34725,1.21886
267.10618,1.21934
266.86511,1.22172
266.62404,1.22667
266.38297,1.23080
266.14189,1.23208
265.90082,1.23265
265.65975,1.23668
265.41868,1.24597
265.17761,1.25737
264.93654,1.26623
264.69547,1.27315
264.45440,1.28334
264.21333,1.29823
263.97226,1.31318
263.73119,1.32501
263.49012,1.33644
263.24905,1.35020
263.00798,1.36454
262.76691,1.37694
262.52584,1.38862
262.28477,1.40301
262.04370,1.42101
261.80262,1.43915
261.56155,1.45488
261.32048,1.47047
261.07941,1.48919
260.83834,1.51154
260.59727,1.53329
260.35620,1.55020
260.11513,1.56273
259.87406,1.57331
259.63299,1.58406
259.39192,1.59918
259.15085,1.62506
258.90978,1.66454
258.66871,1.71049
258.42764,1.74907
258.18657,1.77461
257.94550,1.79418
257.70443,1.81498
257.46335,1.83607
257.22228,1.85145
256.98121,1.85596
256.74014,1.84874
256.49907,1.84035
256.25800,1.84179
256.01693,1.84819
255.77586,1.84864
255.53479,1.83950
255.29372,1.82397
255.05265,1.80244
254.81158,1.77255
254.57051,1.73868
254.32944,1.70977
254.08837,1.69053
253.84730,1.68048
253.60623,1.67436
253.36516,1.66578
253.12408,1.65552
252.88301,1.64827
252.64194,1.64536
252.40087,1.64292
252.15980,1.63842
251.91873,1.63688
251.67766,1.64302
251.43659,1.65195
251.19552,1.65413
250.95445,1.64735
250.71338,1.63485
250.47231,1.61921
250.23124,1.60575
249.99017,1.59981
249.74910,1.59857
249.50803,1.59437
249.26696,1.58609
249.02589,1.57983
248.78481,1.57862
248.54374,1.57996
248.30267,1.58286
248.06160,1.58866
247.82053,1.59455
247.57946,1.59559
247.33839,1.59340
247.09732,1.59350
246.85625,1.59783
246.61518,1.60698
246.37411,1.62339
246.13304,1.64370
245.89197,1.65528
245.65090,1.65234
245.40983,1.64762
245.16876,1.65776
244.92769,1.68617
244.68661,1.72551
244.44554,1.77118
244.20447,1.82463
243.96340,1.88246
243.72233,1.93352
243.48126,1.96768
243.24019,1.98424
242.99912,2.00083
242.75805,2.03434
242.51698,2.02660
242.27591,1.90231
242.03484,1.77338
241.79377,1.67838
241.55270,1.61068
241.31163,1.55401
241.07056,1.49822
240.82949,1.44620
240.58842,1.40404
240.34734,1.37033
240.10627,1.33794
239.86520,1.30183
239.62413,1.26301
239.38306,1.22680
239.14199,1.19754
238.90092,1.17462
238.65985,1.15359
238.41878,1.13140
238.17771,1.10956
237.93664,1.09028
237.69557,1.07186
237.45450,1.05235
237.21343,1.03456
236.97236,1.02242
236.73129,1.01458
236.49022,1.00554
236.24915,0.99226
236.00807,0.97670
235.76700,0.96293
235.52593,0.95357
235.28486,0.94803
235.04379,0.94358
234.80272,0.93870
234.56165,0.93414
234.32058,0.93075
234.07951,0.92786
233.83844,0.92406
233.59737,0.91879
233.35630,0.91328
233.11523,0.90927
232.87416,0.90709
232.63309,0.90587
232.39202,0.90476
232.15095,0.90307
231.90988,0.90038
231.66880,0.89713
231.42773,0.89377
231.18666,0.88963
230.94559,0.88461
230.70452,0.88080
230.46345,0.87949
230.22238,0.87875
229.98131,0.87703
229.74024,0.87583
229.49917,0.87559
229.25810,0.87309
229.01703,0.86675
228.77596,0.86055
228.53489,0.85878
228.29382,0.86006
228.05275,0.85946
227.81168,0.85498
227.57061,0.84900
227.32953,0.84435
227.08846,0.84178
226.84739,0.84068
226.60632,0.83947
226.36525,0.83674
226.12418,0.83347
225.88311,0.83195
225.64204,0.83191
225.40097,0.83109
225.15990,0.82930
224.91883,0.82837
224.67776,0.82856
224.43669,0.82816
224.19562,0.82669
223.95455,0.82587
223.71348,0.82740
223.47241,0.83141
223.23134,0.83740
222.99026,0.84480
222.74919,0.85164
222.50812,0.85498
222.26705,0.85450
222.02598,0.85341
221.78491,0.85466
221.54384,0.85856
221.30277,0.86396
221.06170,0.86981
220.82063,0.87595
220.57956,0.88320
220.33849,0.89203
220.09742,0.90169
219.85635,0.91131
219.61528,0.92063
219.37421,0.92934
219.13314,0.93747
218.89207,0.94603
218.65099,0.95498
218.40992,0.96242
218.16885,0.96788
217.92778,0.97390
217.68671,0.98242
217.44564,0.99275
217.20457,1.00468
216.96350,1.01931
216.72243,1.03557
216.48136,1.05022
216.24029,1.06222
215.99922,1.07261
215.75815,1.08105
215.51708,1.08695
215.27601,1.09199
215.03494,1.09870
214.79387,1.10833
214.55280,1.12025
214.31172,1.13194
214.07065,1.14107
213.82958,1.14848
213.58851,1.15708
213.34744,1.16844
213.10637,1.18251
212.86530,1.19877
212.62423,1.21529
212.38316,1.22790
212.14209,1.23245
211.90102,1.22869
211.65995,1.22153
211.41888,1.21794
211.17781,1.22087
210.93674,1.22765
210.69567,1.23550
210.45460,1.24460
210.21353,1.25321
209.97245,1.25557
209.73138,1.25007
209.49031,1.24281
209.24924,1.23797
209.00817,1.23318
208.76710,1.22747
208.52603,1.22406
208.28496,1.22320
208.04389,1.22104
207.80282,1.21549
207.56175,1.20682
207.32068,1.19466
207.07961,1.17907
206.83854,1.16234
206.59747,1.14692
206.35640,1.13354
206.11533,1.12240
205.87426,1.11409
205.63318,1.10822
205.39211,1.10233
205.15104,1.09337
204.90997,1.08062
204.66890,1.06591
204.42783,1.05133
204.18676,1.03760
203.94569,1.02439
203.70462,1.01152
203.46355,0.99997
203.22248,0.99085
202.98141,0.98301
202.74034,0.97278
202.49927,0.95815
202.25820,0.94195
202.01713,0.92795
201.77606,0.91661
201.53499,0.90631
201.29391,0.89588
201.05284,0.88448
200.81177,0.87127
200.57070,0.85695
200.32963,0.84383
200.08856,0.83355
199.84749,0.82583
199.60642,0.81958
199.36535,0.81340
199.12428,0.80558
198.88321,0.79537
198.64214,0.78422
198.40107,0.77438
198.16000,0.76682
197.91893,0.76113
197.67786,0.75609
197.43679,0.75002
197.19572,0.74185
196.95464,0.73191
196.71357,0.72119
196.47250,0.71067
196.23143,0.70171
195.99036,0.69537
195.74929,0.69076
195.50822,0.68565
195.26715,0.67885
195.02608,0.67118
194.78501,0.66422
194.54394,0.65876
194.30287,0.65434
194.06180,0.64980
193.82073,0.64442
193.57966,0.63866
193.33859,0.63356
193.09752,0.62947
192.85645,0.62572
192.61537,0.62167
192.37430,0.61759
192.13323,0.61408
191.89216,0.61100
191.65109,0.60773
191.41002,0.60432
191.16895,0.60169
190.92788,0.60005
190.68681,0.59780
190.44574,0.59331
190.20467,0.58762
189.96360,0.58356
189.72253,0.58235
189.48146,0.58227
189.24039,0.58073
188.99932,0.57709
188.75825,0.57328
188.51718,0.57157
188.27610,0.57195
188.03503,0.57194
187.79396,0.56961
187.55289,0.56631
187.31182,0.56498
187.07075,0.56612
186.82968,0.56686
186.58861,0.56486
186.34754,0.56170
186.10647,0.56055
185.86540,0.56198
185.62433,0.56373
185.38326,0.56360
185.14219,0.56194
184.90112,0.56081
184.66005,0.56135
184.41898,0.56301
184.17791,0.56523
183.93683,0.56786
183.69576,0.56975
183.45469,0.56907
183.21362,0.56651
182.97255,0.56583
182.73148,0.56932
182.49041,0.57439
182.24934,0.57690
182.00827,0.57659
181.76720,0.57626
181.52613,0.57710
181.28506,0.57818
181.04399,0.57928
180.80292,0.58117
180.56185,0.58393
180.32078,0.58712
180.07971,0.59080
179.83864,0.59503
179.59756,0.59929
179.35649,0.60342
179.11542,0.60817
178.87435,0.61394
178.63328,0.61989
178.39221,0.62570
178.15114,0.63278
177.91007,0.64203
177.66900,0.65197
177.42793,0.66105
177.18686,0.67015
176.94579,0.68061
176.70472,0.69242
176.46365,0.70562
176.22258,0.72092
175.98151,0.73775
175.74044,0.75381
175.49937,0.76748
175.25829,0.77963
175.01722,0.79246
174.77615,0.80687
174.53508,0.82162
174.29401,0.83594
174.05294,0.85167
173.81187,0.87057
173.57080,0.89077
173.32973,0.90869
173.08866,0.92328
172.84759,0.93589
172.60652,0.94727
172.36545,0.95704
172.12438,0.96431
171.88331,0.96763
171.64224,0.96643
171.40117,0.96219
171.16010,0.95672
170.91902,0.95089
170.67795,0.94554
170.43688,0.94094
170.19581,0.93559
169.95474,0.92858
169.71367,0.92132
169.47260,0.91470
169.23153,0.90787
168.99046,0.90108
168.74939,0.89613
168.50832,0.89415
168.26725,0.89456
168.02618,0.89518
167.78511,0.89363
167.54404,0.89059
167.30297,0.88978
167.06190,0.89277
166.82083,0.89694
166.57975,0.90032
166.33868,0.90414
166.09761,0.90847
165.85654,0.91003
165.61547,0.90702
165.37440,0.90264
165.13333,0.90209
164.89226,0.90855
164.65119,0.92212
164.41012,0.93961
164.16905,0.95529
163.92798,0.96492
163.68691,0.96972
163.44584,0.97413
163.20477,0.98005
162.96370,0.98565
162.72263,0.98914
162.48156,0.99140
162.24048,0.99446
161.99941,0.99878
161.75834,1.00294
161.51727,1.00551
161.27620,1.00659
161.03513,1.00781
160.79406,1.01118
160.55299,1.01692
160.31192,1.02235
160.07085,1.02358
159.82978,1.01857
159.58871,1.00850
159.34764,0.99672
159.10657,0.98595
158.86550,0.97646
158.62443,0.96768
158.38336,0.96045
158.14229,0.95630
157.90121,0.95509
157.66014,0.95464
157.41907,0.95297
157.17800,0.94929
156.93693,0.94308
156.69586,0.93415
156.45479,0.92400
156.21372,0.91523
155.97265,0.90936
155.73158,0.90629
155.49051,0.90532
155.24944,0.90483
155.00837,0.90122
154.76730,0.89086
154.52623,0.87391
154.28516,0.85474
154.04409,0.83853
153.80302,0.82771
153.56194,0.82035
153.32087,0.81211
153.07980,0.80065
152.83873,0.78713
152.59766,0.77285
152.35659,0.75702
152.11552,0.73893
151.87445,0.72026
151.63338,0.70378
151.39231,0.69088
151.15124,0.68111
150.91017,0.67272
150.66910,0.66308
150.42803,0.65020
150.18696,0.63514
149.94589,0.62151
149.70482,0.61164
149.46375,0.60473
149.22267,0.59831
148.98160,0.59045
148.74053,0.58085
148.49946,0.57092
148.25839,0.56294
148.01732,0.55843
147.77625,0.55713
147.53518,0.55721
147.29411,0.55669
147.05304,0.55494
146.81197,0.55308
146.57090,0.55261
146.32983,0.55408
146.08876,0.55718
145.84769,0.56130
145.60662,0.56561
145.36555,0.56931
145.12448,0.57236
144.88340,0.57566
144.64233,0.58036
144.40126,0.58669
144.16019,0.59342
143.91912,0.59828
143.67805,0.59919
143.43698,0.59562
143.19591,0.58897
142.95484,0.58185
142.71377,0.57597
142.47270,0.57015
142.23163,0.56170
141.99056,0.55042
141.74949,0.53940
141.50842,0.53148
141.26735,0.52667
141.02628,0.52291
140.78521,0.51836
140.54413,0.51322
140.30306,0.50950
140.06199,0.50862
139.82092,0.50962
139.57985,0.51099
139.33878,0.51313
139.09771,0.51731
138.85664,0.52312
138.61557,0.52894
138.37450,0.53442
138.13343,0.54110
137.89236,0.55029
137.65129,0.56159
137.41022,0.57395
137.16915,0.58731
136.92808,0.60209
136.68701,0.61783
136.44594,0.63383
136.20486,0.65071
135.96379,0.66996
135.72272,0.69219
135.48165,0.71672
135.24058,0.74261
134.99951,0.76968
134.75844,0.79842
134.51737,0.82908
134.27630,0.86123
134.03523,0.89357
133.79416,0.92373
133.55309,0.95029
133.31202,0.97576
133.07095,1.00446
132.82988,1.03579
132.58881,1.06224
132.34774,1.07740
132.10667,1.08452
131.86559,1.09238
131.62452,1.10404
131.38345,1.11397
131.14238,1.11675
130.90131,1.11432
130.66024,1.11003
130.41917,1.10164
130.17810,1.08472
129.93703,1.05900
129.69596,1.02840
129.45489,0.99672
129.21382,0.96470
128.97275,0.93082
128.73168,0.89470
128.49061,0.85885
128.24954,0.82629
128.00847,0.79765
127.76740,0.77204
127.52632,0.74863
127.28525,0.72567
127.04418,0.70083
126.80311,0.67447
126.56204,0.64999
126.32097,0.62993
126.07990,0.61364
125.83883,0.59854
125.59776,0.58291
125.35669,0.56759
125.11562,0.55413
124.87455,0.54216
124.63348,0.53021
124.39241,0.51868
124.15134,0.50914
123.91027,0.50155
123.66920,0.49426
123.42812,0.48618
123.18705,0.47746
122.94598,0.46935
122.70491,0.46349
122.46384,0.46045
122.22277,0.45907
121.98170,0.45816
121.74063,0.45776
121.49956,0.45845
121.25849,0.46059
121.01742,0.46439
120.77635,0.46978
120.53528,0.47623
120.29421,0.48370
120.05314,0.49339
119.81207,0.50639
119.57100,0.52175
119.32993,0.53792
119.08885,0.55539
118.84778,0.57596
118.60671,0.60004
118.36564,0.62672
118.12457,0.65524
117.88350,0.68478
117.64243,0.71393
117.40136,0.74082
117.16029,0.76297
116.91922,0.77783
116.67815,0.78523
116.43708,0.78716
116.19601,0.78461
115.95494,0.77673
115.71387,0.76339
115.47280,0.74694
115.23173,0.73053
114.99066,0.71515
114.74958,0.70002
114.50851,0.68606
114.26744,0.67637
114.02637,0.67276
113.78530,0.67363
113.54423,0.67564
113.30316,0.67658
113.06209,0.67688
112.82102,0.67931
112.57995,0.68557
112.33888,0.69314
112.09781,0.69719
111.85674,0.69616
111.61567,0.69371
111.37460,0.69482
111.13353,0.70110
110.89246,0.71030
110.65139,0.71887
110.41031,0.72402
110.16924,0.72424
109.92817,0.71978
109.68710,0.71188
109.44603,0.70040
109.20496,0.68388
108.96389,0.66273
108.72282,0.63996
108.48175,0.61761
108.24068,0.59497
107.99961,0.57182
107.75854,0.55053
107.51747,0.53327
107.27640,0.51924
107.03533,0.50653
106.79426,0.49507
106.55319,0.48581
106.31212,0.47780
106.07104,0.46826
105.82997,0.45562
105.58890,0.44100
105.34783,0.42623
105.10676,0.41187
104.86569,0.39753
104.62462,0.38357
104.38355,0.37225
104.14248,0.36634
103.90141,0.36613
103.66034,0.36836
103.41927,0.36863
103.17820,0.36418
102.93713,0.35474
102.69606,0.34222
102.45499,0.32991
102.21392,0.32059
101.97285,0.31503
101.73177,0.31238
101.49070,0.31132
101.24963,0.31058
101.00856,0.30887
100.76749,0.30486
100.52642,0.29804
100.28535,0.29006
100.04428,0.28430
99.80321,0.28301
99.56214,0.28505
99.32107,0.28623
99.08000,0.28289
98.83893,0.27601
98.59786,0.27016
98.35679,0.26856
98.11572,0.27064
97.87465,0.27347
97.63358,0.27432
97.39250,0.27256
97.15143,0.27011
96.91036,0.26989
96.66929,0.27368
96.42822,0.28130
96.18715,0.29039
95.94608,0.29678
95.70501,0.29749
95.46394,0.29440
95.22287,0.29355
94.98180,0.29978
94.74073,0.31176
94.49966,0.32209
94.25859,0.32452
94.01752,0.32132
93.77645,0.31998
93.53538,0.32442
93.29431,0.33060
93.05323,0.33151
92.81216,0.32790
92.57109,0.32717
92.33002,0.33182
92.08895,0.33619
91.84788,0.33549
91.60681,0.33331
91.36574,0.33558
91.12467,0.34340
90.88360,0.35564
90.64253,0.37412
90.40146,0.40091
90.16039,0.43183
89.91932,0.46084
89.67825,0.49183
89.43718,0.53377
89.19611,0.58481
88.95504,0.63281
88.71396,0.67085
88.47289,0.69795
88.23182,0.70984
87.99075,0.70406
87.74968,0.68388
87.50861,0.65237
87.26754,0.61309
87.02647,0.57294
86.78540,0.53674
86.54433,0.50439
86.30326,0.47496
86.06219,0.44844
85.82112,0.42413
85.58005,0.40092
85.33898,0.37865
85.09791,0.35770
84.85684,0.33855
84.61577,0.32212
84.37469,0.30906
84.13362,0.29853
83.89255,0.28879
83.65148,0.27881
83.41041,0.26851
83.16934,0.25832
82.92827,0.24915
82.68720,0.24177
82.44613,0.23592
82.20506,0.23110
81.96399,0.22754
81.72292,0.22514
81.48185,0.22262
81.24078,0.21887
80.99971,0.21420
80.75864,0.20977
80.51757,0.20647
80.27650,0.20428
80.03542,0.20213
79.79435,0.19891
79.55328,0.19486
79.31221,0.19134
79.07114,0.18936
78.83007,0.18886
78.58900,0.18902
78.34793,0.18888
78.10686,0.18774
77.86579,0.18541
77.62472,0.18229
77.38365,0.17919
77.14258,0.17672
76.90151,0.17506
76.66044,0.17435
76.41937,0.17477
76.17830,0.17585
75.93723,0.17588
75.69615,0.17314
75.45508,0.16804
75.21401,0.16328
74.97294,0.16132
74.73187,0.16243
74.49080,0.16516
74.24973,0.16750
74.00866,0.16790
73.76759,0.16675
73.52652,0.16656
73.28545,0.16909
73.04438,0.17262
72.80331,0.17339
72.56224,0.17029
72.32117,0.16623
72.08010,0.16484
71.83903,0.16746
71.59796,0.17306
71.35688,0.17965
71.11581,0.18475
70.87474,0.18582
70.63367,0.18221
70.39260,0.17706
70.15153,0.17573
69.91046,0.18232
69.66939,0.19732
69.42832,0.21726
69.18725,0.23586
68.94618,0.24720
68.70511,0.24873
68.46404,0.24120
68.22297,0.22690
67.98190,0.20904
67.74083,0.19140
67.49976,0.17692
67.25869,0.16624
67.01761,0.15832
66.77654,0.15222
66.53547,0.14782
66.29440,0.14498
66.05333,0.14347
65.81226,0.14376
65.57119,0.14656
65.33012,0.15183
65.08905,0.15937
64.84798,0.16969
64.60691,0.18268
64.36584,0.19609
64.12477,0.20629
63.88370,0.21118
63.64263,0.21137
63.40156,0.20835
63.16049,0.20281
62.91942,0.19554
62.67834,0.18766
62.43727,0.17897
62.19620,0.16827
61.95513,0.15620
61.71406,0.14554
61.47299,0.13800
61.23192,0.13248
60.99085,0.12714
60.74978,0.12187
60.50871,0.11829
60.26764,0.11782
60.02657,0.12051
59.78550,0.12528
59.54443,0.13056
59.30336,0.13510
59.06229,0.13900
58.82122,0.14320
58.58015,0.14799
58.33907,0.15315
58.09800,0.15937
57.85693,0.16736
57.61586,0.17554
57.37479,0.17999
57.13372,0.17757
56.89265,0.16855
56.65158,0.15569
56.41051,0.14189
56.16944,0.12966
55.92837,0.12076
55.68730,0.11522
55.44623,0.11153
55.20516,0.10865
54.96409,0.10775
54.72302,0.11153
54.48195,0.12205
54.24088,0.13944
53.99980,0.16166
53.75873,0.18409
53.51766,0.19927
53.27659,0.20115
53.03552,0.19045
52.79445,0.17203
52.55338,0.15051
52.31231,0.13108
52.07124,0.12093
51.83017,0.12674
51.58910,0.14978
51.34803,0.18187
51.10696,0.20461
50.86589,0.19968
50.62482,0.17079
50.38375,0.13875
50.14268,0.11826
49.90161,0.11396
49.66053,0.12598
49.41946,0.15197
49.17839,0.17937
48.93732,0.18150
48.69625,0.15240
48.45518,0.12162
48.21411,0.11493
47.97304,0.14181
47.73197,0.18973
47.49090,0.20320
47.24983,0.14810
47.00876,0.09108
46.76769,0.07903
46.52662,0.10919
46.28555,0.13963
46.04448,0.12438
45.80341,0.09651
45.56234,0.09975
45.32126,0.12450
45.08019,0.13383
44.83912,0.12539
44.59805,0.12545
44.35698,0.13386
44.11591,0.13611
43.87484,0.13856
43.63377,0.14872
43.39270,0.15565
43.15163,0.15429
42.91056,0.15522
42.66949,0.15950
42.42842,0.16185
42.18735,0.16377
41.94628,0.16465
41.70521,0.16025
41.46414,0.15376
41.22307,0.15192
40.98199,0.15644
40.74092,0.16398
40.49985,0.17012
40.25878,0.17219
40.01771,0.17248
39.77664,0.17625
39.53557,0.18327
39.29450,0.18821
39.05343,0.19145
38.81236,0.19944
38.57129,0.21319
38.33022,0.22674
38.08915,0.23699
37.84808,0.24293
37.60701,0.24010
37.36594,0.22841
37.12487,0.21613
36.88380,0.20907
36.64272,0.20746
36.40165,0.21004
36.16058,0.21204
35.91951,0.20886
35.67844,0.20441
35.43737,0.20619
35.19630,0.21419
34.95523,0.22120
34.71416,0.22135
34.47309,0.21440
34.23202,0.20371
33.99095,0.19194
33.74988,0.17843
33.50881,0.16421
33.26774,0.15682
33.02667,0.16329
32.78560,0.17918
32.54453,0.19062
32.30345,0.18872
32.06238,0.17788
31.82131,0.16564
31.58024,0.15198
31.33917,0.13434
31.09810,0.11590
30.85703,0.10460
30.61596,0.10338
30.37489,0.10663
30.13382,0.10843
29.89275,0.10869
29.65168,0.10901
29.41061,0.10810
29.16954,0.10379
28.92847,0.09449
28.68740,0.07971
28.44633,0.06328
28.20526,0.04978
27.96418,0.03650
27.72311,0.01894
27.48204,-0.00116
27.24097,-0.01843
26.99990,-0.02669
26.75883,-0.01958
26.51776,-0.00033
26.27669,0.01353
26.03562,0.01067
25.79455,0.00078
25.55348,-0.00460
25.31241,-0.00915
25.07134,-0.02210
24.83027,-0.04201
24.58920,-0.05744
24.34813,-0.06312
24.10706,-0.06889
23.86599,-0.08592
23.62491,-0.11031
23.38384,-0.12696
23.14277,-0.12909
22.90170,-0.12675
22.66063,-0.13302
22.41956,-0.14811
22.17849,-0.16165
21.93742,-0.17040
21.69635,-0.18394
21.45528,-0.21062
21.21421,-0.24102
20.97314,-0.25094
20.73207,-0.23283
20.49100,-0.20928
20.24993,-0.20283
20.00886,-0.21337
19.76779,-0.23103
19.52672,-0.25313
19.28564,-0.27747
19.04457,-0.29381
18.80350,-0.29112
18.56243,-0.27408
18.32136,-0.25622
18.08029,-0.24705
17.83922,-0.25027
17.59815,-0.25728
17.35708,-0.25856
17.11601,-0.25547
16.87494,-0.25255
16.63387,-0.25412
16.39280,-0.25899
16.15173,-0.25873
15.91066,-0.25301
15.66959,-0.24980
15.42852,-0.25283
15.18745,-0.25765
14.94637,-0.26072
14.70530,-0.26953
14.46423,-0.28671
14.22316,-0.30595
13.98209,-0.32881
13.74102,-0.35388
13.49995,-0.36969
13.25888,-0.37448
13.01781,-0.36035
12.77674,-0.33329
12.53567,-0.31741
12.29460,-0.30806
12.05353,-0.29361
11.81246,-0.27719
11.57139,-0.26888
11.33032,-0.26979
11.08925,-0.27151
10.84818,-0.26995
10.60710,-0.27176
10.36603,-0.28342
10.12496,-0.29672
9.88389,-0.29731
9.64282,-0.28835
9.40175,-0.28778
9.16068,-0.30113
8.91961,-0.31184
8.67854,-0.30366
8.43747,-0.28506
8.19640,-0.27537
7.95533,-0.28233
7.71426,-0.30528
7.47319,-0.33573
7.23212,-0.35167
6.99105,-0.33919
6.74998,-0.31589
6.50891,-0.30145
6.26783,-0.29454
6.02676,-0.28851
5.78569,-0.28159
5.54462,-0.27360
5.30355,-0.27523
5.06248,-0.29352
4.82141,-0.31034
4.58034,-0.30834
4.33927,-0.29360
4.09820,-0.28375
3.85713,-0.28896
3.61606,-0.30427
3.37499,-0.31659
3.13392,-0.31856
2.89285,-0.31629
2.65178,-0.31093
2.41071,-0.30512
2.16964,-0.30733
1.92856,-0.30502
1.68749,-0.29083
1.44642,-0.28007
1.20535,-0.28191
0.96428,-0.29705
0.72321,-0.34906
0.48214,-0.44004
0.24107,-0.42686
-0.00000,-0.24116
