399.69498,1.49284
399.45391,1.49071
399.21284,1.48631
398.97177,1.47932
398.73070,1.47472
398.48963,1.47512
398.24856,1.47751
398.00749,1.48006
397.76642,1.48453
397.52535,1.48821
397.28428,1.48234
397.04321,1.46550
396.80214,1.44967
396.56107,1.44698
396.32000,1.45830
396.07892,1.47470
395.83785,1.48409
395.59678,1.47965
395.35571,1.46662
395.11464,1.45546
394.87357,1.44972
394.63250,1.44569
394.39143,1.43898
394.15036,1.43005
393.90929,1.42660
393.66822,1.43638
393.42715,1.45415
393.18608,1.46261
392.94501,1.45386
392.70394,1.43977
392.46287,1.43356
392.22180,1.43658
391.98073,1.44328
391.73965,1.44877
391.49858,1.45130
391.25751,1.45134
391.01644,1.44900
390.77537,1.44409
390.53430,1.43859
390.29323,1.43534
390.05216,1.43297
389.81109,1.42678
389.57002,1.41460
389.32895,1.39943
389.08788,1.38972
388.84681,1.39275
388.60574,1.40619
388.36467,1.41929
388.12360,1.42427
387.88253,1.42363
387.64146,1.42431
387.40038,1.42726
387.15931,1.42562
386.91824,1.41372
386.67717,1.39520
386.43610,1.38073
386.19503,1.37560
385.95396,1.37117
385.71289,1.35593
385.47182,1.33290
385.23075,1.31537
384.98968,1.30858
384.74861,1.30639
384.50754,1.30387
384.26647,1.30317
384.02540,1.30574
383.78433,1.30550
383.54326,1.29523
383.30219,1.27770
383.06111,1.26165
382.82004,1.24989
382.57897,1.24138
382.33790,1.23745
382.09683,1.23705
381.85576,1.23350
381.61469,1.22403
381.37362,1.21718
381.13255,1.22065
380.89148,1.22746
380.65041,1.22180
380.40934,1.20117
380.16827,1.18144
379.92720,1.17704
379.68613,1.18924
379.44506,1.20971
379.20399,1.22740
378.96292,1.23712
378.72184,1.24352
378.48077,1.25055
378.23970,1.25510
377.99863,1.25455
377.75756,1.25267
377.51649,1.25484
377.27542,1.26425
377.03435,1.27876
376.79328,1.29040
376.55221,1.29550
376.31114,1.29804
376.07007,1.30113
375.82900,1.30316
375.58793,1.30230
375.34686,1.30251
375.10579,1.30866
374.86472,1.31750
374.62365,1.32205
374.38257,1.32242
374.14150,1.32564
373.90043,1.33592
373.65936,1.34900
373.41829,1.35711
373.17722,1.35718
372.93615,1.35144
372.69508,1.34202
372.45401,1.33071
372.21294,1.32240
371.97187,1.32171
371.73080,1.32623
371.48973,1.32841
371.24866,1.32620
371.00759,1.32459
370.76652,1.32625
370.52545,1.32748
370.28437,1.32479
370.04330,1.32143
369.80223,1.32098
369.56116,1.31863
369.32009,1.30667
369.07902,1.28765
368.83795,1.27268
368.59688,1.26753
368.35581,1.26818
368.11474,1.26912
367.87367,1.26885
367.63260,1.26758
367.39153,1.26491
367.15046,1.26051
366.90939,1.25525
366.66832,1.25115
366.42725,1.24851
366.18618,1.24500
365.94510,1.23854
365.70403,1.22912
365.46296,1.21839
365.22189,1.20950
364.98082,1.20597
364.73975,1.20951
364.49868,1.21933
364.25761,1.23234
364.01654,1.24220
363.77547,1.24132
363.53440,1.22896
363.29333,1.21435
363.05226,1.20822
362.81119,1.21326
362.57012,1.22296
362.32905,1.22804
362.08798,1.22404
361.84691,1.21394
361.60583,1.20464
361.36476,1.20102
361.12369,1.20302
360.88262,1.20758
360.64155,1.21168
360.40048,1.21268
360.15941,1.20888
359.91834,1.20129
359.67727,1.19391
359.43620,1.19182
359.19513,1.19677
358.95406,1.20474
358.71299,1.20878
358.47192,1.20531
358.23085,1.19727
357.98978,1.19061
357.74871,1.18811
357.50764,1.18809
357.26656,1.18859
357.02549,1.18904
356.78442,1.18774
356.54335,1.18242
356.30228,1.17399
356.06121,1.16657
355.82014,1.16396
355.57907,1.16669
355.33800,1.17117
355.09693,1.17233
354.85586,1.16904
354.61479,1.16475
354.37372,1.16276
354.13265,1.16407
353.89158,1.16816
353.65051,1.17219
353.40944,1.17286
353.16837,1.17103
352.92729,1.17034
352.68622,1.17202
352.44515,1.17467
352.20408,1.17680
351.96301,1.17660
351.72194,1.17228
351.48087,1.16609
351.23980,1.16405
350.99873,1.16937
350.75766,1.17937
350.51659,1.18941
350.27552,1.19739
350.03445,1.20272
349.79338,1.20400
349.55231,1.20043
349.31124,1.19522
349.07017,1.19380
348.82910,1.19608
348.58802,1.19649
348.34695,1.19289
348.10588,1.18945
347.86481,1.19127
347.62374,1.19876
347.38267,1.20680
347.14160,1.20989
346.90053,1.20795
346.65946,1.20564
346.41839,1.20718
346.17732,1.21224
345.93625,1.21651
345.69518,1.21772
345.45411,1.21919
345.21304,1.22379
344.97197,1.22791
344.73090,1.22725
344.48983,1.22438
344.24875,1.22362
344.00768,1.22439
343.76661,1.22564
343.52554,1.22962
343.28447,1.23767
343.04340,1.24830
342.80233,1.25989
342.56126,1.27064
342.32019,1.27809
342.07912,1.28323
341.83805,1.29017
341.59698,1.29811
341.35591,1.30112
341.11484,1.29822
340.87377,1.29640
340.63270,1.30134
340.39163,1.31122
340.15056,1.31991
339.90948,1.32231
339.66841,1.31509
339.42734,1.29899
339.18627,1.28195
338.94520,1.27314
338.70413,1.27524
338.46306,1.28470
338.22199,1.29762
337.98092,1.31201
337.73985,1.32522
337.49878,1.33656
337.25771,1.34766
337.01664,1.35575
336.77557,1.35433
336.53450,1.34119
336.29343,1.32171
336.05236,1.30523
335.81129,1.29934
335.57021,1.30528
335.32914,1.31715
335.08807,1.32737
334.84700,1.33411
334.60593,1.33983
334.36486,1.34359
334.12379,1.34001
333.88272,1.32913
333.64165,1.32005
333.40058,1.31741
333.15951,1.31492
332.91844,1.30512
332.67737,1.29047
332.43630,1.27969
332.19523,1.27593
331.95416,1.27632
331.71309,1.27734
331.47202,1.27472
331.23094,1.26429
330.98987,1.24774
330.74880,1.23363
330.50773,1.22774
330.26666,1.22639
330.02559,1.22234
329.78452,1.21299
329.54345,1.20182
329.30238,1.19442
329.06131,1.19391
328.82024,1.19790
328.57917,1.20216
328.33810,1.20796
328.09703,1.21922
327.85596,1.23458
327.61489,1.24622
327.37382,1.24717
327.13275,1.23871
326.89167,1.22900
326.65060,1.22469
326.40953,1.22622
326.16846,1.23074
325.92739,1.23654
325.68632,1.24291
325.44525,1.24733
325.20418,1.24570
324.96311,1.23687
324.72204,1.22496
324.48097,1.21548
324.23990,1.21105
323.99883,1.21206
323.75776,1.21932
323.51669,1.23236
323.27562,1.24501
323.03455,1.24748
322.79348,1.23808
322.55240,1.22874
322.31133,1.23148
322.07026,1.24378
321.82919,1.25139
321.58812,1.24665
321.34705,1.23845
321.10598,1.23864
320.86491,1.24691
320.62384,1.25362
320.38277,1.25416
320.14170,1.25302
319.90063,1.25439
319.65956,1.25822
319.41849,1.26480
319.17742,1.27447
318.93635,1.28057
318.69528,1.27343
318.45421,1.25456
318.21313,1.23661
317.97206,1.22937
317.73099,1.23279
317.48992,1.24269
317.24885,1.25450
317.00778,1.26025
316.76671,1.25169
316.52564,1.23264
316.28457,1.21891
316.04350,1.22091
315.80243,1.23512
315.56136,1.25249
315.32029,1.26660
315.07922,1.27325
314.83815,1.27037
314.59708,1.26116
314.35601,1.25304
314.11494,1.25183
313.87386,1.25886
313.63279,1.27119
313.39172,1.28226
313.15065,1.28490
312.90958,1.27808
312.66851,1.27103
312.42744,1.27658
312.18637,1.29550
311.94530,1.31100
311.70423,1.30947
311.46316,1.29946
311.22209,1.29582
310.98102,1.30152
310.73995,1.31438
310.49888,1.33067
310.25781,1.34027
310.01674,1.33637
309.77567,1.32568
309.53459,1.31739
309.29352,1.31227
309.05245,1.30891
308.81138,1.31109
308.57031,1.32331
308.32924,1.34217
308.08817,1.35459
307.84710,1.34860
307.60603,1.32747
307.36496,1.30806
307.12389,1.30368
306.88282,1.31248
306.64175,1.32195
306.40068,1.32250
306.15961,1.31585
305.91854,1.30876
305.67747,1.30337
305.43640,1.29679
305.19532,1.28783
304.95425,1.28104
304.71318,1.28158
304.47211,1.28749
304.23104,1.29048
303.98997,1.28564
303.74890,1.27621
303.50783,1.26616
303.26676,1.25611
303.02569,1.24917
302.78462,1.25117
302.54355,1.26015
302.30248,1.26469
302.06141,1.25803
301.82034,1.24554
301.57927,1.23567
301.33820,1.23301
301.09713,1.23800
300.85605,1.24492
300.61498,1.24436
300.37391,1.23452
300.13284,1.22415
299.89177,1.21978
299.65070,1.21797
299.40963,1.21356
299.16856,1.20838
298.92749,1.20712
298.68642,1.21123
298.44535,1.21793
298.20428,1.22007
297.96321,1.21074
297.72214,1.19229
297.48107,1.17539
297.24000,1.16842
296.99893,1.17160
296.75786,1.17885
296.51678,1.18294
296.27571,1.18035
296.03464,1.17286
295.79357,1.16455
295.55250,1.15795
295.31143,1.15270
295.07036,1.14732
294.82929,1.14163
294.58822,1.13691
294.34715,1.13381
294.10608,1.13108
293.86501,1.12773
293.62394,1.12580
293.38287,1.12833
293.14180,1.13393
292.90073,1.13630
292.65966,1.13188
292.41859,1.12456
292.17751,1.11969
291.93644,1.11737
291.69537,1.11462
291.45430,1.11110
291.21323,1.10904
290.97216,1.10964
290.73109,1.11188
290.49002,1.11308
290.24895,1.11048
290.00788,1.10338
289.76681,1.09398
289.52574,1.08542
289.28467,1.07896
289.04360,1.07404
288.80253,1.07103
288.56146,1.07174
288.32039,1.07627
288.07932,1.08149
287.83824,1.08495
287.59717,1.08758
287.35610,1.08969
287.11503,1.08854
286.87396,1.08313
286.63289,1.07683
286.39182,1.07290
286.15075,1.07063
285.90968,1.06739
285.66861,1.06354
285.42754,1.06288
285.18647,1.06728
284.94540,1.07307
284.70433,1.07491
284.46326,1.07235
284.22219,1.06903
283.98112,1.06680
283.74005,1.06392
283.49897,1.05900
283.25790,1.05421
283.01683,1.05314
282.77576,1.05623
282.53469,1.06027
282.29362,1.06258
282.05255,1.06359
281.81148,1.06419
281.57041,1.06383
281.32934,1.06269
281.08827,1.06282
280.84720,1.06500
280.60613,1.06722
280.36506,1.06779
280.12399,1.06793
279.88292,1.06917
279.64185,1.07041
279.40078,1.06944
279.15970,1.06638
278.91863,1.06399
278.67756,1.06464
278.43649,1.06764
278.19542,1.06976
277.95435,1.06861
277.71328,1.06562
277.47221,1.06440
277.23114,1.06627
276.99007,1.06947
276.74900,1.07245
276.50793,1.07527
276.26686,1.07774
276.02579,1.07862
275.78472,1.07729
275.54365,1.07455
275.30258,1.07174
275.06151,1.07000
274.82043,1.06962
274.57936,1.07018
274.33829,1.07125
274.09722,1.07209
273.85615,1.07135
273.61508,1.06934
273.37401,1.06885
273.13294,1.07123
272.89187,1.07424
272.65080,1.07601
272.40973,1.07816
272.16866,1.08269
271.92759,1.08867
271.68652,1.09428
271.44545,1.09953
271.20438,1.10449
270.96331,1.10739
270.72224,1.10670
270.48116,1.10378
270.24009,1.10185
269.99902,1.10313
269.75795,1.10742
269.51688,1.11260
269.27581,1.11613
269.03474,1.11720
268.79367,1.11807
268.55260,1.12228
268.31153,1.13101
268.07046,1.14132
267.82939,1.14870
267.58832,1.15213
267.34725,1.15495
267.10618,1.16009
266.86511,1.16708
266.62404,1.17368
266.38297,1.17789
266.14189,1.17931
265.90082,1.18064
265.65975,1.18569
265.41868,1.19499
265.17761,1.20469
264.93654,1.21183
264.69547,1.21893
264.45440,1.23003
264.21333,1.24437
263.97226,1.25754
263.73119,1.26741
263.49012,1.27570
263.24905,1.28511
263.00798,1.29748
262.76691,1.31259
262.52584,1.32703
262.28477,1.33720
262.04370,1.34455
261.80262,1.35414
261.56155,1.36877
261.32048,1.38837
261.07941,1.41257
260.83834,1.44018
260.59727,1.46819
260.35620,1.49359
260.11513,1.51420
259.87406,1.52917
259.63299,1.54185
259.39192,1.55908
259.15085,1.58514
258.90978,1.61981
258.66871,1.66049
258.42764,1.70189
258.18657,1.73549
257.94550,1.75506
257.70443,1.76300
257.46335,1.76723
257.22228,1.77234
256.98121,1.77845
256.74014,1.78574
256.49907,1.79228
256.25800,1.78874
256.01693,1.76735
255.77586,1.73343
255.53479,1.69896
255.29372,1.67341
255.05265,1.66364
254.81158,1.66668
254.57051,1.66543
254.32944,1.64777
254.08837,1.62138
253.84730,1.60148
253.60623,1.59397
253.36516,1.59531
253.12408,1.60005
252.88301,1.60263
252.64194,1.59677
252.40087,1.58289
252.15980,1.57045
251.91873,1.56555
251.67766,1.56394
251.43659,1.55909
251.19552,1.54890
250.95445,1.53570
250.71338,1.52415
250.47231,1.51670
250.23124,1.51163
249.99017,1.50706
249.74910,1.50407
249.50803,1.50322
249.26696,1.50225
249.02589,1.49954
248.78481,1.49742
248.54374,1.49920
248.30267,1.50458
248.06160,1.51165
247.82053,1.51924
247.57946,1.52587
247.33839,1.53006
247.09732,1.53189
246.85625,1.53504
246.61518,1.54700
246.37411,1.57148
246.13304,1.59825
245.89197,1.60881
245.65090,1.59797
245.40983,1.58301
245.16876,1.58420
244.92769,1.60517
244.68661,1.63538
244.44554,1.66562
244.20447,1.69671
243.96340,1.73372
243.72233,1.78062
243.48126,1.84127
243.24019,1.91456
242.99912,1.98643
242.75805,2.01974
242.51698,1.93261
242.27591,1.81274
242.03484,1.71957
241.79377,1.63306
241.55270,1.54775
241.31163,1.47375
241.07056,1.41704
240.82949,1.37273
240.58842,1.33136
240.34734,1.28895
240.10627,1.24860
239.86520,1.21294
239.62413,1.18106
239.38306,1.15329
239.14199,1.13115
238.90092,1.11236
238.65985,1.09239
238.41878,1.07066
238.17771,1.05031
237.93664,1.03333
237.69557,1.01970
237.45450,1.00886
237.21343,0.99943
236.97236,0.98958
236.73129,0.97911
236.49022,0.96887
236.24915,0.95866
236.00807,0.94785
235.76700,0.93687
235.52593,0.92671
235.28486,0.91801
235.04379,0.91050
234.80272,0.90246
234.56165,0.89277
234.32058,0.88399
234.07951,0.88019
233.83844,0.88127
233.59737,0.88191
233.35630,0.87756
233.11523,0.86970
232.87416,0.86322
232.63309,0.86036
232.39202,0.85920
232.15095,0.85708
231.90988,0.85335
231.66880,0.84879
231.42773,0.84451
231.18666,0.84185
230.94559,0.84131
230.70452,0.84082
230.46345,0.83720
230.22238,0.83063
229.98131,0.82502
229.74024,0.82253
229.49917,0.82094
229.25810,0.81838
229.01703,0.81650
228.77596,0.81686
228.53489,0.81810
228.29382,0.81876
228.05275,0.81882
227.81168,0.81734
227.57061,0.81267
227.32953,0.80602
227.08846,0.80098
226.84739,0.79921
226.60632,0.79855
226.36525,0.79585
226.12418,0.79104
225.88311,0.78715
225.64204,0.78622
225.40097,0.78710
225.15990,0.78796
224.91883,0.78898
224.67776,0.79134
224.43669,0.79479
224.19562,0.79764
223.95455,0.79881
223.71348,0.79894
223.47241,0.79956
223.23134,0.80207
222.99026,0.80691
222.74919,0.81200
222.50812,0.81399
222.26705,0.81296
222.02598,0.81310
221.78491,0.81678
221.54384,0.82202
221.30277,0.82725
221.06170,0.83377
220.82063,0.84199
220.57956,0.84998
220.33849,0.85690
220.09742,0.86379
219.85635,0.87099
219.61528,0.87779
219.37421,0.88422
219.13314,0.89108
218.89207,0.89861
218.65099,0.90675
218.40992,0.91637
218.16885,0.92895
217.92778,0.94435
217.68671,0.95963
217.44564,0.97084
217.20457,0.97672
216.96350,0.98046
216.72243,0.98650
216.48136,0.99569
216.24029,1.00625
215.99922,1.01844
215.75815,1.03463
215.51708,1.05423
215.27601,1.07319
215.03494,1.08886
214.79387,1.10102
214.55280,1.10875
214.31172,1.11161
214.07065,1.11293
213.82958,1.11746
213.58851,1.12660
213.34744,1.13826
213.10637,1.15028
212.86530,1.16251
212.62423,1.17521
212.38316,1.18571
212.14209,1.18934
211.90102,1.18461
211.65995,1.17523
211.41888,1.16725
211.17781,1.16556
210.93674,1.17135
210.69567,1.18198
210.45460,1.19314
210.21353,1.20065
209.97245,1.20127
209.73138,1.19475
209.49031,1.18441
209.24924,1.17459
209.00817,1.16894
208.76710,1.16989
208.52603,1.17591
208.28496,1.17888
208.04389,1.17059
207.80282,1.15357
207.56175,1.13709
207.32068,1.12553
207.07961,1.11779
206.83854,1.11316
206.59747,1.11060
206.35640,1.10530
206.11533,1.09385
205.87426,1.08037
205.63318,1.07074
205.39211,1.06425
205.15104,1.05518
204.90997,1.04071
204.66890,1.02402
204.42783,1.00944
204.18676,0.99794
203.94569,0.98773
203.70462,0.97757
203.46355,0.96816
203.22248,0.96040
202.98141,0.95278
202.74034,0.94156
202.49927,0.92516
202.25820,0.90728
202.01713,0.89295
201.77606,0.88293
201.53499,0.87386
201.29391,0.86229
201.05284,0.84780
200.81177,0.83262
200.57070,0.81924
200.32963,0.80859
200.08856,0.80027
199.84749,0.79354
199.60642,0.78747
199.36535,0.78057
199.12428,0.77162
198.88321,0.76128
198.64214,0.75176
198.40107,0.74431
198.16000,0.73789
197.91893,0.73049
197.67786,0.72121
197.43679,0.71094
197.19572,0.70119
196.95464,0.69273
196.71357,0.68515
196.47250,0.67755
196.23143,0.66959
195.99036,0.66200
195.74929,0.65598
195.50822,0.65169
195.26715,0.64716
195.02608,0.63970
194.78501,0.62977
194.54394,0.62166
194.30287,0.61847
194.06180,0.61851
193.82073,0.61768
193.57966,0.61421
193.33859,0.60975
193.09752,0.60606
192.85645,0.60267
192.61537,0.59807
192.37430,0.59236
192.13323,0.58765
191.89216,0.58566
191.65109,0.58526
191.41002,0.58349
191.16895,0.57903
190.92788,0.57386
190.68681,0.57044
190.44574,0.56844
190.20467,0.56560
189.96360,0.56137
189.72253,0.55757
189.48146,0.55538
189.24039,0.55370
188.99932,0.55154
188.75825,0.55002
188.51718,0.55027
188.27610,0.55104
188.03503,0.55015
187.79396,0.54740
187.55289,0.54454
187.31182,0.54287
187.07075,0.54213
186.82968,0.54120
186.58861,0.53941
186.34754,0.53743
186.10647,0.53639
185.86540,0.53621
185.62433,0.53586
185.38326,0.53571
185.14219,0.53761
184.90112,0.54172
184.66005,0.54522
184.41898,0.54577
184.17791,0.54434
183.93683,0.54294
183.69576,0.54213
183.45469,0.54246
183.21362,0.54510
182.97255,0.54932
182.73148,0.55224
182.49041,0.55251
182.24934,0.55169
182.00827,0.55153
181.76720,0.55245
181.52613,0.55448
181.28506,0.55736
181.04399,0.55961
180.80292,0.55995
180.56185,0.55943
180.32078,0.56030
180.07971,0.56326
179.83864,0.56732
179.59756,0.57184
179.35649,0.57696
179.11542,0.58253
178.87435,0.58806
178.63328,0.59335
178.39221,0.59928
178.15114,0.60748
177.91007,0.61809
177.66900,0.62852
177.42793,0.63713
177.18686,0.64661
176.94579,0.65985
176.70472,0.67513
176.46365,0.68938
176.22258,0.70267
175.98151,0.71604
175.74044,0.72908
175.49937,0.74205
175.25829,0.75645
175.01722,0.77255
174.77615,0.78920
174.53508,0.80569
174.29401,0.82205
174.05294,0.83858
173.81187,0.85532
173.57080,0.87112
173.32973,0.88423
173.08866,0.89488
172.84759,0.90528
172.60652,0.91633
172.36545,0.92579
172.12438,0.93054
171.88331,0.92975
171.64224,0.92515
171.40117,0.91891
171.16010,0.91312
170.91902,0.90998
170.67795,0.90996
170.43688,0.90988
170.19581,0.90561
169.95474,0.89699
169.71367,0.88770
169.47260,0.88073
169.23153,0.87633
168.99046,0.87366
168.74939,0.87206
168.50832,0.87066
168.26725,0.86850
168.02618,0.86538
167.78511,0.86159
167.54404,0.85679
167.30297,0.85099
167.06190,0.84649
166.82083,0.84580
166.57975,0.84847
166.33868,0.85249
166.09761,0.85773
165.85654,0.86551
165.61547,0.87597
165.37440,0.88709
165.13333,0.89603
164.89226,0.90173
164.65119,0.90627
164.41012,0.91220
164.16905,0.91910
163.92798,0.92536
163.68691,0.93192
163.44584,0.94109
163.20477,0.95239
162.96370,0.96235
162.72263,0.96882
162.48156,0.97339
162.24048,0.97856
161.99941,0.98377
161.75834,0.98590
161.51727,0.98354
161.27620,0.97848
161.03513,0.97324
160.79406,0.96930
160.55299,0.96737
160.31192,0.96783
160.07085,0.97030
159.82978,0.97298
159.58871,0.97319
159.34764,0.96872
159.10657,0.95924
158.86550,0.94766
158.62443,0.93949
158.38336,0.93838
158.14229,0.94254
157.90121,0.94638
157.66014,0.94503
157.41907,0.93641
157.17800,0.92203
156.93693,0.90713
156.69586,0.89699
156.45479,0.89258
156.21372,0.89078
155.97265,0.88815
155.73158,0.88380
155.49051,0.87906
155.24944,0.87435
155.00837,0.86776
154.76730,0.85781
154.52623,0.84616
154.28516,0.83580
154.04409,0.82743
153.80302,0.81846
153.56194,0.80533
153.32087,0.78761
153.07980,0.76917
152.83873,0.75425
152.59766,0.74275
152.35659,0.73057
152.11552,0.71494
151.87445,0.69776
151.63338,0.68248
151.39231,0.67018
151.15124,0.65950
150.91017,0.64865
150.66910,0.63629
150.42803,0.62209
150.18696,0.60744
149.94589,0.59463
149.70482,0.58509
149.46375,0.57885
149.22267,0.57459
148.98160,0.56998
148.74053,0.56322
148.49946,0.55463
148.25839,0.54618
148.01732,0.53979
147.77625,0.53622
147.53518,0.53465
147.29411,0.53335
147.05304,0.53152
146.81197,0.53022
146.57090,0.53090
146.32983,0.53328
146.08876,0.53563
145.84769,0.53703
145.60662,0.53886
145.36555,0.54339
145.12448,0.55129
144.88340,0.56078
144.64233,0.56879
144.40126,0.57321
144.16019,0.57426
143.91912,0.57364
143.67805,0.57249
143.43698,0.57057
143.19591,0.56741
142.95484,0.56303
142.71377,0.55740
142.47270,0.55020
142.23163,0.54155
141.99056,0.53245
141.74949,0.52401
141.50842,0.51653
141.26735,0.50960
141.02628,0.50299
140.78521,0.49723
140.54413,0.49323
140.30306,0.49166
140.06199,0.49271
139.82092,0.49589
139.57985,0.50015
139.33878,0.50426
139.09771,0.50723
138.85664,0.50925
138.61557,0.51213
138.37450,0.51778
138.13343,0.52611
137.89236,0.53535
137.65129,0.54440
137.41022,0.55368
137.16915,0.56415
136.92808,0.57671
136.68701,0.59211
136.44594,0.60999
136.20486,0.62887
135.96379,0.64810
135.72272,0.66899
135.48165,0.69275
135.24058,0.71877
134.99951,0.74600
134.75844,0.77403
134.51737,0.80235
134.27630,0.83160
134.03523,0.86456
133.79416,0.90219
133.55309,0.93991
133.31202,0.97141
133.07095,0.99509
132.82988,1.01428
132.58881,1.03273
132.34774,1.05037
132.10667,1.06368
131.86559,1.07203
131.62452,1.07993
131.38345,1.08949
131.14238,1.09664
130.90131,1.09783
130.66024,1.09395
130.41917,1.08535
130.17810,1.06892
129.93703,1.04306
129.69596,1.01167
129.45489,0.97990
129.21382,0.94831
128.97275,0.91453
128.73168,0.87903
128.49061,0.84497
128.24954,0.81360
128.00847,0.78372
127.76740,0.75488
127.52632,0.72787
127.28525,0.70273
127.04418,0.67851
126.80311,0.65473
126.56204,0.63205
126.32097,0.61130
126.07990,0.59266
125.83883,0.57592
125.59776,0.56078
125.35669,0.54668
125.11562,0.53317
124.87455,0.52048
124.63348,0.50917
124.39241,0.49937
124.15134,0.49092
123.91027,0.48345
123.66920,0.47624
123.42812,0.46865
123.18705,0.46078
122.94598,0.45350
122.70491,0.44801
122.46384,0.44505
122.22277,0.44386
121.98170,0.44262
121.74063,0.44068
121.49956,0.43950
121.25849,0.44079
121.01742,0.44462
120.77635,0.44992
120.53528,0.45617
120.29421,0.46389
120.05314,0.47389
119.81207,0.48663
119.57100,0.50217
119.32993,0.52023
119.08885,0.54055
118.84778,0.56379
118.60671,0.59126
118.36564,0.62280
118.12457,0.65537
117.88350,0.68490
117.64243,0.70996
117.40136,0.73253
117.16029,0.75479
116.91922,0.77544
116.67815,0.78984
116.43708,0.79503
116.19601,0.79329
115.95494,0.78839
115.71387,0.78016
115.47280,0.76590
115.23173,0.74595
114.99066,0.72471
114.74958,0.70680
114.50851,0.69348
114.26744,0.68262
114.02637,0.67202
113.78530,0.66204
113.54423,0.65398
113.30316,0.64798
113.06209,0.64425
112.82102,0.64398
112.57995,0.64733
112.33888,0.65282
112.09781,0.65991
111.85674,0.66959
111.61567,0.68227
111.37460,0.69566
111.13353,0.70508
110.89246,0.70641
110.65139,0.69972
110.41031,0.68896
110.16924,0.67818
109.92817,0.66871
109.68710,0.65952
109.44603,0.64946
109.20496,0.63927
108.96389,0.63034
108.72282,0.62160
108.48175,0.60986
108.24068,0.59394
107.99961,0.57572
107.75854,0.55672
107.51747,0.53655
107.27640,0.51525
107.03533,0.49522
106.79426,0.47978
106.55319,0.47050
106.31212,0.46549
106.07104,0.46017
105.82997,0.45026
105.58890,0.43528
105.34783,0.41885
105.10676,0.40511
104.86569,0.39536
104.62462,0.38825
104.38355,0.38210
104.14248,0.37641
103.90141,0.37076
103.66034,0.36362
103.41927,0.35365
103.17820,0.34180
102.93713,0.33138
102.69606,0.32562
102.45499,0.32448
102.21392,0.32398
101.97285,0.31997
101.73177,0.31210
101.49070,0.30335
101.24963,0.29661
101.00856,0.29286
100.76749,0.29120
100.52642,0.28937
100.28535,0.28538
100.04428,0.27943
99.80321,0.27369
99.56214,0.27032
99.32107,0.26987
99.08000,0.27092
98.83893,0.27044
98.59786,0.26602
98.35679,0.25910
98.11572,0.25499
97.87465,0.25777
97.63358,0.26503
97.39250,0.26924
97.15143,0.26692
96.91036,0.26359
96.66929,0.26615
96.42822,0.27466
96.18715,0.28329
95.94608,0.28750
95.70501,0.28919
95.46394,0.29352
95.22287,0.30202
94.98180,0.31072
94.74073,0.31475
94.49966,0.31433
94.25859,0.31408
94.01752,0.31614
93.77645,0.31777
93.53538,0.31719
93.29431,0.31761
93.05323,0.32161
92.81216,0.32568
92.57109,0.32507
92.33002,0.32191
92.08895,0.32190
91.84788,0.32540
91.60681,0.32858
91.36574,0.33164
91.12467,0.33883
90.88360,0.35130
90.64253,0.36691
90.40146,0.38748
90.16039,0.41751
89.91932,0.45572
89.67825,0.49672
89.43718,0.53961
89.19611,0.58551
88.95504,0.63024
88.71396,0.66854
88.47289,0.69706
88.23182,0.70917
87.99075,0.69939
87.74968,0.67163
87.50861,0.63429
87.26754,0.59471
87.02647,0.55770
86.78540,0.52315
86.54433,0.48898
86.30326,0.45725
86.06219,0.43157
85.82112,0.41049
85.58005,0.38913
85.33898,0.36537
85.09791,0.34071
84.85684,0.31780
84.61577,0.29939
84.37469,0.28707
84.13362,0.27933
83.89255,0.27261
83.65148,0.26483
83.41041,0.25642
83.16934,0.24819
82.92827,0.24065
82.68720,0.23459
82.44613,0.23006
82.20506,0.22559
81.96399,0.22030
81.72292,0.21534
81.48185,0.21180
81.24078,0.20904
80.99971,0.20576
80.75864,0.20158
80.51757,0.19731
80.27650,0.19428
80.03542,0.19326
79.79435,0.19364
79.55328,0.19391
79.31221,0.19308
79.07114,0.19143
78.83007,0.18975
78.58900,0.18833
78.34793,0.18698
78.10686,0.18590
77.86579,0.18565
77.62472,0.18599
77.38365,0.18550
77.14258,0.18307
76.90151,0.17943
76.66044,0.17625
76.41937,0.17414
76.17830,0.17252
75.93723,0.17121
75.69615,0.17036
75.45508,0.16916
75.21401,0.16651
74.97294,0.16286
74.73187,0.15990
74.49080,0.15886
74.24973,0.15996
74.00866,0.16269
73.76759,0.16598
73.52652,0.16801
73.28545,0.16697
73.04438,0.16285
72.80331,0.15853
72.56224,0.15795
72.32117,0.16265
72.08010,0.16988
71.83903,0.17447
71.59796,0.17353
71.35688,0.16900
71.11581,0.16506
70.87474,0.16425
70.63367,0.16671
70.39260,0.17184
70.15153,0.17994
69.91046,0.19240
69.66939,0.21033
69.42832,0.23178
69.18725,0.25057
68.94618,0.25938
68.70511,0.25522
68.46404,0.24099
68.22297,0.22256
67.98190,0.20510
67.74083,0.19094
67.49976,0.17979
67.25869,0.17096
67.01761,0.16408
66.77654,0.15833
66.53547,0.15306
66.29440,0.14889
66.05333,0.14674
65.81226,0.14650
65.57119,0.14783
65.33012,0.15124
65.08905,0.15757
64.84798,0.16693
64.60691,0.17852
64.36584,0.19102
64.12477,0.20254
63.88370,0.21039
63.64263,0.21217
63.40156,0.20754
63.16049,0.19864
62.91942,0.18851
62.67834,0.17906
62.43727,0.17068
62.19620,0.16326
61.95513,0.15674
61.71406,0.15079
61.47299,0.14514
61.23192,0.14028
60.99085,0.13664
60.74978,0.13401
60.50871,0.13250
60.26764,0.13268
60.02657,0.13406
59.78550,0.13489
59.54443,0.13430
59.30336,0.13301
59.06229,0.13151
58.82122,0.12951
58.58015,0.12749
58.33907,0.12710
58.09800,0.13005
57.85693,0.13756
57.61586,0.14986
57.37479,0.16460
57.13372,0.17712
56.89265,0.18403
56.65158,0.18589
56.41051,0.18503
56.16944,0.18204
55.92837,0.17531
55.68730,0.16341
55.44623,0.14770
55.20516,0.13205
54.96409,0.12003
54.72302,0.11379
54.48195,0.11490
54.24088,0.12484
53.99980,0.14461
53.75873,0.17291
53.51766,0.20072
53.27659,0.21055
53.03552,0.19448
52.79445,0.16575
52.55338,0.14154
52.31231,0.13130
52.07124,0.13752
51.83017,0.15761
51.58910,0.18271
51.34803,0.19613
51.10696,0.18470
50.86589,0.15662
50.62482,0.13206
50.38375,0.12630
50.14268,0.14517
49.90161,0.17811
49.66053,0.19088
49.41946,0.16256
49.17839,0.12501
48.93732,0.11163
48.69625,0.13151
48.45518,0.16755
48.21411,0.17619
47.97304,0.14713
47.73197,0.12459
47.49090,0.13551
47.24983,0.16666
47.00876,0.17347
46.76769,0.14483
46.52662,0.12277
46.28555,0.12287
46.04448,0.12430
45.80341,0.11693
45.56234,0.12062
45.32126,0.14024
45.08019,0.15119
44.83912,0.14416
44.59805,0.14193
44.35698,0.15093
44.11591,0.15425
43.87484,0.15154
43.63377,0.15698
43.39270,0.16923
43.15163,0.17802
42.91056,0.17965
42.66949,0.17489
42.42842,0.16775
42.18735,0.16500
41.94628,0.16695
41.70521,0.16787
41.46414,0.16578
41.22307,0.16153
40.98199,0.15684
40.74092,0.15744
40.49985,0.16715
40.25878,0.17913
40.01771,0.18232
39.77664,0.17698
39.53557,0.17329
39.29450,0.17714
39.05343,0.18551
38.81236,0.19366
38.57129,0.20200
38.33022,0.21218
38.08915,0.22194
37.84808,0.22722
37.60701,0.22623
37.36594,0.22125
37.12487,0.21736
36.88380,0.21637
36.64272,0.21500
36.40165,0.21182
36.16058,0.21075
35.91951,0.21483
35.67844,0.22053
35.43737,0.22075
35.19630,0.21373
34.95523,0.20542
34.71416,0.19941
34.47309,0.19217
34.23202,0.18147
33.99095,0.17007
33.74988,0.16063
33.50881,0.15248
33.26774,0.14571
33.02667,0.14161
32.78560,0.13923
32.54453,0.13679
32.30345,0.13176
32.06238,0.11805
31.82131,0.09374
31.58024,0.06948
31.33917,0.05649
31.09810,0.05048
30.85703,0.03837
30.61596,0.01954
30.37489,0.00518
30.13382,-0.00189
29.89275,-0.00890
29.65168,-0.01668
29.41061,-0.01979
29.16954,-0.01773
28.92847,-0.02074
28.68740,-0.04306
28.44633,-0.08011
28.20526,-0.10696
27.96418,-0.10970
27.72311,-0.10200
27.48204,-0.10152
27.24097,-0.10952
26.99990,-0.12487
26.75883,-0.15350
26.51776,-0.19170
26.27669,-0.22101
26.03562,-0.23191
25.79455,-0.23735
25.55348,-0.25194
25.31241,-0.27388
25.07134,-0.29040
24.83027,-0.29733
24.58920,-0.30207
24.34813,-0.30995
24.10706,-0.32187
23.86599,-0.33753
23.62491,-0.35221
23.38384,-0.35594
23.14277,-0.35035
22.90170,-0.35302
22.66063,-0.37090
22.41956,-0.38791
22.17849,-0.38894
21.93742,-0.38209
21.69635,-0.38107
21.45528,-0.38499
21.21421,-0.39030
20.97314,-0.40522
20.73207,-0.43579
20.49100,-0.47077
20.24993,-0.49545
20.00886,-0.49527
19.76779,-0.48680
19.52672,-0.48132
19.28564,-0.47881
19.04457,-0.48831
18.80350,-0.51578
18.56243,-0.54169
18.32136,-0.54046
18.08029,-0.49693
17.83922,-0.43314
17.59815,-0.40115
17.35708,-0.40222
17.11601,-0.42331
16.87494,-0.46003
16.63387,-0.50504
16.39280,-0.54277
16.15173,-0.56767
15.91066,-0.57492
15.66959,-0.57124
15.42852,-0.57600
15.18745,-0.57381
14.94637,-0.54340
14.70530,-0.50183
14.46423,-0.47853
14.22316,-0.47628
13.98209,-0.47589
13.74102,-0.45704
13.49995,-0.42102
13.25888,-0.39324
13.01781,-0.38297
12.77674,-0.38480
12.53567,-0.39758
12.29460,-0.41951
12.05353,-0.44218
11.81246,-0.45961
11.57139,-0.46804
11.33032,-0.46790
11.08925,-0.45667
10.84818,-0.43440
10.60710,-0.41754
10.36603,-0.42304
10.12496,-0.45544
9.88389,-0.50208
9.64282,-0.53483
9.40175,-0.54652
9.16068,-0.54520
8.91961,-0.52557
8.67854,-0.49217
8.43747,-0.46882
8.19640,-0.47044
7.95533,-0.47804
7.71426,-0.46758
7.47319,-0.45143
7.23212,-0.44285
6.99105,-0.43828
6.74998,-0.44200
6.50891,-0.44979
6.26783,-0.45531
6.02676,-0.46386
5.78569,-0.47119
5.54462,-0.45945
5.30355,-0.43220
5.06248,-0.41164
4.82141,-0.41323
4.58034,-0.43866
4.33927,-0.46381
4.09820,-0.46493
3.85713,-0.45598
3.61606,-0.45773
3.37499,-0.46841
3.13392,-0.47936
2.89285,-0.49176
2.65178,-0.49890
2.41071,-0.50005
2.16964,-0.50872
1.92856,-0.49109
1.68749,-0.46781
1.44642,-0.46738
1.20535,-0.47954
0.96428,-0.48483
0.72321,-0.49007
0.48214,-0.47961
0.24107,-0.45383
-0.00000,-0.26455
