399.69498,1.97978
399.45391,1.91402
399.21284,1.86395
398.97177,1.83962
398.73070,1.83761
398.48963,1.85708
398.24856,1.88937
398.00749,1.91323
397.76642,1.88997
397.52535,1.83721
397.28428,1.81775
397.04321,1.85740
396.80214,1.92061
396.56107,1.92923
396.32000,1.88153
396.07892,1.84486
395.83785,1.85702
395.59678,1.90354
395.35571,1.93841
395.11464,1.92847
394.87357,1.88495
394.63250,1.84320
394.39143,1.83775
394.15036,1.92757
393.90929,2.11367
393.66822,2.23209
393.42715,2.16302
393.18608,2.02234
392.94501,1.91430
392.70394,1.87359
392.46287,1.90438
392.22180,1.97500
391.98073,2.05936
391.73965,2.15034
391.49858,2.13117
391.25751,2.24321
391.01644,2.53630
390.77537,2.41475
390.53430,2.26160
390.29323,2.29291
390.05216,2.33220
389.81109,2.32287
389.57002,2.25608
389.32895,2.23518
389.08788,2.31568
388.84681,2.11271
388.60574,1.98986
388.36467,2.02227
388.12360,2.10128
387.88253,2.03272
387.64146,1.94414
387.40038,1.97994
387.15931,2.09379
386.91824,2.26789
386.67717,2.40792
386.43610,2.03178
386.19503,1.83939
385.95396,1.83463
385.71289,1.90610
385.47182,2.00135
385.23075,2.09792
384.98968,2.16070
384.74861,2.20837
384.50754,2.13830
384.26647,2.06652
384.02540,2.07500
383.78433,2.15541
383.54326,2.30875
383.30219,2.39394
383.06111,2.24899
382.82004,2.13860
382.57897,1.96676
382.33790,1.83946
382.09683,1.85504
381.85576,1.97926
381.61469,1.98767
381.37362,1.91666
381.13255,1.92195
380.89148,1.92670
380.65041,1.88406
380.40934,1.85510
380.16827,1.83625
379.92720,1.83170
379.68613,1.91436
379.44506,2.05115
379.20399,1.93348
378.96292,1.79502
378.72184,1.83883
378.48077,2.00720
378.23970,1.96910
377.99863,1.96293
377.75756,1.86637
377.51649,1.91380
377.27542,2.01714
377.03435,2.08708
376.79328,2.14079
376.55221,2.14725
376.31114,2.23122
376.07007,2.30054
375.82900,2.21958
375.58793,2.06793
375.34686,1.94654
375.10579,1.93527
374.86472,2.04804
374.62365,2.11255
374.38257,2.19105
374.14150,2.18818
373.90043,2.08468
373.65936,2.00325
373.41829,2.00910
373.17722,2.05073
372.93615,1.99531
372.69508,1.88389
372.45401,1.81176
372.21294,1.80685
371.97187,1.83361
371.73080,1.83659
371.48973,1.81091
371.24866,1.77150
371.00759,1.72694
370.76652,1.71013
370.52545,1.75637
370.28437,1.85104
370.04330,1.89795
369.80223,1.82989
369.56116,1.72344
369.32009,1.65504
369.07902,1.64499
368.83795,1.68507
368.59688,1.75195
368.35581,1.78717
368.11474,1.76011
367.87367,1.71352
367.63260,1.66203
367.39153,1.61064
367.15046,1.56681
366.90939,1.54063
366.66832,1.53377
366.42725,1.54252
366.18618,1.55448
365.94510,1.55794
365.70403,1.56078
365.46296,1.56673
365.22189,1.55884
364.98082,1.53260
364.73975,1.51118
364.49868,1.51011
364.25761,1.51543
364.01654,1.51022
363.77547,1.50301
363.53440,1.50998
363.29333,1.52722
363.05226,1.53755
362.81119,1.53249
362.57012,1.51557
362.32905,1.49870
362.08798,1.49424
361.84691,1.50858
361.60583,1.54467
361.36476,1.58992
361.12369,1.61355
360.88262,1.61584
360.64155,1.61045
360.40048,1.58832
360.15941,1.55662
359.91834,1.53355
359.67727,1.52857
359.43620,1.53689
359.19513,1.54073
358.95406,1.52477
358.71299,1.49887
358.47192,1.48102
358.23085,1.46428
357.98978,1.44070
357.74871,1.42709
357.50764,1.43397
357.26656,1.45421
357.02549,1.47052
356.78442,1.47022
356.54335,1.45992
356.30228,1.45743
356.06121,1.47175
355.82014,1.49323
355.57907,1.50251
355.33800,1.49792
355.09693,1.49018
354.85586,1.47884
354.61479,1.46669
354.37372,1.46214
354.13265,1.46144
353.89158,1.45699
353.65051,1.45310
353.40944,1.45621
353.16837,1.46266
352.92729,1.46349
352.68622,1.46053
352.44515,1.46451
352.20408,1.47669
351.96301,1.48809
351.72194,1.49657
351.48087,1.49862
351.23980,1.49227
350.99873,1.49167
350.75766,1.50843
350.51659,1.53165
350.27552,1.53075
350.03445,1.49252
349.79338,1.44516
349.55231,1.41628
349.31124,1.41219
349.07017,1.42939
348.82910,1.45828
348.58802,1.48390
348.34695,1.49284
348.10588,1.48627
347.86481,1.48217
347.62374,1.49291
347.38267,1.50830
347.14160,1.51343
346.90053,1.51310
346.65946,1.51976
346.41839,1.53035
346.17732,1.53530
345.93625,1.54151
345.69518,1.55328
345.45411,1.55688
345.21304,1.54871
344.97197,1.55053
344.73090,1.57344
344.48983,1.59752
344.24875,1.59632
344.00768,1.57361
343.76661,1.55256
343.52554,1.55386
343.28447,1.58146
343.04340,1.61949
342.80233,1.65121
342.56126,1.67412
342.32019,1.68470
342.07912,1.67622
341.83805,1.67797
341.59698,1.69542
341.35591,1.70179
341.11484,1.69625
340.87377,1.68599
340.63270,1.67147
340.39163,1.66153
340.15056,1.66675
339.90948,1.69085
339.66841,1.71751
339.42734,1.72890
339.18627,1.75681
338.94520,1.82369
338.70413,1.88169
338.46306,1.88404
338.22199,1.86190
337.98092,1.84926
337.73985,1.83268
337.49878,1.79034
337.25771,1.74150
337.01664,1.72342
336.77557,1.73357
336.53450,1.73918
336.29343,1.72858
336.05236,1.73793
335.81129,1.79184
335.57021,1.88143
335.32914,1.95254
335.08807,1.89813
334.84700,1.80641
334.60593,1.79412
334.36486,1.87042
334.12379,1.97934
333.88272,2.02738
333.64165,1.98572
333.40058,1.92914
333.15951,1.91145
332.91844,1.91700
332.67737,1.91092
332.43630,1.89181
332.19523,1.86658
331.95416,1.80644
331.71309,1.71600
331.47202,1.64045
331.23094,1.61613
330.98987,1.64186
330.74880,1.68774
330.50773,1.71776
330.26666,1.71919
330.02559,1.70569
329.78452,1.67367
329.54345,1.63282
329.30238,1.60604
329.06131,1.57824
328.82024,1.53813
328.57917,1.50555
328.33810,1.50525
328.09703,1.54292
327.85596,1.58225
327.61489,1.59113
327.37382,1.60682
327.13275,1.69033
326.89167,1.83370
326.65060,1.90132
326.40953,1.81949
326.16846,1.72319
325.92739,1.71536
325.68632,1.77015
325.44525,1.82296
325.20418,1.86139
324.96311,1.89094
324.72204,1.88598
324.48097,1.83212
324.23990,1.77108
323.99883,1.73976
323.75776,1.72593
323.51669,1.69946
323.27562,1.67984
323.03455,1.71773
322.79348,1.78827
322.55240,1.77509
322.31133,1.72038
322.07026,1.70077
321.82919,1.72583
321.58812,1.77110
321.34705,1.82309
321.10598,1.86635
320.86491,1.89391
320.62384,1.92904
320.38277,1.90576
320.14170,1.85725
319.90063,1.91700
319.65956,2.11612
319.41849,2.36142
319.17742,2.45641
318.93635,2.31295
318.69528,2.12842
318.45421,1.98382
318.21313,1.92322
317.97206,1.96125
317.73099,2.04499
317.48992,1.99914
317.24885,1.88316
317.00778,1.80229
316.76671,1.79259
316.52564,1.81295
316.28457,1.80321
316.04350,1.75674
315.80243,1.73829
315.56136,1.76199
315.32029,1.77456
315.07922,1.76718
314.83815,1.77228
314.59708,1.82767
314.35601,1.96585
314.11494,2.16637
313.87386,2.25835
313.63279,2.13857
313.39172,2.05896
313.15065,2.04247
312.90958,2.01553
312.66851,1.97772
312.42744,1.94001
312.18637,1.90734
311.94530,1.92300
311.70423,1.99019
311.46316,2.09653
311.22209,2.25631
310.98102,2.28122
310.73995,2.16902
310.49888,2.14066
310.25781,2.14673
310.01674,2.12370
309.77567,2.08099
309.53459,2.02838
309.29352,1.97934
309.05245,1.92028
308.81138,1.85227
308.57031,1.80023
308.32924,1.77260
308.08817,1.76776
307.84710,1.78541
307.60603,1.80290
307.36496,1.78985
307.12389,1.75855
306.88282,1.72505
306.64175,1.68268
306.40068,1.63333
306.15961,1.59665
305.91854,1.59283
305.67747,1.61884
305.43640,1.64496
305.19532,1.64481
304.95425,1.62080
304.71318,1.58397
304.47211,1.54491
304.23104,1.51929
303.98997,1.51217
303.74890,1.51008
303.50783,1.49904
303.26676,1.48413
303.02569,1.47680
302.78462,1.47398
302.54355,1.45903
302.30248,1.42240
302.06141,1.37572
301.82034,1.34129
301.57927,1.33020
301.33820,1.33475
301.09713,1.34082
300.85605,1.34227
300.61498,1.33790
300.37391,1.32603
300.13284,1.31018
299.89177,1.29617
299.65070,1.28243
299.40963,1.26512
299.16856,1.25105
298.92749,1.25203
298.68642,1.26643
298.44535,1.27338
298.20428,1.25604
297.96321,1.22470
297.72214,1.20321
297.48107,1.20119
297.24000,1.21073
296.99893,1.22055
296.75786,1.22464
296.51678,1.22048
296.27571,1.20842
296.03464,1.19351
295.79357,1.18117
295.55250,1.17203
295.31143,1.16742
295.07036,1.17176
294.82929,1.18433
294.58822,1.19402
294.34715,1.18744
294.10608,1.16843
293.86501,1.15222
293.62394,1.14448
293.38287,1.13956
293.14180,1.13007
292.90073,1.11790
292.65966,1.11295
292.41859,1.11941
292.17751,1.12968
291.93644,1.13372
291.69537,1.13032
291.45430,1.12400
291.21323,1.11679
290.97216,1.10903
290.73109,1.10378
290.49002,1.10528
290.24895,1.11269
290.00788,1.11717
289.76681,1.10909
289.52574,1.08922
289.28467,1.06944
289.04360,1.06094
288.80253,1.06529
288.56146,1.07450
288.32039,1.07706
288.07932,1.06901
287.83824,1.05881
287.59717,1.05712
287.35610,1.06442
287.11503,1.07038
286.87396,1.06618
286.63289,1.05445
286.39182,1.04498
286.15075,1.04481
285.90968,1.05404
285.66861,1.06733
285.42754,1.07783
285.18647,1.08162
284.94540,1.07835
284.70433,1.06876
284.46326,1.05616
284.22219,1.04614
283.98112,1.04010
283.74005,1.03494
283.49897,1.03157
283.25790,1.03422
283.01683,1.04071
282.77576,1.04433
282.53469,1.04482
282.29362,1.04697
282.05255,1.05113
281.81148,1.05345
281.57041,1.05172
281.32934,1.04540
281.08827,1.03481
280.84720,1.02355
280.60613,1.01683
280.36506,1.01566
280.12399,1.01558
279.88292,1.01416
279.64185,1.01554
279.40078,1.02295
279.15970,1.03166
278.91863,1.03566
278.67756,1.03529
278.43649,1.03341
278.19542,1.03137
277.95435,1.03088
277.71328,1.03286
277.47221,1.03496
277.23114,1.03387
276.99007,1.02728
276.74900,1.01547
276.50793,1.00448
276.26686,1.00298
276.02579,1.01309
275.78472,1.02708
275.54365,1.03464
275.30258,1.03341
275.06151,1.02967
274.82043,1.02892
274.57936,1.02947
274.33829,1.02686
274.09722,1.02264
273.85615,1.02290
273.61508,1.02772
273.37401,1.03024
273.13294,1.02745
272.89187,1.02373
272.65080,1.02244
272.40973,1.02245
272.16866,1.02302
271.92759,1.02549
271.68652,1.02913
271.44545,1.02972
271.20438,1.02539
270.96331,1.02096
270.72224,1.02199
270.48116,1.02750
270.24009,1.03347
269.99902,1.04002
269.75795,1.04822
269.51688,1.05448
269.27581,1.05502
269.03474,1.05088
268.79367,1.04449
268.55260,1.03820
268.31153,1.03629
268.07046,1.04175
267.82939,1.05176
267.58832,1.05985
267.34725,1.06189
267.10618,1.05905
266.86511,1.05730
266.62404,1.06219
266.38297,1.07142
266.14189,1.07713
265.90082,1.07815
265.65975,1.08233
265.41868,1.09352
265.17761,1.10410
264.93654,1.10587
264.69547,1.10398
264.45440,1.10974
264.21333,1.12332
263.97226,1.13454
263.73119,1.13780
263.49012,1.13815
263.24905,1.14275
263.00798,1.15354
262.76691,1.16958
262.52584,1.18986
262.28477,1.21130
262.04370,1.22812
261.80262,1.23718
261.56155,1.24304
261.32048,1.25441
261.07941,1.27371
260.83834,1.29095
260.59727,1.29397
260.35620,1.28711
260.11513,1.28813
259.87406,1.30628
259.63299,1.33090
259.39192,1.34428
259.15085,1.34566
258.90978,1.35068
258.66871,1.37059
258.42764,1.40495
258.18657,1.44713
257.94550,1.49103
257.70443,1.52970
257.46335,1.55548
257.22228,1.57734
256.98121,1.60888
256.74014,1.64180
256.49907,1.64737
256.25800,1.61766
256.01693,1.58658
255.77586,1.58869
255.53479,1.62572
255.29372,1.66639
255.05265,1.68008
254.81158,1.67820
254.57051,1.69398
254.32944,1.73702
254.08837,1.78623
253.84730,1.83307
253.60623,1.91505
253.36516,2.07320
253.12408,2.22042
252.88301,2.11438
252.64194,2.05495
252.40087,2.13083
252.15980,2.23569
251.91873,2.17334
251.67766,2.06625
251.43659,2.05094
251.19552,2.07571
250.95445,2.08274
250.71338,2.11369
250.47231,2.17889
250.23124,2.21369
249.99017,2.17840
249.74910,2.14732
249.50803,2.21225
249.26696,2.40216
249.02589,2.47992
248.78481,2.32176
248.54374,2.34117
248.30267,2.45148
248.06160,2.39036
247.82053,2.29758
247.57946,2.28566
247.33839,2.27644
247.09732,2.20267
246.85625,2.20347
246.61518,2.18371
246.37411,2.12398
246.13304,2.24406
245.89197,2.40346
245.65090,2.13689
245.40983,1.97144
245.16876,1.92188
244.92769,1.88564
244.68661,1.83127
244.44554,1.75881
244.20447,1.67873
243.96340,1.60488
243.72233,1.54694
243.48126,1.51276
243.24019,1.50277
242.99912,1.50343
242.75805,1.49037
242.51698,1.44726
242.27591,1.38805
242.03484,1.34036
241.79377,1.31091
241.55270,1.28543
241.31163,1.25334
241.07056,1.21801
240.82949,1.18364
240.58842,1.15060
240.34734,1.11904
240.10627,1.08921
239.86520,1.06233
239.62413,1.04067
239.38306,1.02245
239.14199,1.00128
238.90092,0.97522
238.65985,0.95031
238.41878,0.93279
238.17771,0.92341
237.93664,0.91852
237.69557,0.91288
237.45450,0.90251
237.21343,0.88773
236.97236,0.87259
236.73129,0.86000
236.49022,0.84898
236.24915,0.83716
236.00807,0.82478
235.76700,0.81428
235.52593,0.80740
235.28486,0.80319
235.04379,0.79889
234.80272,0.79306
234.56165,0.78753
234.32058,0.78485
234.07951,0.78472
233.83844,0.78455
233.59737,0.78253
233.35630,0.77878
233.11523,0.77427
232.87416,0.76971
232.63309,0.76473
232.39202,0.75833
232.15095,0.75132
231.90988,0.74690
231.66880,0.74680
231.42773,0.74812
231.18666,0.74643
230.94559,0.74122
230.70452,0.73586
230.46345,0.73289
230.22238,0.73107
229.98131,0.72795
229.74024,0.72361
229.49917,0.72008
229.25810,0.71787
229.01703,0.71511
228.77596,0.71064
228.53489,0.70676
228.29382,0.70694
228.05275,0.71085
227.81168,0.71403
227.57061,0.71343
227.32953,0.71099
227.08846,0.71037
226.84739,0.71247
226.60632,0.71524
226.36525,0.71572
226.12418,0.71252
225.88311,0.70775
225.64204,0.70565
225.40097,0.70807
225.15990,0.71196
224.91883,0.71290
224.67776,0.71017
224.43669,0.70646
224.19562,0.70404
223.95455,0.70389
223.71348,0.70658
223.47241,0.71144
223.23134,0.71629
222.99026,0.71929
222.74919,0.72034
222.50812,0.72114
222.26705,0.72387
222.02598,0.72908
221.78491,0.73485
221.54384,0.73951
221.30277,0.74417
221.06170,0.75077
220.82063,0.75942
220.57956,0.76839
220.33849,0.77570
220.09742,0.78119
219.85635,0.78665
219.61528,0.79278
219.37421,0.79746
219.13314,0.79941
218.89207,0.80131
218.65099,0.80609
218.40992,0.81239
218.16885,0.81726
217.92778,0.82189
217.68671,0.83029
217.44564,0.84367
217.20457,0.85922
216.96350,0.87227
216.72243,0.87925
216.48136,0.88111
216.24029,0.88389
215.99922,0.89343
215.75815,0.90974
215.51708,0.92707
215.27601,0.94008
215.03494,0.94878
214.79387,0.95647
214.55280,0.96514
214.31172,0.97444
214.07065,0.98395
213.82958,0.99447
213.58851,1.00626
213.34744,1.01655
213.10637,1.02115
212.86530,1.01819
212.62423,1.01055
212.38316,1.00446
212.14209,1.00411
211.90102,1.00864
211.65995,1.01487
211.41888,1.02133
211.17781,1.02741
210.93674,1.03058
210.69567,1.02895
210.45460,1.02420
210.21353,1.01910
209.97245,1.01558
209.73138,1.01589
209.49031,1.02073
209.24924,1.02565
209.00817,1.02368
208.76710,1.01352
208.52603,1.00211
208.28496,0.99682
208.04389,0.99765
207.80282,0.99904
207.56175,0.99681
207.32068,0.99162
207.07961,0.98568
206.83854,0.97933
206.59747,0.97231
206.35640,0.96577
206.11533,0.96117
205.87426,0.95789
205.63318,0.95260
205.39211,0.94186
205.15104,0.92625
204.90997,0.91114
204.66890,0.90166
204.42783,0.89712
204.18676,0.89081
203.94569,0.87689
203.70462,0.85758
203.46355,0.84082
203.22248,0.83078
202.98141,0.82406
202.74034,0.81627
202.49927,0.80819
202.25820,0.80172
202.01713,0.79509
201.77606,0.78637
201.53499,0.77732
201.29391,0.77032
201.05284,0.76450
200.81177,0.75754
200.57070,0.74926
200.32963,0.74120
200.08856,0.73339
199.84749,0.72391
199.60642,0.71217
199.36535,0.70050
199.12428,0.69086
198.88321,0.68212
198.64214,0.67216
198.40107,0.66101
198.16000,0.64970
197.91893,0.63852
197.67786,0.62827
197.43679,0.62137
197.19572,0.61927
196.95464,0.61966
196.71357,0.61809
196.47250,0.61226
196.23143,0.60394
195.99036,0.59617
195.74929,0.58986
195.50822,0.58377
195.26715,0.57693
195.02608,0.57030
194.78501,0.56570
194.54394,0.56323
194.30287,0.56101
194.06180,0.55718
193.82073,0.55173
193.57966,0.54629
193.33859,0.54277
193.09752,0.54156
192.85645,0.54057
192.61537,0.53714
192.37430,0.53127
192.13323,0.52537
191.89216,0.52068
191.65109,0.51629
191.41002,0.51199
191.16895,0.50893
190.92788,0.50722
190.68681,0.50540
190.44574,0.50243
190.20467,0.49868
189.96360,0.49479
189.72253,0.49109
189.48146,0.48810
189.24039,0.48664
188.99932,0.48721
188.75825,0.48907
188.51718,0.49042
188.27610,0.48985
188.03503,0.48742
187.79396,0.48410
187.55289,0.48073
187.31182,0.47794
187.07075,0.47607
186.82968,0.47517
186.58861,0.47497
186.34754,0.47486
186.10647,0.47404
185.86540,0.47218
185.62433,0.46981
185.38326,0.46800
185.14219,0.46796
184.90112,0.47056
184.66005,0.47511
184.41898,0.47934
184.17791,0.48180
183.93683,0.48292
183.69576,0.48332
183.45469,0.48273
183.21362,0.48120
182.97255,0.47952
182.73148,0.47837
182.49041,0.47811
182.24934,0.47930
182.00827,0.48194
181.76720,0.48444
181.52613,0.48489
181.28506,0.48388
181.04399,0.48432
180.80292,0.48802
180.56185,0.49358
180.32078,0.49855
180.07971,0.50228
179.83864,0.50568
179.59756,0.50894
179.35649,0.51130
179.11542,0.51278
178.87435,0.51471
178.63328,0.51823
178.39221,0.52354
178.15114,0.53021
177.91007,0.53720
177.66900,0.54330
177.42793,0.54886
177.18686,0.55584
176.94579,0.56544
176.70472,0.57711
176.46365,0.59055
176.22258,0.60654
175.98151,0.62521
175.74044,0.64438
175.49937,0.66062
175.25829,0.67197
175.01722,0.67965
174.77615,0.68692
174.53508,0.69669
174.29401,0.71053
174.05294,0.72859
173.81187,0.74849
173.57080,0.76512
173.32973,0.77471
173.08866,0.77876
172.84759,0.78211
172.60652,0.78791
172.36545,0.79551
172.12438,0.80182
171.88331,0.80436
171.64224,0.80390
171.40117,0.80382
171.16010,0.80708
170.91902,0.81292
170.67795,0.81521
170.43688,0.80735
170.19581,0.79100
169.95474,0.77573
169.71367,0.76911
169.47260,0.77041
169.23153,0.77270
168.99046,0.77034
168.74939,0.76486
168.50832,0.76120
168.26725,0.76013
168.02618,0.75840
167.78511,0.75549
167.54404,0.75462
167.30297,0.75643
167.06190,0.75634
166.82083,0.75102
166.57975,0.74427
166.33868,0.74313
166.09761,0.74991
165.85654,0.76008
165.61547,0.76832
165.37440,0.77408
165.13333,0.78027
164.89226,0.78867
164.65119,0.79745
164.41012,0.80247
164.16905,0.80226
163.92798,0.80111
163.68691,0.80517
163.44584,0.81647
163.20477,0.83180
162.96370,0.84569
162.72263,0.85372
162.48156,0.85408
162.24048,0.84738
161.99941,0.83738
161.75834,0.83150
161.51727,0.83616
161.27620,0.85027
161.03513,0.86550
160.79406,0.87335
160.55299,0.87111
160.31192,0.86241
160.07085,0.85316
159.82978,0.84719
159.58871,0.84455
159.34764,0.84226
159.10657,0.83705
158.86550,0.82799
158.62443,0.81693
158.38336,0.80695
158.14229,0.80095
157.90121,0.79990
157.66014,0.80107
157.41907,0.80010
157.17800,0.79624
156.93693,0.79271
156.69586,0.79126
156.45479,0.79029
156.21372,0.78828
155.97265,0.78485
155.73158,0.77872
155.49051,0.76951
155.24944,0.76156
155.00837,0.75977
154.76730,0.76112
154.52623,0.75708
154.28516,0.74517
154.04409,0.73099
153.80302,0.71834
153.56194,0.70519
153.32087,0.68893
153.07980,0.67019
152.83873,0.65145
152.59766,0.63536
152.35659,0.62372
152.11552,0.61596
151.87445,0.60929
151.63338,0.60103
151.39231,0.59007
151.15124,0.57724
150.91017,0.56442
150.66910,0.55309
150.42803,0.54331
150.18696,0.53428
149.94589,0.52551
149.70482,0.51722
149.46375,0.50946
149.22267,0.50169
148.98160,0.49391
148.74053,0.48736
148.49946,0.48264
148.25839,0.47862
148.01732,0.47432
147.77625,0.47047
147.53518,0.46807
147.29411,0.46665
147.05304,0.46511
146.81197,0.46346
146.57090,0.46264
146.32983,0.46333
146.08876,0.46543
145.84769,0.46836
145.60662,0.47196
145.36555,0.47700
145.12448,0.48403
144.88340,0.49124
144.64233,0.49566
144.40126,0.49687
144.16019,0.49766
143.91912,0.50061
143.67805,0.50484
143.43698,0.50661
143.19591,0.50323
142.95484,0.49626
142.71377,0.48923
142.47270,0.48289
142.23163,0.47449
141.99056,0.46193
141.74949,0.44712
141.50842,0.43469
141.26735,0.42761
141.02628,0.42478
140.78521,0.42345
140.54413,0.42269
140.30306,0.42300
140.06199,0.42400
139.82092,0.42477
139.57985,0.42569
139.33878,0.42803
139.09771,0.43226
138.85664,0.43731
138.61557,0.44160
138.37450,0.44453
138.13343,0.44767
137.89236,0.45412
137.65129,0.46549
137.41022,0.47977
137.16915,0.49338
136.92808,0.50536
136.68701,0.51758
136.44594,0.53162
136.20486,0.54761
135.96379,0.56517
135.72272,0.58369
135.48165,0.60278
135.24058,0.62309
134.99951,0.64500
134.75844,0.66654
134.51737,0.68525
134.27630,0.70317
134.03523,0.72600
133.79416,0.75510
133.55309,0.78371
133.31202,0.80451
133.07095,0.81856
132.82988,0.83214
132.58881,0.84824
132.34774,0.86365
132.10667,0.87326
131.86559,0.87650
131.62452,0.87831
131.38345,0.88325
131.14238,0.89083
130.90131,0.89740
130.66024,0.89939
130.41917,0.89304
130.17810,0.87532
129.93703,0.84836
129.69596,0.81881
129.45489,0.79128
129.21382,0.76565
128.97275,0.74088
128.73168,0.71867
128.49061,0.70100
128.24954,0.68624
128.00847,0.66996
127.76740,0.64888
127.52632,0.62300
127.28525,0.59527
127.04418,0.56948
126.80311,0.54775
126.56204,0.52965
126.32097,0.51342
126.07990,0.49766
125.83883,0.48209
125.59776,0.46741
125.35669,0.45432
125.11562,0.44308
124.87455,0.43397
124.63348,0.42694
124.39241,0.42043
124.15134,0.41216
123.91027,0.40170
123.66920,0.39115
123.42812,0.38295
123.18705,0.37794
122.94598,0.37551
122.70491,0.37462
122.46384,0.37413
122.22277,0.37299
121.98170,0.37116
121.74063,0.36934
121.49956,0.36789
121.25849,0.36732
121.01742,0.36914
120.77635,0.37458
120.53528,0.38248
120.29421,0.39009
120.05314,0.39634
119.81207,0.40339
119.57100,0.41454
119.32993,0.43129
119.08885,0.45222
118.84778,0.47517
118.60671,0.49897
118.36564,0.52201
118.12457,0.54194
117.88350,0.55898
117.64243,0.57622
117.40136,0.59427
117.16029,0.60937
116.91922,0.61932
116.67815,0.62655
116.43708,0.63299
116.19601,0.63649
115.95494,0.63386
115.71387,0.62504
115.47280,0.61379
115.23173,0.60344
114.99066,0.59297
114.74958,0.57905
114.50851,0.56143
114.26744,0.54440
114.02637,0.53207
113.78530,0.52509
113.54423,0.52244
113.30316,0.52309
113.06209,0.52489
112.82102,0.52554
112.57995,0.52646
112.33888,0.53141
112.09781,0.53991
111.85674,0.54621
111.61567,0.54679
111.37460,0.54478
111.13353,0.54485
110.89246,0.54673
110.65139,0.54633
110.41031,0.54201
110.16924,0.53683
109.92817,0.53404
109.68710,0.53276
109.44603,0.52959
109.20496,0.52167
108.96389,0.50745
108.72282,0.48778
108.48175,0.46720
108.24068,0.45103
107.99961,0.44016
107.75854,0.43078
107.51747,0.41955
107.27640,0.40660
107.03533,0.39326
106.79426,0.37999
106.55319,0.36761
106.31212,0.35756
106.07104,0.34994
105.82997,0.34293
105.58890,0.33441
105.34783,0.32383
105.10676,0.31312
104.86569,0.30537
104.62462,0.30154
104.38355,0.29952
104.14248,0.29660
103.90141,0.29094
103.66034,0.28173
103.41927,0.27042
103.17820,0.26014
102.93713,0.25260
102.69606,0.24710
102.45499,0.24224
102.21392,0.23706
101.97285,0.23154
101.73177,0.22688
101.49070,0.22365
101.24963,0.22031
101.00856,0.21587
100.76749,0.21216
100.52642,0.21098
100.28535,0.21076
100.04428,0.20902
99.80321,0.20591
99.56214,0.20312
99.32107,0.20124
99.08000,0.19979
98.83893,0.19821
98.59786,0.19610
98.35679,0.19365
98.11572,0.19202
97.87465,0.19246
97.63358,0.19499
97.39250,0.19810
97.15143,0.20019
96.91036,0.20156
96.66929,0.20408
96.42822,0.20813
96.18715,0.21201
95.94608,0.21483
95.70501,0.21773
95.46394,0.22212
95.22287,0.22826
94.98180,0.23514
94.74073,0.24092
94.49966,0.24441
94.25859,0.24616
94.01752,0.24723
93.77645,0.24762
93.53538,0.24682
93.29431,0.24523
93.05323,0.24425
92.81216,0.24468
92.57109,0.24556
92.33002,0.24558
92.08895,0.24561
91.84788,0.24760
91.60681,0.25161
91.36574,0.25655
91.12467,0.26352
90.88360,0.27552
90.64253,0.29366
90.40146,0.31569
90.16039,0.33879
89.91932,0.36301
89.67825,0.39156
89.43718,0.42716
89.19611,0.46769
88.95504,0.50586
88.71396,0.53482
88.47289,0.55292
88.23182,0.56105
87.99075,0.55837
87.74968,0.54338
87.50861,0.51702
87.26754,0.48339
87.02647,0.44809
86.78540,0.41570
86.54433,0.38795
86.30326,0.36406
86.06219,0.34229
85.82112,0.32185
85.58005,0.30358
85.33898,0.28812
85.09791,0.27407
84.85684,0.25920
84.61577,0.24318
84.37469,0.22787
84.13362,0.21553
83.89255,0.20660
83.65148,0.19913
83.41041,0.19114
83.16934,0.18337
82.92827,0.17752
82.68720,0.17335
82.44613,0.16937
82.20506,0.16506
81.96399,0.16089
81.72292,0.15762
81.48185,0.15576
81.24078,0.15470
80.99971,0.15313
80.75864,0.15078
80.51757,0.14844
80.27650,0.14629
80.03542,0.14384
79.79435,0.14113
79.55328,0.13887
79.31221,0.13774
79.07114,0.13780
78.83007,0.13805
78.58900,0.13685
78.34793,0.13329
78.10686,0.12819
77.86579,0.12337
77.62472,0.12018
77.38365,0.11867
77.14258,0.11751
76.90151,0.11522
76.66044,0.11198
76.41937,0.10943
76.17830,0.10846
75.93723,0.10815
75.69615,0.10736
75.45508,0.10596
75.21401,0.10406
74.97294,0.10143
74.73187,0.09858
74.49080,0.09715
74.24973,0.09854
74.00866,0.10217
73.76759,0.10565
73.52652,0.10694
73.28545,0.10574
73.04438,0.10289
72.80331,0.09969
72.56224,0.09776
72.32117,0.09810
72.08010,0.10000
71.83903,0.10170
71.59796,0.10234
71.35688,0.10280
71.11581,0.10497
70.87474,0.11016
70.63367,0.11786
70.39260,0.12634
70.15153,0.13434
69.91046,0.14167
69.66939,0.14849
69.42832,0.15457
69.18725,0.15890
68.94618,0.15991
68.70511,0.15650
68.46404,0.14935
68.22297,0.14057
67.98190,0.13196
67.74083,0.12403
67.49976,0.11686
67.25869,0.11115
67.01761,0.10754
66.77654,0.10517
66.53547,0.10235
66.29440,0.09918
66.05333,0.09745
65.81226,0.09775
65.57119,0.09902
65.33012,0.10091
65.08905,0.10429
64.84798,0.10954
64.60691,0.11624
64.36584,0.12421
64.12477,0.13278
63.88370,0.13900
63.64263,0.13876
63.40156,0.13088
63.16049,0.11900
62.91942,0.10823
62.67834,0.10089
62.43727,0.09626
62.19620,0.09305
61.95513,0.09044
61.71406,0.08763
61.47299,0.08390
61.23192,0.07912
60.99085,0.07414
60.74978,0.07092
60.50871,0.07107
60.26764,0.07406
60.02657,0.07769
59.78550,0.08046
59.54443,0.08248
59.30336,0.08418
59.06229,0.08540
58.82122,0.08591
58.58015,0.08587
58.33907,0.08485
58.09800,0.08135
57.85693,0.07486
57.61586,0.06790
57.37479,0.06429
57.13372,0.06535
56.89265,0.06884
56.65158,0.07101
56.41051,0.06925
56.16944,0.06491
55.92837,0.06276
55.68730,0.06546
55.44623,0.06979
55.20516,0.07082
54.96409,0.06853
54.72302,0.06739
54.48195,0.07093
54.24088,0.07867
53.99980,0.08673
53.75873,0.09012
53.51766,0.08705
53.27659,0.08152
53.03552,0.07920
52.79445,0.08124
52.55338,0.08464
52.31231,0.08726
52.07124,0.08844
51.83017,0.08596
51.58910,0.07777
51.34803,0.06693
51.10696,0.06022
50.86589,0.06053
50.62482,0.06390
50.38375,0.06518
50.14268,0.06365
49.90161,0.06265
49.66053,0.06528
49.41946,0.07104
49.17839,0.07615
48.93732,0.07613
48.69625,0.06959
48.45518,0.05974
48.21411,0.05135
47.97304,0.04696
47.73197,0.04659
47.49090,0.04831
47.24983,0.04874
47.00876,0.04650
46.76769,0.04418
46.52662,0.04466
46.28555,0.04794
46.04448,0.05294
45.80341,0.05902
45.56234,0.06440
45.32126,0.06590
45.08019,0.06274
44.83912,0.05766
44.59805,0.05244
44.35698,0.04575
44.11591,0.03707
43.87484,0.02992
43.63377,0.02897
43.39270,0.03472
43.15163,0.04249
42.91056,0.04701
42.66949,0.04879
42.42842,0.05343
42.18735,0.06178
41.94628,0.06545
41.70521,0.05862
41.46414,0.04910
41.22307,0.04909
40.98199,0.05943
40.74092,0.06992
40.49985,0.07252
40.25878,0.06981
40.01771,0.07098
39.77664,0.08027
39.53557,0.09053
39.29450,0.09240
39.05343,0.08856
38.81236,0.09016
38.57129,0.09948
38.33022,0.10729
38.08915,0.10635
37.84808,0.09855
37.60701,0.09045
37.36594,0.08730
37.12487,0.09293
36.88380,0.10697
36.64272,0.12077
36.40165,0.12473
36.16058,0.11881
35.91951,0.11242
35.67844,0.11204
35.43737,0.11269
35.19630,0.10767
34.95523,0.09806
34.71416,0.09076
34.47309,0.09174
34.23202,0.09982
33.99095,0.10814
33.74988,0.11258
33.50881,0.11664
33.26774,0.12738
33.02667,0.15060
32.78560,0.19037
32.54453,0.23861
32.30345,0.26744
32.06238,0.26038
31.82131,0.23615
31.58024,0.22020
31.33917,0.21469
31.09810,0.20301
30.85703,0.17666
30.61596,0.14610
30.37489,0.12623
30.13382,0.12194
29.89275,0.13007
29.65168,0.14722
29.41061,0.16369
29.16954,0.16823
28.92847,0.16618
28.68740,0.17002
28.44633,0.18543
28.20526,0.21446
27.96418,0.24576
27.72311,0.25757
27.48204,0.24853
27.24097,0.24437
26.99990,0.28024
26.75883,0.35960
26.51776,0.42700
26.27669,0.42764
26.03562,0.36390
25.79455,0.27663
25.55348,0.21684
25.31241,0.21202
25.07134,0.24452
24.83027,0.27625
24.58920,0.27993
24.34813,0.25525
24.10706,0.22732
23.86599,0.23475
23.62491,0.29764
23.38384,0.38838
23.14277,0.46697
22.90170,0.53402
22.66063,0.58913
22.41956,0.59899
22.17849,0.56782
21.93742,0.53822
21.69635,0.55915
21.45528,0.61748
21.21421,0.62683
20.97314,0.56275
20.73207,0.53165
20.49100,0.60777
20.24993,0.76102
20.00886,0.84120
19.76779,0.75298
19.52672,0.65847
19.28564,0.62445
19.04457,0.62521
18.80350,0.61906
18.56243,0.64808
18.32136,0.83532
18.08029,1.19082
17.83922,1.06482
17.59815,0.82274
17.35708,0.71502
17.11601,0.69657
16.87494,0.66293
16.63387,0.60019
16.39280,0.58017
16.15173,0.59484
15.91066,0.59394
15.66959,0.59801
15.42852,0.58890
15.18745,0.56473
14.94637,0.54303
14.70530,0.57168
14.46423,0.65071
14.22316,0.63857
13.98209,0.62361
13.74102,0.64293
13.49995,0.64916
13.25888,0.68288
13.01781,0.69337
12.77674,0.61487
12.53567,0.55918
12.29460,0.60317
12.05353,0.72321
11.81246,0.89514
11.57139,1.11058
11.33032,1.30749
11.08925,1.20369
10.84818,1.00861
10.60710,0.94486
10.36603,1.06242
10.12496,1.23218
9.88389,1.31536
9.64282,1.19416
9.40175,0.95482
9.16068,1.02223
8.91961,1.20285
8.67854,0.85482
8.43747,0.68768
8.19640,0.65533
7.95533,0.61824
7.71426,0.54174
7.47319,0.50045
7.23212,0.51621
6.99105,0.65357
6.74998,0.91383
6.50891,0.96546
6.26783,0.70055
6.02676,0.50208
5.78569,0.44089
5.54462,0.50681
5.30355,0.64111
5.06248,0.71005
4.82141,0.63572
4.58034,0.51025
4.33927,0.46838
4.09820,0.51914
3.85713,0.61317
3.61606,0.79589
3.37499,0.79234
3.13392,0.76796
2.89285,0.78735
2.65178,0.75840
2.41071,0.72876
2.16964,0.70441
1.92856,0.67885
1.68749,0.66920
1.44642,0.71633
1.20535,0.61700
0.96428,0.58478
0.72321,0.69110
0.48214,0.84014
0.24107,0.77030
-0.00000,0.40984
