399.69498,1.93202
399.45391,1.96443
399.21284,1.98302
398.97177,1.97105
398.73070,1.94902
398.48963,1.95417
398.24856,1.95231
398.00749,1.91709
397.76642,1.84633
397.52535,1.76429
397.28428,1.70001
397.04321,1.67267
396.80214,1.68936
396.56107,1.74022
396.32000,1.79267
396.07892,1.80513
395.83785,1.78375
395.59678,1.76698
395.35571,1.76884
395.11464,1.77395
394.87357,1.79227
394.63250,1.85251
394.39143,1.96655
394.15036,2.10241
393.90929,2.05980
393.66822,1.93943
393.42715,1.90875
393.18608,1.91703
392.94501,1.88683
392.70394,1.86928
392.46287,1.85045
392.22180,1.80476
391.98073,1.78412
391.73965,1.81467
391.49858,1.88476
391.25751,1.93755
391.01644,1.89365
390.77537,1.85022
390.53430,1.92933
390.29323,2.19740
390.05216,2.53249
389.81109,2.51269
389.57002,2.42633
389.32895,2.27331
389.08788,1.98935
388.84681,1.83955
388.60574,1.80803
388.36467,1.79522
388.12360,1.76050
387.88253,1.77088
387.64146,1.88330
387.40038,2.02047
387.15931,1.99530
386.91824,1.92168
386.67717,1.93125
386.43610,2.04187
386.19503,2.21665
385.95396,2.21664
385.71289,2.04970
385.47182,1.92848
385.23075,1.84543
384.98968,1.80300
384.74861,1.84398
384.50754,2.06228
384.26647,2.34334
384.02540,2.06692
383.78433,1.80717
383.54326,1.67743
383.30219,1.59375
383.06111,1.57221
382.82004,1.66089
382.57897,1.86712
382.33790,2.08072
382.09683,2.28496
381.85576,2.26135
381.61469,2.25604
381.37362,2.18829
381.13255,1.97375
380.89148,1.82030
380.65041,1.79376
380.40934,1.82513
380.16827,1.82796
379.92720,1.75041
379.68613,1.63504
379.44506,1.62481
379.20399,1.69024
378.96292,1.75753
378.72184,1.82794
378.48077,1.90044
378.23970,1.92446
377.99863,2.00100
377.75756,2.19513
377.51649,2.14016
377.27542,2.18226
377.03435,2.22020
376.79328,2.02604
376.55221,1.99054
376.31114,2.04381
376.07007,2.05022
375.82900,2.03302
375.58793,1.98396
375.34686,1.92034
375.10579,1.86247
374.86472,1.86202
374.62365,1.93038
374.38257,2.05850
374.14150,2.13177
373.90043,2.17691
373.65936,2.30170
373.41829,2.53644
373.17722,2.25874
372.93615,2.01110
372.69508,1.98251
372.45401,2.06150
372.21294,2.05511
371.97187,1.99356
371.73080,1.86494
371.48973,1.72124
371.24866,1.63492
371.00759,1.61942
370.76652,1.65573
370.52545,1.69335
370.28437,1.70061
370.04330,1.68977
369.80223,1.67856
369.56116,1.68488
369.32009,1.70861
369.07902,1.74394
368.83795,1.77259
368.59688,1.74712
368.35581,1.68815
368.11474,1.65106
367.87367,1.64300
367.63260,1.65607
367.39153,1.67997
367.15046,1.69765
366.90939,1.69367
366.66832,1.66763
366.42725,1.63266
366.18618,1.60811
365.94510,1.60431
365.70403,1.60506
365.46296,1.59635
365.22189,1.57800
364.98082,1.56045
364.73975,1.55160
364.49868,1.53761
364.25761,1.52128
364.01654,1.53465
363.77547,1.58053
363.53440,1.61466
363.29333,1.59705
363.05226,1.54919
362.81119,1.51912
362.57012,1.51802
362.32905,1.52566
362.08798,1.52449
361.84691,1.51718
361.60583,1.51714
361.36476,1.52829
361.12369,1.54319
360.88262,1.55743
360.64155,1.56694
360.40048,1.54892
360.15941,1.50352
359.91834,1.47474
359.67727,1.47811
359.43620,1.49226
359.19513,1.49949
358.95406,1.50803
358.71299,1.52732
358.47192,1.54436
358.23085,1.54781
357.98978,1.55114
357.74871,1.55992
357.50764,1.56289
357.26656,1.55996
357.02549,1.56256
356.78442,1.57159
356.54335,1.57427
356.30228,1.56828
356.06121,1.56218
355.82014,1.55245
355.57907,1.53811
355.33800,1.53444
355.09693,1.55333
354.85586,1.57746
354.61479,1.58142
354.37372,1.56931
354.13265,1.56011
353.89158,1.55131
353.65051,1.52775
353.40944,1.49298
353.16837,1.46422
352.92729,1.45663
352.68622,1.47115
352.44515,1.49520
352.20408,1.52104
351.96301,1.54971
351.72194,1.57527
351.48087,1.58358
351.23980,1.56508
350.99873,1.52463
350.75766,1.48342
350.51659,1.46190
350.27552,1.46273
350.03445,1.47863
349.79338,1.50409
349.55231,1.52836
349.31124,1.54033
349.07017,1.54127
348.82910,1.53849
348.58802,1.53460
348.34695,1.52605
348.10588,1.51555
347.86481,1.51787
347.62374,1.54389
347.38267,1.58770
347.14160,1.62652
346.90053,1.63800
346.65946,1.61956
346.41839,1.58242
346.17732,1.54445
345.93625,1.52130
345.69518,1.52267
345.45411,1.55483
345.21304,1.60438
344.97197,1.63396
344.73090,1.62219
344.48983,1.58680
344.24875,1.55731
344.00768,1.54680
343.76661,1.55808
343.52554,1.58504
343.28447,1.60624
343.04340,1.61004
342.80233,1.61018
342.56126,1.61361
342.32019,1.60893
342.07912,1.60478
341.83805,1.61760
341.59698,1.64431
341.35591,1.67470
341.11484,1.69147
340.87377,1.68934
340.63270,1.69041
340.39163,1.72568
340.15056,1.81786
339.90948,1.94765
339.66841,2.01662
339.42734,1.94605
339.18627,1.86738
338.94520,1.82980
338.70413,1.83477
338.46306,1.88794
338.22199,1.98199
337.98092,2.05547
337.73985,2.03867
337.49878,1.96019
337.25771,1.88862
337.01664,1.85293
336.77557,1.83832
336.53450,1.82201
336.29343,1.82176
336.05236,1.82269
335.81129,1.80341
335.57021,1.81118
335.32914,1.90289
335.08807,2.07578
334.84700,2.24837
334.60593,2.41049
334.36486,2.35346
334.12379,2.13451
333.88272,2.01024
333.64165,1.92684
333.40058,1.85232
333.15951,1.80638
332.91844,1.79795
332.67737,1.79699
332.43630,1.76895
332.19523,1.71331
331.95416,1.65992
331.71309,1.65112
331.47202,1.71455
331.23094,1.84906
330.98987,1.96313
330.74880,1.93702
330.50773,1.83791
330.26666,1.73465
330.02559,1.68010
329.78452,1.67580
329.54345,1.69865
329.30238,1.71840
329.06131,1.70512
328.82024,1.67481
328.57917,1.68103
328.33810,1.73183
328.09703,1.76827
327.85596,1.75048
327.61489,1.72305
327.37382,1.71762
327.13275,1.72468
326.89167,1.74209
326.65060,1.76404
326.40953,1.77806
326.16846,1.77560
325.92739,1.74835
325.68632,1.70221
325.44525,1.64810
325.20418,1.61107
324.96311,1.62561
324.72204,1.72294
324.48097,1.90914
324.23990,2.09811
323.99883,2.12551
323.75776,1.98152
323.51669,1.85797
323.27562,1.78834
323.03455,1.74724
322.79348,1.75449
322.55240,1.81879
322.31133,1.90863
322.07026,1.97676
321.82919,1.96419
321.58812,1.89005
321.34705,1.87535
321.10598,1.92865
320.86491,1.99493
320.62384,1.97630
320.38277,1.84712
320.14170,1.75794
319.90063,1.77630
319.65956,1.82189
319.41849,1.87832
319.17742,1.98906
318.93635,2.11915
318.69528,2.24112
318.45421,2.05156
318.21313,1.90888
317.97206,1.99894
317.73099,1.98221
317.48992,1.91250
317.24885,1.82429
317.00778,1.83060
316.76671,1.95288
316.52564,2.14373
316.28457,2.07590
316.04350,1.98436
315.80243,1.98526
315.56136,2.01494
315.32029,2.14049
315.07922,2.34673
314.83815,2.24435
314.59708,2.19486
314.35601,2.22897
314.11494,2.14963
313.87386,2.06180
313.63279,2.09938
313.39172,2.24671
313.15065,2.16441
312.90958,2.00814
312.66851,1.88809
312.42744,1.86478
312.18637,1.86699
311.94530,1.99945
311.70423,2.26131
311.46316,2.12908
311.22209,2.00779
310.98102,1.99441
310.73995,1.99560
310.49888,1.96011
310.25781,1.91830
310.01674,1.94429
309.77567,2.11971
309.53459,2.38520
309.29352,2.24808
309.05245,2.05762
308.81138,1.93636
308.57031,1.93674
308.32924,2.03927
308.08817,2.04701
307.84710,1.89071
307.60603,1.76192
307.36496,1.67087
307.12389,1.61702
306.88282,1.62772
306.64175,1.69920
306.40068,1.78062
306.15961,1.81770
305.91854,1.80526
305.67747,1.77230
305.43640,1.72347
305.19532,1.65000
304.95425,1.57581
304.71318,1.52334
304.47211,1.49278
304.23104,1.48370
303.98997,1.49080
303.74890,1.50353
303.50783,1.51940
303.26676,1.52638
303.02569,1.51245
302.78462,1.47975
302.54355,1.43985
302.30248,1.41066
302.06141,1.40271
301.82034,1.40950
301.57927,1.41747
301.33820,1.42006
301.09713,1.41252
300.85605,1.39420
300.61498,1.38346
300.37391,1.39425
300.13284,1.41324
299.89177,1.41886
299.65070,1.40230
299.40963,1.36890
299.16856,1.33440
298.92749,1.30912
298.68642,1.29126
298.44535,1.27968
298.20428,1.27559
297.96321,1.27202
297.72214,1.26295
297.48107,1.25702
297.24000,1.26243
296.99893,1.27009
296.75786,1.26993
296.51678,1.26854
296.27571,1.27349
296.03464,1.27926
295.79357,1.27747
295.55250,1.26793
295.31143,1.25506
295.07036,1.24132
294.82929,1.22644
294.58822,1.21033
294.34715,1.19485
294.10608,1.18261
293.86501,1.17621
293.62394,1.17700
293.38287,1.18355
293.14180,1.19208
292.90073,1.19907
292.65966,1.20476
292.41859,1.21183
292.17751,1.21879
291.93644,1.21739
291.69537,1.20040
291.45430,1.17182
291.21323,1.14515
290.97216,1.13076
290.73109,1.12915
290.49002,1.13494
290.24895,1.14359
290.00788,1.15431
289.76681,1.16720
289.52574,1.17753
289.28467,1.17595
289.04360,1.15874
288.80253,1.13473
288.56146,1.11540
288.32039,1.10396
288.07932,1.09845
287.83824,1.09769
287.59717,1.10014
287.35610,1.10267
287.11503,1.10301
286.87396,1.10071
286.63289,1.09626
286.39182,1.09175
286.15075,1.08890
285.90968,1.08651
285.66861,1.08315
285.42754,1.08103
285.18647,1.08318
284.94540,1.08818
284.70433,1.09137
284.46326,1.09069
284.22219,1.08748
283.98112,1.08236
283.74005,1.07451
283.49897,1.06575
283.25790,1.06164
283.01683,1.06688
282.77576,1.08090
282.53469,1.09760
282.29362,1.10783
282.05255,1.10543
281.81148,1.09355
281.57041,1.07981
281.32934,1.06943
281.08827,1.06626
280.84720,1.07147
280.60613,1.07843
280.36506,1.07766
280.12399,1.07063
279.88292,1.06673
279.64185,1.06771
279.40078,1.06708
279.15970,1.06099
278.91863,1.05335
278.67756,1.05137
278.43649,1.05739
278.19542,1.06493
277.95435,1.06624
277.71328,1.06293
277.47221,1.06146
277.23114,1.06216
276.99007,1.06094
276.74900,1.05863
276.50793,1.05979
276.26686,1.06492
276.02579,1.07005
275.78472,1.07143
275.54365,1.06952
275.30258,1.06848
275.06151,1.07008
274.82043,1.06986
274.57936,1.06253
274.33829,1.04969
274.09722,1.03808
273.85615,1.03315
273.61508,1.03656
273.37401,1.04545
273.13294,1.05397
272.89187,1.05904
272.65080,1.06195
272.40973,1.06320
272.16866,1.06281
271.92759,1.06371
271.68652,1.06827
271.44545,1.07419
271.20438,1.07850
270.96331,1.08299
270.72224,1.09129
270.48116,1.10315
270.24009,1.11274
269.99902,1.11246
269.75795,1.10060
269.51688,1.08527
269.27581,1.07730
269.03474,1.07856
268.79367,1.08107
268.55260,1.07963
268.31153,1.07909
268.07046,1.08700
267.82939,1.10443
267.58832,1.12460
267.34725,1.13838
267.10618,1.14214
266.86511,1.14089
266.62404,1.14135
266.38297,1.14371
266.14189,1.14351
265.90082,1.14031
265.65975,1.13837
265.41868,1.14061
265.17761,1.14667
264.93654,1.15378
264.69547,1.15784
264.45440,1.15667
264.21333,1.15338
263.97226,1.15328
263.73119,1.15644
263.49012,1.15940
263.24905,1.16450
263.00798,1.17592
262.76691,1.18987
262.52584,1.19936
262.28477,1.20423
262.04370,1.20849
261.80262,1.21199
261.56155,1.21265
261.32048,1.21434
261.07941,1.22427
260.83834,1.24803
260.59727,1.28918
260.35620,1.34403
260.11513,1.39459
259.87406,1.41855
259.63299,1.41921
259.39192,1.41888
259.15085,1.42537
258.90978,1.43158
258.66871,1.43690
258.42764,1.45242
258.18657,1.48047
257.94550,1.50736
257.70443,1.52547
257.46335,1.53946
257.22228,1.55378
256.98121,1.57043
256.74014,1.59186
256.49907,1.61853
256.25800,1.64457
256.01693,1.66350
255.77586,1.68555
255.53479,1.72374
255.29372,1.76622
255.05265,1.79265
254.81158,1.80762
254.57051,1.82129
254.32944,1.82607
254.08837,1.81604
253.84730,1.80295
253.60623,1.80172
253.36516,1.81886
253.12408,1.85422
252.88301,1.89833
252.64194,1.95041
252.40087,2.03498
252.15980,2.14783
251.91873,2.20581
251.67766,2.16671
251.43659,2.12319
251.19552,2.15217
250.95445,2.24833
250.71338,2.30482
250.47231,2.22403
250.23124,2.13957
249.99017,2.08070
249.74910,2.05317
249.50803,2.13169
249.26696,2.34536
249.02589,2.48890
248.78481,2.31944
248.54374,2.25056
248.30267,2.22605
248.06160,2.20293
247.82053,2.17562
247.57946,2.11981
247.33839,2.09630
247.09732,2.10579
246.85625,2.14834
246.61518,2.18683
246.37411,2.10906
246.13304,2.01322
245.89197,1.95452
245.65090,1.92543
245.40983,1.90132
245.16876,1.85670
244.92769,1.80861
244.68661,1.77943
244.44554,1.76826
244.20447,1.76119
243.96340,1.73725
243.72233,1.67985
243.48126,1.60640
243.24019,1.55101
242.99912,1.52223
242.75805,1.49863
242.51698,1.45820
242.27591,1.40494
242.03484,1.35639
241.79377,1.31859
241.55270,1.28609
241.31163,1.25527
241.07056,1.22863
240.82949,1.20794
240.58842,1.18713
240.34734,1.15789
240.10627,1.12178
239.86520,1.08896
239.62413,1.06602
239.38306,1.04990
239.14199,1.03452
238.90092,1.01772
238.65985,0.99960
238.41878,0.98060
238.17771,0.96142
237.93664,0.94363
237.69557,0.93030
237.45450,0.92366
237.21343,0.92146
236.97236,0.91808
236.73129,0.91048
236.49022,0.90000
236.24915,0.88893
236.00807,0.87810
235.76700,0.86775
235.52593,0.85888
235.28486,0.85203
235.04379,0.84583
234.80272,0.83837
234.56165,0.82915
234.32058,0.81930
234.07951,0.81150
233.83844,0.80918
233.59737,0.81276
233.35630,0.81730
233.11523,0.81702
232.87416,0.81098
232.63309,0.80168
232.39202,0.79144
232.15095,0.78330
231.90988,0.78035
231.66880,0.78116
231.42773,0.77988
231.18666,0.77396
230.94559,0.76777
230.70452,0.76633
230.46345,0.76871
230.22238,0.76952
229.98131,0.76569
229.74024,0.76017
229.49917,0.75849
229.25810,0.76285
229.01703,0.76892
228.77596,0.76946
228.53489,0.76311
228.29382,0.75653
228.05275,0.75434
227.81168,0.75252
227.57061,0.74637
227.32953,0.73917
227.08846,0.73627
226.84739,0.73694
226.60632,0.73689
226.36525,0.73478
226.12418,0.73239
225.88311,0.73093
225.64204,0.72972
225.40097,0.72845
225.15990,0.72902
224.91883,0.73324
224.67776,0.73859
224.43669,0.73954
224.19562,0.73489
223.95455,0.73043
223.71348,0.73156
223.47241,0.73645
223.23134,0.73940
222.99026,0.73884
222.74919,0.73815
222.50812,0.74027
222.26705,0.74496
222.02598,0.75031
221.78491,0.75494
221.54384,0.75909
221.30277,0.76375
221.06170,0.76852
220.82063,0.77232
220.57956,0.77650
220.33849,0.78401
220.09742,0.79469
219.85635,0.80522
219.61528,0.81412
219.37421,0.82236
219.13314,0.82921
218.89207,0.83305
218.65099,0.83678
218.40992,0.84635
218.16885,0.86292
217.92778,0.88075
217.68671,0.89406
217.44564,0.90209
217.20457,0.90688
216.96350,0.91072
216.72243,0.91627
216.48136,0.92447
216.24029,0.93243
215.99922,0.93691
215.75815,0.93984
215.51708,0.94759
215.27601,0.96466
215.03494,0.98852
214.79387,1.00953
214.55280,1.01791
214.31172,1.01304
214.07065,1.00378
213.82958,1.00043
213.58851,1.00831
213.34744,1.02564
213.10637,1.04447
212.86530,1.05591
212.62423,1.05762
212.38316,1.05410
212.14209,1.04978
211.90102,1.04570
211.65995,1.04211
211.41888,1.03971
211.17781,1.03771
210.93674,1.03426
210.69567,1.02967
210.45460,1.02689
210.21353,1.02739
209.97245,1.02915
209.73138,1.02993
209.49031,1.02802
209.24924,1.02177
209.00817,1.01328
208.76710,1.00904
208.52603,1.01301
208.28496,1.02042
208.04389,1.02176
207.80282,1.01398
207.56175,1.00316
207.32068,0.99637
207.07961,0.99548
206.83854,0.99726
206.59747,0.99739
206.35640,0.99365
206.11533,0.98563
205.87426,0.97388
205.63318,0.96033
205.39211,0.94736
205.15104,0.93524
204.90997,0.92264
204.66890,0.91125
204.42783,0.90477
204.18676,0.90215
203.94569,0.89708
203.70462,0.88627
203.46355,0.87364
203.22248,0.86451
202.98141,0.85997
202.74034,0.85764
202.49927,0.85456
202.25820,0.84916
202.01713,0.84093
201.77606,0.82924
201.53499,0.81401
201.29391,0.79803
201.05284,0.78622
200.81177,0.78040
200.57070,0.77681
200.32963,0.77116
200.08856,0.76352
199.84749,0.75614
199.60642,0.74890
199.36535,0.73949
199.12428,0.72714
198.88321,0.71382
198.64214,0.70140
198.40107,0.68968
198.16000,0.67848
197.91893,0.66972
197.67786,0.66518
197.43679,0.66304
197.19572,0.65913
196.95464,0.65105
196.71357,0.64030
196.47250,0.63088
196.23143,0.62591
195.99036,0.62491
195.74929,0.62406
195.50822,0.61948
195.26715,0.61072
195.02608,0.60069
194.78501,0.59272
194.54394,0.58798
194.30287,0.58517
194.06180,0.58227
193.82073,0.57787
193.57966,0.57183
193.33859,0.56578
193.09752,0.56173
192.85645,0.55916
192.61537,0.55545
192.37430,0.54992
192.13323,0.54521
191.89216,0.54340
191.65109,0.54267
191.41002,0.53950
191.16895,0.53359
190.92788,0.52829
190.68681,0.52623
190.44574,0.52678
190.20467,0.52780
189.96360,0.52805
189.72253,0.52750
189.48146,0.52645
189.24039,0.52462
188.99932,0.52131
188.75825,0.51632
188.51718,0.51054
188.27610,0.50551
188.03503,0.50274
187.79396,0.50245
187.55289,0.50306
187.31182,0.50307
187.07075,0.50257
186.82968,0.50180
186.58861,0.49975
186.34754,0.49613
186.10647,0.49283
185.86540,0.49163
185.62433,0.49203
185.38326,0.49280
185.14219,0.49369
184.90112,0.49484
184.66005,0.49583
184.41898,0.49628
184.17791,0.49618
183.93683,0.49549
183.69576,0.49457
183.45469,0.49492
183.21362,0.49772
182.97255,0.50147
182.73148,0.50327
182.49041,0.50250
182.24934,0.50117
182.00827,0.50099
181.76720,0.50197
181.52613,0.50338
181.28506,0.50469
181.04399,0.50612
180.80292,0.50879
180.56185,0.51347
180.32078,0.51946
180.07971,0.52529
179.83864,0.53018
179.59756,0.53380
179.35649,0.53586
179.11542,0.53730
178.87435,0.54043
178.63328,0.54626
178.39221,0.55288
178.15114,0.55818
177.91007,0.56274
177.66900,0.56862
177.42793,0.57695
177.18686,0.58724
176.94579,0.59824
176.70472,0.60947
176.46365,0.62145
176.22258,0.63465
175.98151,0.64871
175.74044,0.66331
175.49937,0.67877
175.25829,0.69421
175.01722,0.70666
174.77615,0.71448
174.53508,0.71998
174.29401,0.72735
174.05294,0.73845
173.81187,0.75218
173.57080,0.76703
173.32973,0.78191
173.08866,0.79507
172.84759,0.80516
172.60652,0.81301
172.36545,0.81956
172.12438,0.82337
171.88331,0.82299
171.64224,0.82038
171.40117,0.81912
171.16010,0.82058
170.91902,0.82305
170.67795,0.82257
170.43688,0.81588
170.19581,0.80478
169.95474,0.79520
169.71367,0.79049
169.47260,0.78861
169.23153,0.78565
168.99046,0.77974
168.74939,0.77226
168.50832,0.76695
168.26725,0.76743
168.02618,0.77348
167.78511,0.78049
167.54404,0.78451
167.30297,0.78560
167.06190,0.78574
166.82083,0.78643
166.57975,0.78791
166.33868,0.78950
166.09761,0.79064
165.85654,0.79228
165.61547,0.79634
165.37440,0.80326
165.13333,0.81074
164.89226,0.81649
164.65119,0.82155
164.41012,0.82755
164.16905,0.83211
163.92798,0.83237
163.68691,0.83154
163.44584,0.83537
163.20477,0.84405
162.96370,0.85273
162.72263,0.85824
162.48156,0.86156
162.24048,0.86509
161.99941,0.86997
161.75834,0.87512
161.51727,0.87855
161.27620,0.87873
161.03513,0.87449
160.79406,0.86708
160.55299,0.86116
160.31192,0.86067
160.07085,0.86407
159.82978,0.86588
159.58871,0.86246
159.34764,0.85458
159.10657,0.84511
158.86550,0.83655
158.62443,0.83059
158.38336,0.82795
158.14229,0.82777
157.90121,0.82798
157.66014,0.82677
157.41907,0.82305
157.17800,0.81581
156.93693,0.80549
156.69586,0.79538
156.45479,0.78956
156.21372,0.78983
155.97265,0.79425
155.73158,0.79842
155.49051,0.79886
155.24944,0.79502
155.00837,0.78796
154.76730,0.77826
154.52623,0.76495
154.28516,0.74812
154.04409,0.73247
153.80302,0.72343
153.56194,0.71915
153.32087,0.71168
153.07980,0.69749
152.83873,0.68172
152.59766,0.66990
152.35659,0.66065
152.11552,0.64906
151.87445,0.63369
151.63338,0.61725
151.39231,0.60254
151.15124,0.59055
150.91017,0.58068
150.66910,0.57104
150.42803,0.55996
150.18696,0.54818
149.94589,0.53800
149.70482,0.53035
149.46375,0.52391
149.22267,0.51652
148.98160,0.50709
148.74053,0.49662
148.49946,0.48776
148.25839,0.48303
148.01732,0.48310
147.77625,0.48623
147.53518,0.48922
147.29411,0.48938
147.05304,0.48643
146.81197,0.48264
146.57090,0.48125
146.32983,0.48389
146.08876,0.48909
145.84769,0.49351
145.60662,0.49501
145.36555,0.49451
145.12448,0.49479
144.88340,0.49802
144.64233,0.50407
144.40126,0.51081
144.16019,0.51581
143.91912,0.51817
143.67805,0.51845
143.43698,0.51696
143.19591,0.51278
142.95484,0.50565
142.71377,0.49768
142.47270,0.49156
142.23163,0.48725
141.99056,0.48188
141.74949,0.47284
141.50842,0.46045
141.26735,0.44809
141.02628,0.43957
140.78521,0.43631
140.54413,0.43680
140.30306,0.43884
140.06199,0.44141
139.82092,0.44429
139.57985,0.44701
139.33878,0.44912
139.09771,0.45092
138.85664,0.45360
138.61557,0.45818
138.37450,0.46421
138.13343,0.47007
137.89236,0.47554
137.65129,0.48267
137.41022,0.49304
137.16915,0.50559
136.92808,0.51851
136.68701,0.53161
136.44594,0.54552
136.20486,0.56079
135.96379,0.57746
135.72272,0.59461
135.48165,0.61183
135.24058,0.63121
134.99951,0.65502
134.75844,0.68132
134.51737,0.70477
134.27630,0.72360
134.03523,0.74297
133.79416,0.76884
133.55309,0.80006
133.31202,0.82947
133.07095,0.85203
132.82988,0.86906
132.58881,0.88606
132.34774,0.90627
132.10667,0.92595
131.86559,0.93711
131.62452,0.93531
131.38345,0.92405
131.14238,0.91089
130.90131,0.90173
130.66024,0.89677
130.41917,0.88989
130.17810,0.87585
129.93703,0.85717
129.69596,0.83791
129.45489,0.81678
129.21382,0.79303
128.97275,0.77114
128.73168,0.75443
128.49061,0.74010
128.24954,0.72270
128.00847,0.69942
127.76740,0.67250
127.52632,0.64634
127.28525,0.62226
127.04418,0.59848
126.80311,0.57502
126.56204,0.55434
126.32097,0.53702
126.07990,0.52162
125.83883,0.50764
125.59776,0.49505
125.35669,0.48229
125.11562,0.46774
124.87455,0.45241
124.63348,0.43926
124.39241,0.42973
124.15134,0.42257
123.91027,0.41609
123.66920,0.40994
123.42812,0.40400
123.18705,0.39760
122.94598,0.39092
122.70491,0.38586
122.46384,0.38411
122.22277,0.38562
121.98170,0.38925
121.74063,0.39332
121.49956,0.39496
121.25849,0.39177
121.01742,0.38587
120.77635,0.38327
120.53528,0.38746
120.29421,0.39651
120.05314,0.40695
119.81207,0.41796
119.57100,0.43105
119.32993,0.44811
119.08885,0.46996
118.84778,0.49458
118.60671,0.51745
118.36564,0.53591
118.12457,0.55190
117.88350,0.56850
117.64243,0.58697
117.40136,0.60793
117.16029,0.63032
116.91922,0.64793
116.67815,0.65357
116.43708,0.64827
116.19601,0.63918
115.95494,0.62967
115.71387,0.61843
115.47280,0.60565
115.23173,0.59349
114.99066,0.58225
114.74958,0.57113
114.50851,0.56169
114.26744,0.55745
114.02637,0.55960
113.78530,0.56484
113.54423,0.56902
113.30316,0.57049
113.06209,0.56794
112.82102,0.55991
112.57995,0.54902
112.33888,0.54183
112.09781,0.54282
111.85674,0.55104
111.61567,0.56194
111.37460,0.57045
111.13353,0.57343
110.89246,0.57094
110.65139,0.56608
110.41031,0.56305
110.16924,0.56281
109.92817,0.56098
109.68710,0.55230
109.44603,0.53751
109.20496,0.52319
108.96389,0.51364
108.72282,0.50578
108.48175,0.49370
108.24068,0.47655
107.99961,0.45934
107.75854,0.44572
107.51747,0.43368
107.27640,0.41965
107.03533,0.40447
106.79426,0.39200
106.55319,0.38291
106.31212,0.37388
106.07104,0.36287
105.82997,0.35243
105.58890,0.34578
105.34783,0.34173
105.10676,0.33602
104.86569,0.32650
104.62462,0.31501
104.38355,0.30460
104.14248,0.29642
103.90141,0.28937
103.66034,0.28235
103.41927,0.27604
103.17820,0.27180
102.93713,0.26956
102.69606,0.26783
102.45499,0.26477
102.21392,0.25892
101.97285,0.25054
101.73177,0.24255
101.49070,0.23810
101.24963,0.23707
101.00856,0.23663
100.76749,0.23485
100.52642,0.23255
100.28535,0.23110
100.04428,0.22961
99.80321,0.22583
99.56214,0.21988
99.32107,0.21492
99.08000,0.21308
98.83893,0.21293
98.59786,0.21214
98.35679,0.21053
98.11572,0.20947
97.87465,0.20981
97.63358,0.21137
97.39250,0.21334
97.15143,0.21496
96.91036,0.21629
96.66929,0.21815
96.42822,0.22112
96.18715,0.22525
95.94608,0.23042
95.70501,0.23644
95.46394,0.24264
95.22287,0.24793
94.98180,0.25146
94.74073,0.25333
94.49966,0.25436
94.25859,0.25533
94.01752,0.25659
93.77645,0.25781
93.53538,0.25803
93.29431,0.25679
93.05323,0.25505
92.81216,0.25421
92.57109,0.25502
92.33002,0.25737
92.08895,0.26013
91.84788,0.26178
91.60681,0.26275
91.36574,0.26618
91.12467,0.27490
90.88360,0.28858
90.64253,0.30511
90.40146,0.32377
90.16039,0.34568
89.91932,0.37190
89.67825,0.40298
89.43718,0.43939
89.19611,0.48013
88.95504,0.52100
88.71396,0.55575
88.47289,0.57854
88.23182,0.58544
87.99075,0.57646
87.74968,0.55696
87.50861,0.53282
87.26754,0.50502
87.02647,0.47268
86.78540,0.43906
86.54433,0.40966
86.30326,0.38578
86.06219,0.36371
85.82112,0.34036
85.58005,0.31705
85.33898,0.29647
85.09791,0.27900
84.85684,0.26374
84.61577,0.25013
84.37469,0.23798
84.13362,0.22778
83.89255,0.22031
83.65148,0.21451
83.41041,0.20778
83.16934,0.19940
82.92827,0.19124
82.68720,0.18477
82.44613,0.17962
82.20506,0.17485
81.96399,0.16988
81.72292,0.16503
81.48185,0.16115
81.24078,0.15815
80.99971,0.15504
80.75864,0.15157
80.51757,0.14859
80.27650,0.14639
80.03542,0.14449
79.79435,0.14279
79.55328,0.14188
79.31221,0.14211
79.07114,0.14274
78.83007,0.14245
78.58900,0.14057
78.34793,0.13744
78.10686,0.13371
77.86579,0.12995
77.62472,0.12664
77.38365,0.12400
77.14258,0.12213
76.90151,0.12111
76.66044,0.12065
76.41937,0.12011
76.17830,0.11953
75.93723,0.11935
75.69615,0.11949
75.45508,0.11989
75.21401,0.12107
74.97294,0.12284
74.73187,0.12365
74.49080,0.12263
74.24973,0.12095
74.00866,0.12035
73.76759,0.12151
73.52652,0.12392
73.28545,0.12610
73.04438,0.12635
72.80331,0.12408
72.56224,0.12042
72.32117,0.11691
72.08010,0.11413
71.83903,0.11212
71.59796,0.11176
71.35688,0.11407
71.11581,0.11807
70.87474,0.12144
70.63367,0.12383
70.39260,0.12756
70.15153,0.13442
69.91046,0.14357
69.66939,0.15267
69.42832,0.15951
69.18725,0.16269
68.94618,0.16200
68.70511,0.15788
68.46404,0.15080
68.22297,0.14134
67.98190,0.13065
67.74083,0.12031
67.49976,0.11175
67.25869,0.10589
67.01761,0.10272
66.77654,0.10111
66.53547,0.10016
66.29440,0.09983
66.05333,0.09993
65.81226,0.09984
65.57119,0.10036
65.33012,0.10362
65.08905,0.10962
64.84798,0.11545
64.60691,0.11960
64.36584,0.12434
64.12477,0.13128
63.88370,0.13769
63.64263,0.13987
63.40156,0.13741
63.16049,0.13195
62.91942,0.12493
62.67834,0.11834
62.43727,0.11429
62.19620,0.11250
61.95513,0.11066
61.71406,0.10750
61.47299,0.10348
61.23192,0.09881
60.99085,0.09368
60.74978,0.08992
60.50871,0.08981
60.26764,0.09298
60.02657,0.09625
59.78550,0.09672
59.54443,0.09446
59.30336,0.09134
59.06229,0.08814
58.82122,0.08439
58.58015,0.08025
58.33907,0.07665
58.09800,0.07375
57.85693,0.07105
57.61586,0.06879
57.37479,0.06778
57.13372,0.06787
56.89265,0.06757
56.65158,0.06554
56.41051,0.06188
56.16944,0.05784
55.92837,0.05478
55.68730,0.05355
55.44623,0.05465
55.20516,0.05797
54.96409,0.06191
54.72302,0.06407
54.48195,0.06469
54.24088,0.06750
53.99980,0.07445
53.75873,0.08200
53.51766,0.08518
53.27659,0.08349
53.03552,0.08059
52.79445,0.07940
52.55338,0.08019
52.31231,0.08245
52.07124,0.08549
51.83017,0.08732
51.58910,0.08591
51.34803,0.08244
51.10696,0.08042
50.86589,0.08018
50.62482,0.07824
50.38375,0.07391
50.14268,0.07104
49.90161,0.07143
49.66053,0.07212
49.41946,0.07103
49.17839,0.06859
48.93732,0.06391
48.69625,0.05713
48.45518,0.05364
48.21411,0.05774
47.97304,0.06459
47.73197,0.06566
47.49090,0.05891
47.24983,0.04821
47.00876,0.03716
46.76769,0.02854
46.52662,0.02562
46.28555,0.02914
46.04448,0.03476
45.80341,0.03672
45.56234,0.03363
45.32126,0.02970
45.08019,0.02994
44.83912,0.03382
44.59805,0.03572
44.35698,0.03259
44.11591,0.02812
43.87484,0.02764
43.63377,0.03199
43.39270,0.03787
43.15163,0.04182
42.91056,0.04276
42.66949,0.04463
42.42842,0.05473
42.18735,0.07363
41.94628,0.09066
41.70521,0.09548
41.46414,0.09048
41.22307,0.08724
40.98199,0.09395
40.74092,0.10855
40.49985,0.12079
40.25878,0.12171
40.01771,0.11277
39.77664,0.10127
39.53557,0.08887
39.29450,0.07551
39.05343,0.06989
38.81236,0.08239
38.57129,0.10873
38.33022,0.13117
38.08915,0.13617
37.84808,0.12607
37.60701,0.11423
37.36594,0.11134
37.12487,0.11859
36.88380,0.12853
36.64272,0.13127
36.40165,0.12495
36.16058,0.11678
35.91951,0.11198
35.67844,0.10659
35.43737,0.09385
35.19630,0.07513
34.95523,0.06001
34.71416,0.05889
34.47309,0.07359
34.23202,0.09401
33.99095,0.10516
33.74988,0.10181
33.50881,0.09557
33.26774,0.10042
33.02667,0.11899
32.78560,0.14711
32.54453,0.18057
32.30345,0.20979
32.06238,0.21839
31.82131,0.19976
31.58024,0.16868
31.33917,0.14500
31.09810,0.13649
30.85703,0.14275
30.61596,0.15735
30.37489,0.16910
30.13382,0.16834
29.89275,0.15097
29.65168,0.12290
29.41061,0.09757
29.16954,0.08804
28.92847,0.10011
28.68740,0.12790
28.44633,0.15927
28.20526,0.19277
27.96418,0.23883
27.72311,0.29341
27.48204,0.31740
27.24097,0.27352
26.99990,0.20621
26.75883,0.19314
26.51776,0.24108
26.27669,0.29831
26.03562,0.29954
25.79455,0.22425
25.55348,0.14097
25.31241,0.12639
25.07134,0.18663
24.83027,0.26646
24.58920,0.31762
24.34813,0.33346
24.10706,0.32899
23.86599,0.32009
23.62491,0.32337
23.38384,0.35116
23.14277,0.40489
22.90170,0.46256
22.66063,0.47661
22.41956,0.45747
22.17849,0.45521
21.93742,0.47000
21.69635,0.49421
21.45528,0.52811
21.21421,0.55406
20.97314,0.56269
20.73207,0.57031
20.49100,0.58185
20.24993,0.56595
20.00886,0.54527
19.76779,0.54680
19.52672,0.57161
19.28564,0.58058
19.04457,0.51580
18.80350,0.52497
18.56243,0.74730
18.32136,1.03201
18.08029,0.76162
17.83922,0.64188
17.59815,0.67119
17.35708,0.73123
17.11601,0.89701
16.87494,1.08578
16.63387,1.09219
16.39280,0.96380
16.15173,0.92600
15.91066,1.03322
15.66959,0.98405
15.42852,1.05717
15.18745,1.18803
14.94637,1.13615
14.70530,0.91367
14.46423,0.80555
14.22316,0.64997
13.98209,0.64429
13.74102,0.77280
13.49995,0.87844
13.25888,0.86942
13.01781,0.83434
12.77674,0.91516
12.53567,1.05704
12.29460,0.96112
12.05353,0.82342
11.81246,0.76509
11.57139,0.70432
11.33032,0.68470
11.08925,0.78168
10.84818,0.93737
10.60710,1.07717
10.36603,1.08826
10.12496,0.94254
9.88389,0.83311
9.64282,0.78211
9.40175,0.79188
9.16068,0.84313
8.91961,0.91900
8.67854,0.80529
8.43747,0.66607
8.19640,0.64057
7.95533,0.66665
7.71426,0.59980
7.47319,0.64108
7.23212,0.72979
6.99105,0.74178
6.74998,0.69134
6.50891,0.62300
6.26783,0.57816
6.02676,0.50612
5.78569,0.42230
5.54462,0.42043
5.30355,0.51529
5.06248,0.67509
4.82141,0.69991
4.58034,0.64558
4.33927,0.62514
4.09820,0.57197
3.85713,0.50783
3.61606,0.54688
3.37499,0.64616
3.13392,0.68718
2.89285,0.74133
2.65178,0.66350
2.41071,0.63738
2.16964,0.72848
1.92856,0.88660
1.68749,0.97533
1.44642,0.92291
1.20535,0.81326
0.96428,0.77766
0.72321,0.85352
0.48214,0.76057
0.24107,0.54248
-0.00000,0.02867
