399.69498,1.68503
399.45391,1.67192
399.21284,1.65636
398.97177,1.64174
398.73070,1.62422
398.48963,1.60292
398.24856,1.58334
398.00749,1.56987
397.76642,1.56392
397.52535,1.56904
397.28428,1.58732
397.04321,1.60799
396.80214,1.61399
396.56107,1.60269
396.32000,1.58641
396.07892,1.57796
395.83785,1.58412
395.59678,1.60481
395.35571,1.63454
395.11464,1.66297
394.87357,1.67653
394.63250,1.67102
394.39143,1.66184
394.15036,1.66521
393.90929,1.67437
393.66822,1.66978
393.42715,1.65035
393.18608,1.62876
392.94501,1.61338
392.70394,1.60876
392.46287,1.60940
392.22180,1.60276
391.98073,1.58587
391.73965,1.57073
391.49858,1.56932
391.25751,1.57440
391.01644,1.56790
390.77537,1.54913
390.53430,1.53458
390.29323,1.52910
390.05216,1.51988
389.81109,1.50452
389.57002,1.50313
389.32895,1.52799
389.08788,1.56264
388.84681,1.58042
388.60574,1.57873
388.36467,1.57470
388.12360,1.57505
387.88253,1.57184
387.64146,1.56005
387.40038,1.54420
387.15931,1.52540
386.91824,1.49765
386.67717,1.46174
386.43610,1.43381
386.19503,1.43076
385.95396,1.44945
385.71289,1.46940
385.47182,1.48122
385.23075,1.49193
384.98968,1.49414
384.74861,1.48008
384.50754,1.46829
384.26647,1.46928
384.02540,1.46412
383.78433,1.43146
383.54326,1.38347
383.30219,1.35434
383.06111,1.36128
382.82004,1.39307
382.57897,1.42253
382.33790,1.42356
382.09683,1.39322
381.85576,1.35039
381.61469,1.31714
381.37362,1.30917
381.13255,1.32526
380.89148,1.34674
380.65041,1.35712
380.40934,1.35490
380.16827,1.34818
379.92720,1.34837
379.68613,1.36512
379.44506,1.39798
379.20399,1.43119
378.96292,1.43843
378.72184,1.41221
378.48077,1.38032
378.23970,1.37304
377.99863,1.39479
377.75756,1.43002
377.51649,1.46385
377.27542,1.48987
377.03435,1.50243
376.79328,1.49554
376.55221,1.47609
376.31114,1.46354
376.07007,1.46886
375.82900,1.48340
375.58793,1.49114
375.34686,1.48998
375.10579,1.48843
374.86472,1.48981
374.62365,1.49675
374.38257,1.50600
374.14150,1.50775
373.90043,1.49949
373.65936,1.49058
373.41829,1.48844
373.17722,1.48850
372.93615,1.48807
372.69508,1.49328
372.45401,1.50045
372.21294,1.49503
371.97187,1.47993
371.73080,1.47237
371.48973,1.47596
371.24866,1.48088
371.00759,1.47991
370.76652,1.47432
370.52545,1.46929
370.28437,1.46570
370.04330,1.45637
369.80223,1.43915
369.56116,1.42680
369.32009,1.43112
369.07902,1.44553
368.83795,1.44968
368.59688,1.43547
368.35581,1.41860
368.11474,1.41508
367.87367,1.42435
367.63260,1.43646
367.39153,1.44263
367.15046,1.43868
366.90939,1.42699
366.66832,1.41587
366.42725,1.40989
366.18618,1.40382
365.94510,1.39459
365.70403,1.38749
365.46296,1.38318
365.22189,1.37758
364.98082,1.37453
364.73975,1.38018
364.49868,1.38999
364.25761,1.39581
364.01654,1.39880
363.77547,1.40244
363.53440,1.40134
363.29333,1.38818
363.05226,1.36494
362.81119,1.34134
362.57012,1.32791
362.32905,1.32948
362.08798,1.33891
361.84691,1.34335
361.60583,1.34176
361.36476,1.34438
361.12369,1.35591
360.88262,1.36947
360.64155,1.37717
360.40048,1.37884
360.15941,1.37477
359.91834,1.36267
359.67727,1.34568
359.43620,1.33295
359.19513,1.33083
358.95406,1.33661
358.71299,1.34207
358.47192,1.34173
358.23085,1.33688
357.98978,1.33242
357.74871,1.33183
357.50764,1.33646
357.26656,1.34639
357.02549,1.35782
356.78442,1.36364
356.54335,1.35985
356.30228,1.35027
356.06121,1.34303
355.82014,1.34102
355.57907,1.34085
355.33800,1.34241
355.09693,1.34964
354.85586,1.36082
354.61479,1.36883
354.37372,1.36985
354.13265,1.36511
353.89158,1.35733
353.65051,1.35246
353.40944,1.35652
353.16837,1.36697
352.92729,1.37518
352.68622,1.37523
352.44515,1.36801
352.20408,1.35929
351.96301,1.35442
351.72194,1.35356
351.48087,1.35143
351.23980,1.34454
350.99873,1.33809
350.75766,1.33833
350.51659,1.34182
350.27552,1.34142
350.03445,1.33965
349.79338,1.34368
349.55231,1.35231
349.31124,1.35991
349.07017,1.36723
348.82910,1.37840
348.58802,1.39250
348.34695,1.40251
348.10588,1.40138
347.86481,1.39085
347.62374,1.37803
347.38267,1.36454
347.14160,1.34872
346.90053,1.33501
346.65946,1.33191
346.41839,1.34028
346.17732,1.35201
345.93625,1.36205
345.69518,1.37238
345.45411,1.38249
345.21304,1.38735
344.97197,1.38369
344.73090,1.37322
344.48983,1.36374
344.24875,1.36435
344.00768,1.37752
343.76661,1.39493
343.52554,1.40382
343.28447,1.40327
343.04340,1.40546
342.80233,1.41696
342.56126,1.43054
342.32019,1.43710
342.07912,1.43694
341.83805,1.43424
341.59698,1.42821
341.35591,1.41562
341.11484,1.39898
340.87377,1.38630
340.63270,1.38367
340.39163,1.39022
340.15056,1.40253
339.90948,1.41789
339.66841,1.43037
339.42734,1.43658
339.18627,1.44283
338.94520,1.45446
338.70413,1.46568
338.46306,1.47257
338.22199,1.48225
337.98092,1.49535
337.73985,1.49889
337.49878,1.48706
337.25771,1.47342
337.01664,1.47759
336.77557,1.50240
336.53450,1.52254
336.29343,1.50935
336.05236,1.47442
335.81129,1.45129
335.57021,1.45257
335.32914,1.46741
335.08807,1.47911
334.84700,1.47778
334.60593,1.46806
334.36486,1.45920
334.12379,1.45345
333.88272,1.44917
333.64165,1.43976
333.40058,1.42124
333.15951,1.40164
332.91844,1.39169
332.67737,1.39647
332.43630,1.41146
332.19523,1.42513
331.95416,1.42801
331.71309,1.41885
331.47202,1.40334
331.23094,1.39025
330.98987,1.39086
330.74880,1.41115
330.50773,1.43767
330.26666,1.44237
330.02559,1.41474
329.78452,1.37523
329.54345,1.34983
329.30238,1.34647
329.06131,1.35263
328.82024,1.35286
328.57917,1.34604
328.33810,1.34021
328.09703,1.33727
327.85596,1.33367
327.61489,1.33296
327.37382,1.34375
327.13275,1.36536
326.89167,1.38646
326.65060,1.39301
326.40953,1.37670
326.16846,1.35001
325.92739,1.33724
325.68632,1.35078
325.44525,1.38007
325.20418,1.40100
324.96311,1.40553
324.72204,1.40617
324.48097,1.41139
324.23990,1.41689
323.99883,1.41556
323.75776,1.41129
323.51669,1.40994
323.27562,1.40600
323.03455,1.39760
322.79348,1.39250
322.55240,1.39536
322.31133,1.39951
322.07026,1.39625
321.82919,1.38782
321.58812,1.38202
321.34705,1.38239
321.10598,1.38486
320.86491,1.38278
320.62384,1.37850
320.38277,1.38458
320.14170,1.40732
319.90063,1.42969
319.65956,1.42777
319.41849,1.40698
319.17742,1.38849
318.93635,1.38282
318.69528,1.38956
318.45421,1.40493
318.21313,1.42356
317.97206,1.43295
317.73099,1.42591
317.48992,1.41367
317.24885,1.40385
317.00778,1.39149
316.76671,1.37788
316.52564,1.36912
316.28457,1.35954
316.04350,1.34032
315.80243,1.31954
315.56136,1.31645
315.32029,1.33537
315.07922,1.35847
314.83815,1.36914
314.59708,1.37235
314.35601,1.37781
314.11494,1.38433
313.87386,1.39093
313.63279,1.39974
313.39172,1.40347
313.15065,1.39331
312.90958,1.37826
312.66851,1.38306
312.42744,1.41763
312.18637,1.45688
311.94530,1.46352
311.70423,1.43669
311.46316,1.40895
311.22209,1.40100
310.98102,1.40884
310.73995,1.42130
310.49888,1.43494
310.25781,1.45180
310.01674,1.46884
309.77567,1.47884
309.53459,1.47407
309.29352,1.45363
309.05245,1.42908
308.81138,1.41602
308.57031,1.41850
308.32924,1.42522
308.08817,1.42646
307.84710,1.42951
307.60603,1.44370
307.36496,1.45969
307.12389,1.46355
306.88282,1.45683
306.64175,1.44454
306.40068,1.42806
306.15961,1.40939
305.91854,1.38876
305.67747,1.36868
305.43640,1.35940
305.19532,1.36905
304.95425,1.39012
304.71318,1.40276
304.47211,1.39720
304.23104,1.38592
303.98997,1.38394
303.74890,1.39256
303.50783,1.40322
303.26676,1.41088
303.02569,1.41849
302.78462,1.42007
302.54355,1.40144
302.30248,1.36926
302.06141,1.34675
301.82034,1.34522
301.57927,1.35850
301.33820,1.37477
301.09713,1.38404
300.85605,1.38080
300.61498,1.36944
300.37391,1.36111
300.13284,1.36081
299.89177,1.36323
299.65070,1.36251
299.40963,1.36136
299.16856,1.36318
298.92749,1.36190
298.68642,1.35137
298.44535,1.33656
298.20428,1.32682
297.96321,1.32585
297.72214,1.33275
297.48107,1.34426
297.24000,1.35164
296.99893,1.34418
296.75786,1.32339
296.51678,1.30398
296.27571,1.29844
296.03464,1.30613
295.79357,1.31502
295.55250,1.31476
295.31143,1.30755
295.07036,1.30061
294.82929,1.29379
294.58822,1.28467
294.34715,1.27715
294.10608,1.27512
293.86501,1.27398
293.62394,1.26634
293.38287,1.25379
293.14180,1.24528
292.90073,1.24516
292.65966,1.25195
292.41859,1.26372
292.17751,1.27634
291.93644,1.28250
291.69537,1.27966
291.45430,1.27288
291.21323,1.26714
290.97216,1.26355
290.73109,1.26141
290.49002,1.25774
290.24895,1.24885
290.00788,1.23674
289.76681,1.22781
289.52574,1.22449
289.28467,1.22488
289.04360,1.22849
288.80253,1.23527
288.56146,1.24319
288.32039,1.24978
288.07932,1.25231
287.83824,1.24887
287.59717,1.24261
287.35610,1.24076
287.11503,1.24705
286.87396,1.25597
286.63289,1.25773
286.39182,1.24847
286.15075,1.23255
285.90968,1.21707
285.66861,1.20604
285.42754,1.20036
285.18647,1.20026
284.94540,1.20425
284.70433,1.20949
284.46326,1.21544
284.22219,1.22285
283.98112,1.22857
283.74005,1.22652
283.49897,1.21581
283.25790,1.20320
283.01683,1.19627
282.77576,1.19696
282.53469,1.20049
282.29362,1.20030
282.05255,1.19641
281.81148,1.19533
281.57041,1.19989
281.32934,1.20581
281.08827,1.20959
280.84720,1.21266
280.60613,1.21599
280.36506,1.21772
280.12399,1.21674
279.88292,1.21377
279.64185,1.21012
279.40078,1.20808
279.15970,1.21021
278.91863,1.21628
278.67756,1.22157
278.43649,1.21941
278.19542,1.20896
277.95435,1.19973
277.71328,1.20273
277.47221,1.21723
277.23114,1.22972
276.99007,1.22804
276.74900,1.21515
276.50793,1.20460
276.26686,1.20498
276.02579,1.21284
275.78472,1.21991
275.54365,1.22272
275.30258,1.22352
275.06151,1.22508
274.82043,1.22821
274.57936,1.23167
274.33829,1.23264
274.09722,1.23012
273.85615,1.22495
273.61508,1.21778
273.37401,1.20990
273.13294,1.20393
272.89187,1.20235
272.65080,1.20616
272.40973,1.21439
272.16866,1.22429
271.92759,1.23224
271.68652,1.23663
271.44545,1.24075
271.20438,1.24887
270.96331,1.25922
270.72224,1.26502
270.48116,1.26305
270.24009,1.25645
269.99902,1.25031
269.75795,1.24782
269.51688,1.24798
269.27581,1.24864
269.03474,1.25146
268.79367,1.25978
268.55260,1.27101
268.31153,1.27728
268.07046,1.27606
267.82939,1.27305
267.58832,1.27353
267.34725,1.27756
267.10618,1.28346
266.86511,1.29177
266.62404,1.30504
266.38297,1.32345
266.14189,1.34038
265.90082,1.34699
265.65975,1.34402
265.41868,1.34158
265.17761,1.34542
264.93654,1.34952
264.69547,1.34800
264.45440,1.34727
264.21333,1.35783
263.97226,1.38157
263.73119,1.41064
263.49012,1.43472
263.24905,1.44685
263.00798,1.44800
262.76691,1.44791
262.52584,1.45498
262.28477,1.46747
262.04370,1.47895
261.80262,1.48784
261.56155,1.49859
261.32048,1.51685
261.07941,1.54469
260.83834,1.57665
260.59727,1.60246
260.35620,1.61735
260.11513,1.62571
259.87406,1.63441
259.63299,1.64996
259.39192,1.68062
259.15085,1.73242
258.90978,1.79919
258.66871,1.85804
258.42764,1.88537
258.18657,1.88153
257.94550,1.86505
257.70443,1.85256
257.46335,1.85296
257.22228,1.86177
256.98121,1.86443
256.74014,1.85955
256.49907,1.85365
256.25800,1.84881
256.01693,1.84573
255.77586,1.83684
255.53479,1.81802
255.29372,1.79696
255.05265,1.77786
254.81158,1.75955
254.57051,1.74342
254.32944,1.72955
254.08837,1.71540
253.84730,1.70382
253.60623,1.70252
253.36516,1.70802
253.12408,1.70799
252.88301,1.70518
252.64194,1.71688
252.40087,1.74452
252.15980,1.75936
251.91873,1.73354
251.67766,1.68314
251.43659,1.64559
251.19552,1.63627
250.95445,1.64971
250.71338,1.67752
250.47231,1.71058
250.23124,1.73306
249.99017,1.73142
249.74910,1.70984
249.50803,1.68221
249.26696,1.65568
249.02589,1.63190
248.78481,1.61468
248.54374,1.60794
248.30267,1.61038
248.06160,1.61692
247.82053,1.62310
247.57946,1.62853
247.33839,1.63550
247.09732,1.64497
246.85625,1.65608
246.61518,1.66496
246.37411,1.66604
246.13304,1.66377
245.89197,1.67585
245.65090,1.71077
245.40983,1.75082
245.16876,1.76899
244.92769,1.76433
244.68661,1.76435
244.44554,1.79439
244.20447,1.85874
243.96340,1.93914
243.72233,2.00969
243.48126,2.05237
243.24019,2.06247
242.99912,2.04596
242.75805,2.02164
242.51698,1.98527
242.27591,1.93213
242.03484,1.86414
241.79377,1.78226
241.55270,1.70859
241.31163,1.65027
241.07056,1.60054
240.82949,1.55496
240.58842,1.50733
240.34734,1.45471
240.10627,1.40251
239.86520,1.35685
239.62413,1.32148
239.38306,1.29771
239.14199,1.27991
238.90092,1.25696
238.65985,1.22460
238.41878,1.19208
238.17771,1.16965
237.93664,1.15689
237.69557,1.14616
237.45450,1.13111
237.21343,1.11054
236.97236,1.08900
236.73129,1.07334
236.49022,1.06477
236.24915,1.05662
236.00807,1.04335
235.76700,1.02769
235.52593,1.01495
235.28486,1.00543
235.04379,0.99602
234.80272,0.98594
234.56165,0.97763
234.32058,0.97292
234.07951,0.97004
233.83844,0.96576
233.59737,0.95945
233.35630,0.95359
233.11523,0.94986
232.87416,0.94734
232.63309,0.94595
232.39202,0.94736
232.15095,0.94949
231.90988,0.94585
231.66880,0.93562
231.42773,0.92761
231.18666,0.92895
230.94559,0.93583
230.70452,0.93872
230.46345,0.93369
230.22238,0.92587
229.98131,0.92233
229.74024,0.92342
229.49917,0.92308
229.25810,0.91850
229.01703,0.91446
228.77596,0.91480
228.53489,0.91659
228.29382,0.91442
228.05275,0.90785
227.81168,0.90135
227.57061,0.89785
227.32953,0.89702
227.08846,0.89795
226.84739,0.89875
226.60632,0.89619
226.36525,0.89052
226.12418,0.88666
225.88311,0.88645
225.64204,0.88585
225.40097,0.88259
225.15990,0.87919
224.91883,0.87622
224.67776,0.87196
224.43669,0.86887
224.19562,0.87118
223.95455,0.87676
223.71348,0.87970
223.47241,0.87945
223.23134,0.88006
222.99026,0.88303
222.74919,0.88737
222.50812,0.89333
222.26705,0.90148
222.02598,0.91017
221.78491,0.91684
221.54384,0.92029
221.30277,0.92083
221.06170,0.92032
220.82063,0.92183
220.57956,0.92748
220.33849,0.93658
220.09742,0.94584
219.85635,0.95221
219.61528,0.95542
219.37421,0.95818
219.13314,0.96510
218.89207,0.97995
218.65099,1.00126
218.40992,1.02176
218.16885,1.03595
217.92778,1.04597
217.68671,1.05600
217.44564,1.06637
217.20457,1.07626
216.96350,1.08642
216.72243,1.09716
216.48136,1.10740
216.24029,1.11697
215.99922,1.12816
215.75815,1.14346
215.51708,1.16071
215.27601,1.17354
215.03494,1.18026
214.79387,1.18729
214.55280,1.19898
214.31172,1.21056
214.07065,1.21587
213.82958,1.21589
213.58851,1.21658
213.34744,1.22217
213.10637,1.23234
212.86530,1.24522
212.62423,1.26004
212.38316,1.27535
212.14209,1.28802
211.90102,1.29649
211.65995,1.30250
211.41888,1.30751
211.17781,1.30989
210.93674,1.30758
210.69567,1.30200
210.45460,1.29721
210.21353,1.29369
209.97245,1.28754
209.73138,1.27970
209.49031,1.27882
209.24924,1.29229
209.00817,1.31497
208.76710,1.32624
208.52603,1.30787
208.28496,1.26908
208.04389,1.23330
207.80282,1.21291
207.56175,1.20838
207.32068,1.21499
207.07961,1.22542
206.83854,1.23241
206.59747,1.23190
206.35640,1.22344
206.11533,1.20787
205.87426,1.18640
205.63318,1.16218
205.39211,1.13959
205.15104,1.12204
204.90997,1.11096
204.66890,1.10624
204.42783,1.10580
204.18676,1.10369
203.94569,1.09269
203.70462,1.07240
203.46355,1.05092
203.22248,1.03626
202.98141,1.02905
202.74034,1.02352
202.49927,1.01348
202.25820,0.99687
202.01713,0.97644
201.77606,0.95762
201.53499,0.94496
201.29391,0.93868
201.05284,0.93394
200.81177,0.92511
200.57070,0.91169
200.32963,0.89802
200.08856,0.88656
199.84749,0.87471
199.60642,0.85976
199.36535,0.84379
199.12428,0.83139
198.88321,0.82413
198.64214,0.81960
198.40107,0.81488
198.16000,0.80852
197.91893,0.79996
197.67786,0.78986
197.43679,0.78058
197.19572,0.77436
196.95464,0.77100
196.71357,0.76734
196.47250,0.75926
196.23143,0.74517
195.99036,0.72784
195.74929,0.71250
195.50822,0.70344
195.26715,0.70138
195.02608,0.70209
194.78501,0.69843
194.54394,0.68758
194.30287,0.67518
194.06180,0.66883
193.82073,0.66996
193.57966,0.67307
193.33859,0.67215
193.09752,0.66691
192.85645,0.66105
192.61537,0.65702
192.37430,0.65445
192.13323,0.65184
191.89216,0.64893
191.65109,0.64663
191.41002,0.64516
191.16895,0.64289
190.92788,0.63781
190.68681,0.63006
190.44574,0.62232
190.20467,0.61761
189.96360,0.61635
189.72253,0.61536
189.48146,0.61130
189.24039,0.60555
188.99932,0.60250
188.75825,0.60329
188.51718,0.60452
188.27610,0.60233
188.03503,0.59658
187.79396,0.59110
187.55289,0.58923
187.31182,0.59020
187.07075,0.59105
186.82968,0.59093
186.58861,0.59091
186.34754,0.59052
186.10647,0.58819
185.86540,0.58484
185.62433,0.58383
185.38326,0.58674
185.14219,0.59084
184.90112,0.59187
184.66005,0.58947
184.41898,0.58817
184.17791,0.59165
183.93683,0.59761
183.69576,0.60044
183.45469,0.59888
183.21362,0.59723
182.97255,0.59822
182.73148,0.59947
182.49041,0.59864
182.24934,0.59776
182.00827,0.59901
181.76720,0.60050
181.52613,0.59948
181.28506,0.59723
181.04399,0.59691
180.80292,0.59959
180.56185,0.60505
180.32078,0.61256
180.07971,0.61910
179.83864,0.62177
179.59756,0.62324
179.35649,0.62839
179.11542,0.63561
178.87435,0.63896
178.63328,0.63825
178.39221,0.63964
178.15114,0.64686
177.91007,0.65808
177.66900,0.67016
177.42793,0.68166
177.18686,0.69248
176.94579,0.70276
176.70472,0.71321
176.46365,0.72589
176.22258,0.74253
175.98151,0.76134
175.74044,0.77837
175.49937,0.79283
175.25829,0.80785
175.01722,0.82591
174.77615,0.84698
174.53508,0.86970
174.29401,0.89236
174.05294,0.91300
173.81187,0.92948
173.57080,0.94042
173.32973,0.94724
173.08866,0.95391
172.84759,0.96306
172.60652,0.97382
172.36545,0.98434
172.12438,0.99394
171.88331,1.00154
171.64224,1.00372
171.40117,0.99758
171.16010,0.98629
170.91902,0.97694
170.67795,0.97173
170.43688,0.96712
170.19581,0.96110
169.95474,0.95524
169.71367,0.95043
169.47260,0.94601
169.23153,0.94234
168.99046,0.94100
168.74939,0.94189
168.50832,0.94184
168.26725,0.93800
168.02618,0.93213
167.78511,0.92856
167.54404,0.92842
167.30297,0.92906
167.06190,0.92859
166.82083,0.92819
166.57975,0.92967
166.33868,0.93299
166.09761,0.93568
165.85654,0.93514
165.61547,0.93187
165.37440,0.92970
165.13333,0.93247
164.89226,0.94101
164.65119,0.95333
164.41012,0.96733
164.16905,0.98255
163.92798,0.99859
163.68691,1.01339
163.44584,1.02481
163.20477,1.03265
162.96370,1.03799
162.72263,1.04233
162.48156,1.04672
162.24048,1.04970
161.99941,1.04789
161.75834,1.04112
161.51727,1.03480
161.27620,1.03460
161.03513,1.03953
160.79406,1.04269
160.55299,1.03997
160.31192,1.03463
160.07085,1.03107
159.82978,1.02875
159.58871,1.02384
159.34764,1.01409
159.10657,1.00029
158.86550,0.98572
158.62443,0.97440
158.38336,0.96838
158.14229,0.96790
157.90121,0.97224
157.66014,0.97841
157.41907,0.98127
157.17800,0.97793
156.93693,0.97009
156.69586,0.96061
156.45479,0.95033
156.21372,0.93968
155.97265,0.93062
155.73158,0.92530
155.49051,0.92401
155.24944,0.92485
155.00837,0.92440
154.76730,0.91872
154.52623,0.90571
154.28516,0.88749
154.04409,0.86835
153.80302,0.85110
153.56194,0.83652
153.32087,0.82413
153.07980,0.81252
152.83873,0.80013
152.59766,0.78624
152.35659,0.77076
152.11552,0.75413
151.87445,0.73778
151.63338,0.72330
151.39231,0.71073
151.15124,0.69918
150.91017,0.68867
150.66910,0.67955
150.42803,0.67064
150.18696,0.65956
149.94589,0.64535
149.70482,0.62949
149.46375,0.61470
149.22267,0.60318
148.98160,0.59575
148.74053,0.59153
148.49946,0.58792
148.25839,0.58205
148.01732,0.57357
147.77625,0.56578
147.53518,0.56242
147.29411,0.56382
147.05304,0.56644
146.81197,0.56650
146.57090,0.56422
146.32983,0.56323
146.08876,0.56567
145.84769,0.57069
145.60662,0.57692
145.36555,0.58365
145.12448,0.58990
144.88340,0.59500
144.64233,0.60000
144.40126,0.60578
144.16019,0.61003
143.91912,0.60991
143.67805,0.60683
143.43698,0.60453
143.19591,0.60316
142.95484,0.59894
142.71377,0.58953
142.47270,0.57723
142.23163,0.56643
141.99056,0.55945
141.74949,0.55524
141.50842,0.55137
141.26735,0.54656
141.02628,0.54093
140.78521,0.53484
140.54413,0.52859
140.30306,0.52307
140.06199,0.51968
139.82092,0.51943
139.57985,0.52213
139.33878,0.52651
139.09771,0.53114
138.85664,0.53582
138.61557,0.54138
138.37450,0.54789
138.13343,0.55445
137.89236,0.56135
137.65129,0.57062
137.41022,0.58333
137.16915,0.59790
136.92808,0.61241
136.68701,0.62751
136.44594,0.64483
136.20486,0.66415
135.96379,0.68478
135.72272,0.70776
135.48165,0.73331
135.24058,0.75890
134.99951,0.78354
134.75844,0.81024
134.51737,0.84099
134.27630,0.87443
134.03523,0.91023
133.79416,0.94880
133.55309,0.98624
133.31202,1.01753
133.07095,1.04409
132.82988,1.06936
132.58881,1.08981
132.34774,1.09797
132.10667,1.09360
131.86559,1.08641
131.62452,1.08655
131.38345,1.09629
131.14238,1.11105
130.90131,1.12535
130.66024,1.13371
130.41917,1.12993
130.17810,1.11227
129.93703,1.08558
129.69596,1.05531
129.45489,1.02272
129.21382,0.98764
128.97275,0.95239
128.73168,0.91920
128.49061,0.88729
128.24954,0.85518
128.00847,0.82316
127.76740,0.79273
127.52632,0.76477
127.28525,0.73885
127.04418,0.71373
126.80311,0.68908
126.56204,0.66664
126.32097,0.64771
126.07990,0.63079
125.83883,0.61362
125.59776,0.59641
125.35669,0.58048
125.11562,0.56541
124.87455,0.55003
124.63348,0.53505
124.39241,0.52213
124.15134,0.51139
123.91027,0.50191
123.66920,0.49352
123.42812,0.48648
123.18705,0.48010
122.94598,0.47364
122.70491,0.46784
122.46384,0.46354
122.22277,0.45984
121.98170,0.45583
121.74063,0.45261
121.49956,0.45175
121.25849,0.45314
121.01742,0.45627
120.77635,0.46172
120.53528,0.47021
120.29421,0.48171
120.05314,0.49571
119.81207,0.51111
119.57100,0.52667
119.32993,0.54293
119.08885,0.56240
118.84778,0.58669
118.60671,0.61441
118.36564,0.64323
118.12457,0.67235
117.88350,0.70165
117.64243,0.73017
117.40136,0.75637
117.16029,0.77837
116.91922,0.79393
116.67815,0.80206
116.43708,0.80484
116.19601,0.80490
115.95494,0.80151
115.71387,0.79220
115.47280,0.77701
115.23173,0.75959
114.99066,0.74450
114.74958,0.73323
114.50851,0.72309
114.26744,0.71133
114.02637,0.69868
113.78530,0.68684
113.54423,0.67536
113.30316,0.66408
113.06209,0.65528
112.82102,0.65090
112.57995,0.65049
112.33888,0.65330
112.09781,0.65990
111.85674,0.67073
111.61567,0.68493
111.37460,0.70080
111.13353,0.71573
110.89246,0.72718
110.65139,0.73557
110.41031,0.74318
110.16924,0.74787
109.92817,0.74296
109.68710,0.72571
109.44603,0.70088
109.20496,0.67441
108.96389,0.64813
108.72282,0.62202
108.48175,0.59776
108.24068,0.57765
107.99961,0.56231
107.75854,0.55123
107.51747,0.54380
107.27640,0.53827
107.03533,0.53083
106.79426,0.51790
106.55319,0.49981
106.31212,0.48064
106.07104,0.46374
105.82997,0.44898
105.58890,0.43471
105.34783,0.42135
105.10676,0.41144
104.86569,0.40643
104.62462,0.40519
104.38355,0.40472
104.14248,0.40108
103.90141,0.39111
103.66034,0.37495
103.41927,0.35665
103.17820,0.34139
102.93713,0.33196
102.69606,0.32816
102.45499,0.32830
102.21392,0.32997
101.97285,0.33042
101.73177,0.32736
101.49070,0.31994
101.24963,0.30944
101.00856,0.29930
100.76749,0.29295
100.52642,0.29133
100.28535,0.29267
100.04428,0.29451
99.80321,0.29467
99.56214,0.29084
99.32107,0.28216
99.08000,0.27148
98.83893,0.26374
98.59786,0.26302
98.35679,0.26920
98.11572,0.27544
97.87465,0.27373
97.63358,0.26517
97.39250,0.25867
97.15143,0.26118
96.91036,0.27282
96.66929,0.28685
96.42822,0.29409
96.18715,0.29255
95.94608,0.28946
95.70501,0.29194
95.46394,0.30052
95.22287,0.30971
94.98180,0.31453
94.74073,0.31707
94.49966,0.32245
94.25859,0.33007
94.01752,0.33252
93.77645,0.32584
93.53538,0.31783
93.29431,0.31837
93.05323,0.32676
92.81216,0.33146
92.57109,0.32566
92.33002,0.31807
92.08895,0.31904
91.84788,0.32601
91.60681,0.32958
91.36574,0.33078
91.12467,0.33919
90.88360,0.35509
90.64253,0.37054
90.40146,0.38832
90.16039,0.41980
89.91932,0.46318
89.67825,0.50375
89.43718,0.53851
89.19611,0.57725
88.95504,0.62048
88.71396,0.66122
88.47289,0.69497
88.23182,0.71265
87.99075,0.70582
87.74968,0.68252
87.50861,0.65472
87.26754,0.62425
87.02647,0.58923
86.78540,0.55144
86.54433,0.51496
86.30326,0.48236
86.06219,0.45302
85.82112,0.42471
85.58005,0.39762
85.33898,0.37434
85.09791,0.35560
84.85684,0.33898
84.61577,0.32236
84.37469,0.30679
84.13362,0.29484
83.89255,0.28663
83.65148,0.27953
83.41041,0.27173
83.16934,0.26346
82.92827,0.25506
82.68720,0.24664
82.44613,0.23860
82.20506,0.23108
81.96399,0.22420
81.72292,0.21867
81.48185,0.21456
81.24078,0.21092
80.99971,0.20732
80.75864,0.20393
80.51757,0.20068
80.27650,0.19788
80.03542,0.19604
79.79435,0.19441
79.55328,0.19176
79.31221,0.18863
79.07114,0.18663
78.83007,0.18633
78.58900,0.18657
78.34793,0.18529
78.10686,0.18115
77.86579,0.17498
77.62472,0.16909
77.38365,0.16504
77.14258,0.16273
76.90151,0.16108
76.66044,0.15953
76.41937,0.15883
76.17830,0.16029
75.93723,0.16359
75.69615,0.16587
75.45508,0.16433
75.21401,0.15973
74.97294,0.15617
74.73187,0.15704
74.49080,0.16185
74.24973,0.16656
74.00866,0.16720
73.76759,0.16447
73.52652,0.16355
73.28545,0.16773
73.04438,0.17400
72.80331,0.17581
72.56224,0.17004
72.32117,0.16071
72.08010,0.15507
71.83903,0.15709
71.59796,0.16464
71.35688,0.17207
71.11581,0.17563
70.87474,0.17589
70.63367,0.17586
70.39260,0.17883
70.15153,0.18729
69.91046,0.20171
69.66939,0.21964
69.42832,0.23572
69.18725,0.24375
68.94618,0.24194
68.70511,0.23465
68.46404,0.22724
68.22297,0.22198
67.98190,0.21771
67.74083,0.21143
67.49976,0.20053
67.25869,0.18481
67.01761,0.16641
66.77654,0.14756
66.53547,0.12942
66.29440,0.11405
66.05333,0.10515
65.81226,0.10570
65.57119,0.11581
65.33012,0.13301
65.08905,0.15381
64.84798,0.17462
64.60691,0.19220
64.36584,0.20447
64.12477,0.21108
63.88370,0.21281
63.64263,0.21076
63.40156,0.20586
63.16049,0.19833
62.91942,0.18815
62.67834,0.17647
62.43727,0.16506
62.19620,0.15455
61.95513,0.14460
61.71406,0.13533
61.47299,0.12787
61.23192,0.12333
60.99085,0.12096
60.74978,0.11856
60.50871,0.11562
60.26764,0.11423
60.02657,0.11546
59.78550,0.11762
59.54443,0.11924
59.30336,0.12061
59.06229,0.12147
58.82122,0.12042
58.58015,0.11838
58.33907,0.11888
58.09800,0.12427
57.85693,0.13360
57.61586,0.14391
57.37479,0.15236
57.13372,0.15817
56.89265,0.16367
56.65158,0.17212
56.41051,0.18297
56.16944,0.19051
55.92837,0.18954
55.68730,0.18207
55.44623,0.17344
55.20516,0.16330
54.96409,0.14617
54.72302,0.12144
54.48195,0.09683
54.24088,0.07961
53.99980,0.07168
53.75873,0.07338
53.51766,0.08664
53.27659,0.11325
53.03552,0.15270
52.79445,0.19969
52.55338,0.23338
52.31231,0.22427
52.07124,0.18370
51.83017,0.14248
51.58910,0.11240
51.34803,0.09548
51.10696,0.09477
50.86589,0.11452
50.62482,0.15761
50.38375,0.21228
50.14268,0.22009
49.90161,0.14964
49.66053,0.07560
49.41946,0.03824
49.17839,0.04421
48.93732,0.09704
48.69625,0.17754
48.45518,0.19795
48.21411,0.13361
47.97304,0.07793
47.73197,0.06996
47.49090,0.11205
47.24983,0.16567
47.00876,0.14864
46.76769,0.09470
46.52662,0.07891
46.28555,0.10284
46.04448,0.11091
45.80341,0.08134
45.56234,0.07346
45.32126,0.11358
45.08019,0.15453
44.83912,0.14089
44.59805,0.11388
44.35698,0.10950
44.11591,0.11161
43.87484,0.11008
43.63377,0.11794
43.39270,0.12871
43.15163,0.12532
42.91056,0.11573
42.66949,0.11448
42.42842,0.11860
42.18735,0.12089
41.94628,0.11887
41.70521,0.11068
41.46414,0.09934
41.22307,0.09294
40.98199,0.09747
40.74092,0.11267
40.49985,0.12817
40.25878,0.13025
40.01771,0.12239
39.77664,0.12257
39.53557,0.14086
39.29450,0.16852
39.05343,0.18364
38.81236,0.17664
38.57129,0.16268
38.33022,0.15774
38.08915,0.16288
37.84808,0.17192
37.60701,0.17922
37.36594,0.18052
37.12487,0.17716
36.88380,0.17408
36.64272,0.16902
36.40165,0.15636
36.16058,0.13968
35.91951,0.12920
35.67844,0.13124
35.43737,0.14473
35.19630,0.16404
34.95523,0.18398
34.71416,0.19971
34.47309,0.20399
34.23202,0.19339
33.99095,0.17504
33.74988,0.16076
33.50881,0.15867
33.26774,0.16615
33.02667,0.17014
32.78560,0.16152
32.54453,0.14512
32.30345,0.12951
32.06238,0.11703
31.82131,0.10697
31.58024,0.09719
31.33917,0.08476
31.09810,0.06959
30.85703,0.05549
30.61596,0.04803
30.37489,0.04818
30.13382,0.04815
29.89275,0.04086
29.65168,0.03098
29.41061,0.02527
29.16954,0.01918
28.92847,0.00608
28.68740,-0.01462
28.44633,-0.04289
28.20526,-0.07507
27.96418,-0.09837
27.72311,-0.10582
27.48204,-0.10163
27.24097,-0.09237
26.99990,-0.08851
26.75883,-0.09456
26.51776,-0.10362
26.27669,-0.10952
26.03562,-0.11552
25.79455,-0.12648
25.55348,-0.13806
25.31241,-0.13880
25.07134,-0.13127
24.83027,-0.13422
24.58920,-0.15692
24.34813,-0.18218
24.10706,-0.18995
23.86599,-0.19133
23.62491,-0.20689
23.38384,-0.24079
23.14277,-0.28310
22.90170,-0.31916
22.66063,-0.34899
22.41956,-0.37892
22.17849,-0.39808
21.93742,-0.39906
21.69635,-0.38134
21.45528,-0.34255
21.21421,-0.29567
20.97314,-0.26770
20.73207,-0.26997
20.49100,-0.29162
20.24993,-0.32392
20.00886,-0.36399
19.76779,-0.39550
19.52672,-0.39505
19.28564,-0.36348
19.04457,-0.33020
18.80350,-0.32071
18.56243,-0.32870
18.32136,-0.33104
18.08029,-0.31613
17.83922,-0.28968
17.59815,-0.26485
17.35708,-0.25065
17.11601,-0.25253
16.87494,-0.26979
16.63387,-0.29794
16.39280,-0.32725
16.15173,-0.34526
15.91066,-0.35739
15.66959,-0.38837
15.42852,-0.44198
15.18745,-0.48186
14.94637,-0.48457
14.70530,-0.45189
14.46423,-0.40523
14.22316,-0.37882
13.98209,-0.37590
13.74102,-0.36754
13.49995,-0.33603
13.25888,-0.29489
13.01781,-0.27057
12.77674,-0.27588
12.53567,-0.30540
12.29460,-0.34389
12.05353,-0.37922
11.81246,-0.40851
11.57139,-0.42557
11.33032,-0.42876
11.08925,-0.42047
10.84818,-0.38367
10.60710,-0.33932
10.36603,-0.33026
10.12496,-0.35227
9.88389,-0.38229
9.64282,-0.40166
9.40175,-0.40328
9.16068,-0.41021
8.91961,-0.43680
8.67854,-0.43635
8.43747,-0.43353
8.19640,-0.44345
7.95533,-0.45097
7.71426,-0.41975
7.47319,-0.39926
7.23212,-0.39797
6.99105,-0.35729
6.74998,-0.31816
6.50891,-0.31330
6.26783,-0.33419
6.02676,-0.36163
5.78569,-0.37053
5.54462,-0.35229
5.30355,-0.34139
5.06248,-0.35697
4.82141,-0.37154
4.58034,-0.33127
4.33927,-0.28363
4.09820,-0.27086
3.85713,-0.30453
3.61606,-0.34788
3.37499,-0.34262
3.13392,-0.34340
2.89285,-0.35683
2.65178,-0.35627
2.41071,-0.33667
2.16964,-0.32332
1.92856,-0.32887
1.68749,-0.34861
1.44642,-0.36917
1.20535,-0.36300
0.96428,-0.33604
0.72321,-0.29681
0.48214,-0.26243
0.24107,-0.21678
-0.00000,0.01849
