399.69498,1.57064
399.45391,1.58112
399.21284,1.58440
398.97177,1.57514
398.73070,1.55932
398.48963,1.54961
398.24856,1.54960
398.00749,1.54632
397.76642,1.52620
397.52535,1.49699
397.28428,1.47851
397.04321,1.47726
396.80214,1.48440
396.56107,1.49241
396.32000,1.50244
396.07892,1.51698
395.83785,1.53590
395.59678,1.55780
395.35571,1.57762
395.11464,1.58634
394.87357,1.58315
394.63250,1.57582
394.39143,1.56470
394.15036,1.54715
393.90929,1.52677
393.66822,1.51013
393.42715,1.50204
393.18608,1.50257
392.94501,1.50239
392.70394,1.48898
392.46287,1.46624
392.22180,1.45262
391.98073,1.45802
391.73965,1.47441
391.49858,1.48721
391.25751,1.48840
391.01644,1.47914
390.77537,1.46817
390.53430,1.46348
390.29323,1.46323
390.05216,1.45946
389.81109,1.45067
389.57002,1.44301
389.32895,1.43974
389.08788,1.44076
388.84681,1.44695
388.60574,1.45447
388.36467,1.45465
388.12360,1.44876
387.88253,1.44885
387.64146,1.45834
387.40038,1.46855
387.15931,1.47062
386.91824,1.46456
386.67717,1.45922
386.43610,1.45708
386.19503,1.44949
385.95396,1.43439
385.71289,1.41866
385.47182,1.40783
385.23075,1.40379
384.98968,1.40334
384.74861,1.40316
384.50754,1.39822
384.26647,1.37696
384.02540,1.34149
383.78433,1.31319
383.54326,1.30531
383.30219,1.30903
383.06111,1.30786
382.82004,1.29709
382.57897,1.28546
382.33790,1.27993
382.09683,1.27517
381.85576,1.26188
381.61469,1.24063
381.37362,1.22273
381.13255,1.21772
380.89148,1.22648
380.65041,1.24098
380.40934,1.24615
380.16827,1.23577
379.92720,1.22358
379.68613,1.22403
379.44506,1.23672
379.20399,1.25065
378.96292,1.25544
378.72184,1.25288
378.48077,1.25831
378.23970,1.28099
377.99863,1.30919
377.75756,1.32633
377.51649,1.33478
377.27542,1.34588
377.03435,1.35452
376.79328,1.35075
376.55221,1.35013
376.31114,1.36823
376.07007,1.39524
375.82900,1.41616
375.58793,1.42463
375.34686,1.41855
375.10579,1.39900
374.86472,1.37755
374.62365,1.36731
374.38257,1.37057
374.14150,1.37791
373.90043,1.37942
373.65936,1.37991
373.41829,1.39070
373.17722,1.41080
372.93615,1.42097
372.69508,1.40755
372.45401,1.38662
372.21294,1.38213
371.97187,1.39520
371.73080,1.40786
371.48973,1.40946
371.24866,1.40806
371.00759,1.41342
370.76652,1.41932
370.52545,1.41165
370.28437,1.39023
370.04330,1.36949
369.80223,1.35937
369.56116,1.35707
369.32009,1.35660
369.07902,1.35786
368.83795,1.36213
368.59688,1.36612
368.35581,1.36833
368.11474,1.37229
367.87367,1.37698
367.63260,1.37441
367.39153,1.36174
367.15046,1.34474
366.90939,1.32891
366.66832,1.31563
366.42725,1.30624
366.18618,1.30546
365.94510,1.31708
365.70403,1.33639
365.46296,1.35036
365.22189,1.34896
364.98082,1.33293
364.73975,1.30931
364.49868,1.28751
364.25761,1.27649
364.01654,1.27818
363.77547,1.28333
363.53440,1.28098
363.29333,1.27118
363.05226,1.26247
362.81119,1.26250
362.57012,1.27305
362.32905,1.28782
362.08798,1.29859
361.84691,1.30429
361.60583,1.30688
361.36476,1.30278
361.12369,1.28743
360.88262,1.26551
360.64155,1.24744
360.40048,1.23818
360.15941,1.23689
359.91834,1.24275
359.67727,1.25430
359.43620,1.26724
359.19513,1.27793
358.95406,1.28610
358.71299,1.29302
358.47192,1.29888
358.23085,1.30110
357.98978,1.29593
357.74871,1.28166
357.50764,1.26275
357.26656,1.25000
357.02549,1.25081
356.78442,1.25992
356.54335,1.26407
356.30228,1.25761
356.06121,1.24753
355.82014,1.24175
355.57907,1.24097
355.33800,1.24343
355.09693,1.25097
354.85586,1.26524
354.61479,1.27919
354.37372,1.28006
354.13265,1.26648
353.89158,1.25113
353.65051,1.24447
353.40944,1.24836
353.16837,1.25930
352.92729,1.26943
352.68622,1.27016
352.44515,1.25983
352.20408,1.24395
351.96301,1.22998
351.72194,1.22386
351.48087,1.22655
351.23980,1.23290
350.99873,1.23771
350.75766,1.24258
350.51659,1.25245
350.27552,1.26658
350.03445,1.27600
349.79338,1.27094
349.55231,1.25184
349.31124,1.23000
349.07017,1.21668
348.82910,1.21570
348.58802,1.22396
348.34695,1.23559
348.10588,1.24814
347.86481,1.26323
347.62374,1.27864
347.38267,1.28670
347.14160,1.28466
346.90053,1.27832
346.65946,1.27203
346.41839,1.26561
346.17732,1.26135
345.93625,1.26336
345.69518,1.26951
345.45411,1.27138
345.21304,1.26521
344.97197,1.25864
344.73090,1.26292
344.48983,1.28241
344.24875,1.30979
344.00768,1.32937
343.76661,1.33121
343.52554,1.32277
343.28447,1.32070
343.04340,1.32873
342.80233,1.33303
342.56126,1.32423
342.32019,1.31094
342.07912,1.30460
341.83805,1.30583
341.59698,1.31001
341.35591,1.31556
341.11484,1.32410
340.87377,1.33487
340.63270,1.34414
340.39163,1.35276
340.15056,1.36614
339.90948,1.38162
339.66841,1.38714
339.42734,1.37845
339.18627,1.36444
338.94520,1.35469
338.70413,1.35411
338.46306,1.36272
338.22199,1.37426
337.98092,1.38190
337.73985,1.38719
337.49878,1.39589
337.25771,1.40519
337.01664,1.40554
336.77557,1.39617
336.53450,1.38696
336.29343,1.38442
336.05236,1.38448
335.81129,1.38371
335.57021,1.38776
335.32914,1.39820
335.08807,1.40358
334.84700,1.39270
334.60593,1.37333
334.36486,1.36288
334.12379,1.36375
333.88272,1.36163
333.64165,1.34696
333.40058,1.32787
333.15951,1.31633
332.91844,1.31284
332.67737,1.31189
332.43630,1.31353
332.19523,1.32064
331.95416,1.32978
331.71309,1.33201
331.47202,1.32423
331.23094,1.31477
330.98987,1.31262
330.74880,1.31459
330.50773,1.31133
330.26666,1.30449
330.02559,1.30385
329.78452,1.31070
329.54345,1.31403
329.30238,1.30552
329.06131,1.29416
328.82024,1.29480
328.57917,1.30801
328.33810,1.32052
328.09703,1.32249
327.85596,1.31413
327.61489,1.29696
327.37382,1.27678
327.13275,1.26853
326.89167,1.27951
326.65060,1.29519
326.40953,1.29428
326.16846,1.27712
325.92739,1.26157
325.68632,1.25595
325.44525,1.25843
325.20418,1.26920
324.96311,1.28730
324.72204,1.30252
324.48097,1.30227
324.23990,1.28948
323.99883,1.27845
323.75776,1.27657
323.51669,1.28020
323.27562,1.28391
323.03455,1.28907
322.79348,1.29472
322.55240,1.28810
322.31133,1.26566
322.07026,1.24670
321.82919,1.24594
321.58812,1.25690
321.34705,1.26813
321.10598,1.27801
320.86491,1.28627
320.62384,1.29277
320.38277,1.30387
320.14170,1.32313
319.90063,1.34446
319.65956,1.35864
319.41849,1.35897
319.17742,1.34181
318.93635,1.31411
318.69528,1.29420
318.45421,1.29465
318.21313,1.30763
317.97206,1.31216
317.73099,1.29936
317.48992,1.28280
317.24885,1.28140
317.00778,1.29573
316.76671,1.30670
316.52564,1.30312
316.28457,1.29739
316.04350,1.30530
315.80243,1.32162
315.56136,1.32615
315.32029,1.31354
315.07922,1.29994
314.83815,1.29777
314.59708,1.30762
314.35601,1.32691
314.11494,1.34499
313.87386,1.34127
313.63279,1.31660
313.39172,1.29738
313.15065,1.30025
312.90958,1.32111
312.66851,1.34340
312.42744,1.35126
312.18637,1.34453
311.94530,1.34034
311.70423,1.35156
311.46316,1.37079
311.22209,1.38355
310.98102,1.38588
310.73995,1.38232
310.49888,1.37994
310.25781,1.38300
310.01674,1.38936
309.77567,1.39513
309.53459,1.40056
309.29352,1.40480
309.05245,1.39956
308.81138,1.38196
308.57031,1.36186
308.32924,1.34815
308.08817,1.34195
307.84710,1.34446
307.60603,1.35690
307.36496,1.36994
307.12389,1.37167
306.88282,1.36514
306.64175,1.36245
306.40068,1.36947
306.15961,1.38021
305.91854,1.38406
305.67747,1.37839
305.43640,1.37021
305.19532,1.36656
304.95425,1.36651
304.71318,1.36129
304.47211,1.34761
304.23104,1.33768
303.98997,1.34297
303.74890,1.35544
303.50783,1.35879
303.26676,1.35241
303.02569,1.34496
302.78462,1.33713
302.54355,1.32755
302.30248,1.32061
302.06141,1.31960
301.82034,1.32184
301.57927,1.32268
301.33820,1.31988
301.09713,1.31391
300.85605,1.31067
300.61498,1.31620
300.37391,1.32408
300.13284,1.31824
299.89177,1.29429
299.65070,1.26816
299.40963,1.25738
299.16856,1.26214
298.92749,1.26769
298.68642,1.26421
298.44535,1.25667
298.20428,1.25163
297.96321,1.24631
297.72214,1.23572
297.48107,1.22359
297.24000,1.21973
296.99893,1.22810
296.75786,1.24139
296.51678,1.24841
296.27571,1.24552
296.03464,1.23817
295.79357,1.23199
295.55250,1.22902
295.31143,1.22786
295.07036,1.22400
294.82929,1.21570
294.58822,1.20613
294.34715,1.19875
294.10608,1.19350
293.86501,1.18901
293.62394,1.18750
293.38287,1.19202
293.14180,1.19986
292.90073,1.20423
292.65966,1.20216
292.41859,1.19649
292.17751,1.18996
291.93644,1.18260
291.69537,1.17571
291.45430,1.17253
291.21323,1.17332
290.97216,1.17294
290.73109,1.16618
290.49002,1.15419
290.24895,1.14337
290.00788,1.13888
289.76681,1.14019
289.52574,1.14219
289.28467,1.14044
289.04360,1.13609
288.80253,1.13400
288.56146,1.13609
288.32039,1.14036
288.07932,1.14625
287.83824,1.15498
287.59717,1.16350
287.35610,1.16451
287.11503,1.15611
286.87396,1.14446
286.63289,1.13512
286.39182,1.12753
286.15075,1.11983
285.90968,1.11388
285.66861,1.11214
285.42754,1.11348
285.18647,1.11549
284.94540,1.11797
284.70433,1.12123
284.46326,1.12287
284.22219,1.11978
283.98112,1.11247
283.74005,1.10503
283.49897,1.10169
283.25790,1.10376
283.01683,1.10917
282.77576,1.11502
282.53469,1.12077
282.29362,1.12720
282.05255,1.13218
281.81148,1.13137
281.57041,1.12461
281.32934,1.11742
281.08827,1.11437
280.84720,1.11502
280.60613,1.11801
280.36506,1.12444
280.12399,1.13343
279.88292,1.13898
279.64185,1.13692
279.40078,1.13112
279.15970,1.12790
278.91863,1.12894
278.67756,1.13224
278.43649,1.13520
278.19542,1.13516
277.95435,1.13106
277.71328,1.12560
277.47221,1.12277
277.23114,1.12290
276.99007,1.12352
276.74900,1.12521
276.50793,1.13018
276.26686,1.13515
276.02579,1.13404
275.78472,1.12813
275.54365,1.12487
275.30258,1.12634
275.06151,1.12689
274.82043,1.12214
274.57936,1.11453
274.33829,1.11020
274.09722,1.11333
273.85615,1.12273
273.61508,1.13314
273.37401,1.14122
273.13294,1.14867
272.89187,1.15714
272.65080,1.16371
272.40973,1.16516
272.16866,1.16357
271.92759,1.16311
271.68652,1.16405
271.44545,1.16388
271.20438,1.16159
270.96331,1.15779
270.72224,1.15344
270.48116,1.15102
270.24009,1.15315
269.99902,1.15822
269.75795,1.16204
269.51688,1.16475
269.27581,1.17021
269.03474,1.17869
268.79367,1.18552
268.55260,1.18773
268.31153,1.18826
268.07046,1.19037
267.82939,1.19295
267.58832,1.19487
267.34725,1.19904
267.10618,1.20815
266.86511,1.21925
266.62404,1.22659
266.38297,1.22850
266.14189,1.22857
265.90082,1.23104
265.65975,1.23738
265.41868,1.24618
265.17761,1.25385
264.93654,1.25716
264.69547,1.25775
264.45440,1.26195
264.21333,1.27291
263.97226,1.28556
263.73119,1.29507
263.49012,1.30487
263.24905,1.32084
263.00798,1.34319
262.76691,1.36768
262.52584,1.39038
262.28477,1.40858
262.04370,1.42190
261.80262,1.43268
261.56155,1.44115
261.32048,1.44468
261.07941,1.44496
260.83834,1.44997
260.59727,1.46759
260.35620,1.49852
260.11513,1.53597
259.87406,1.57564
259.63299,1.61902
259.39192,1.66065
259.15085,1.68918
258.90978,1.70639
258.66871,1.72364
258.42764,1.74831
258.18657,1.78424
257.94550,1.82999
257.70443,1.86972
257.46335,1.87476
257.22228,1.83884
256.98121,1.79283
256.74014,1.76332
256.49907,1.75460
256.25800,1.75389
256.01693,1.75292
255.77586,1.75926
255.53479,1.77048
255.29372,1.76997
255.05265,1.74769
254.81158,1.71052
254.57051,1.67857
254.32944,1.66326
254.08837,1.65892
253.84730,1.65489
253.60623,1.64733
253.36516,1.64051
253.12408,1.63911
252.88301,1.64066
252.64194,1.63781
252.40087,1.63042
252.15980,1.62387
251.91873,1.61446
251.67766,1.59656
251.43659,1.57930
251.19552,1.57921
250.95445,1.59851
250.71338,1.61594
250.47231,1.60984
250.23124,1.58544
249.99017,1.55955
249.74910,1.54182
249.50803,1.53461
249.26696,1.53695
249.02589,1.54689
248.78481,1.56226
248.54374,1.57715
248.30267,1.58042
248.06160,1.56842
247.82053,1.55179
247.57946,1.54200
247.33839,1.54121
247.09732,1.54823
246.85625,1.56643
246.61518,1.60038
246.37411,1.64468
246.13304,1.67934
245.89197,1.68395
245.65090,1.66028
245.40983,1.63092
245.16876,1.62117
244.92769,1.64359
244.68661,1.68600
244.44554,1.71972
244.20447,1.73178
243.96340,1.73750
243.72233,1.75643
243.48126,1.79336
243.24019,1.84424
242.99912,1.90895
242.75805,1.98199
242.51698,2.03615
242.27591,2.02612
242.03484,1.90873
241.79377,1.77430
241.55270,1.65233
241.31163,1.55982
241.07056,1.50047
240.82949,1.45909
240.58842,1.41612
240.34734,1.36335
240.10627,1.30857
239.86520,1.26461
239.62413,1.23486
239.38306,1.21155
239.14199,1.18625
238.90092,1.15874
238.65985,1.13397
238.41878,1.11533
238.17771,1.10289
237.93664,1.09364
237.69557,1.08214
237.45450,1.06414
237.21343,1.04135
236.97236,1.01969
236.73129,1.00229
236.49022,0.98820
236.24915,0.97709
236.00807,0.96908
235.76700,0.96184
235.52593,0.95405
235.28486,0.94828
235.04379,0.94559
234.80272,0.94239
234.56165,0.93662
234.32058,0.93077
234.07951,0.92637
233.83844,0.92140
233.59737,0.91522
233.35630,0.91069
233.11523,0.90894
232.87416,0.90666
232.63309,0.90120
232.39202,0.89469
232.15095,0.88975
231.90988,0.88598
231.66880,0.88277
231.42773,0.88200
231.18666,0.88464
230.94559,0.88753
230.70452,0.88642
230.46345,0.88085
230.22238,0.87341
229.98131,0.86626
229.74024,0.86115
229.49917,0.85874
229.25810,0.85620
229.01703,0.85026
228.77596,0.84336
228.53489,0.84109
228.29382,0.84469
228.05275,0.84970
227.81168,0.85044
227.57061,0.84506
227.32953,0.83795
227.08846,0.83562
226.84739,0.83876
226.60632,0.84161
226.36525,0.84005
226.12418,0.83607
225.88311,0.83281
225.64204,0.83061
225.40097,0.82838
225.15990,0.82522
224.91883,0.82128
224.67776,0.81854
224.43669,0.81892
224.19562,0.82124
223.95455,0.82251
223.71348,0.82203
223.47241,0.82212
223.23134,0.82503
222.99026,0.83084
222.74919,0.83795
222.50812,0.84499
222.26705,0.85176
222.02598,0.85769
221.78491,0.86077
221.54384,0.86016
221.30277,0.85883
221.06170,0.86075
220.82063,0.86638
220.57956,0.87334
220.33849,0.88038
220.09742,0.88807
219.85635,0.89642
219.61528,0.90482
219.37421,0.91376
219.13314,0.92390
218.89207,0.93443
218.65099,0.94471
218.40992,0.95558
218.16885,0.96724
217.92778,0.97794
217.68671,0.98612
217.44564,0.99146
217.20457,0.99565
216.96350,1.00350
216.72243,1.01935
216.48136,1.04141
216.24029,1.06269
215.99922,1.07756
215.75815,1.08542
215.51708,1.08962
215.27601,1.09477
215.03494,1.10357
214.79387,1.11568
214.55280,1.12975
214.31172,1.14467
214.07065,1.15760
213.82958,1.16386
213.58851,1.16272
213.34744,1.16066
213.10637,1.16675
212.86530,1.18523
212.62423,1.21099
212.38316,1.23142
212.14209,1.23596
211.90102,1.22589
211.65995,1.21264
211.41888,1.20733
211.17781,1.21427
210.93674,1.22941
210.69567,1.24186
210.45460,1.24181
210.21353,1.23089
209.97245,1.22004
209.73138,1.21750
209.49031,1.22383
209.24924,1.23527
209.00817,1.24528
208.76710,1.24438
208.52603,1.22684
208.28496,1.19959
208.04389,1.17769
207.80282,1.17020
207.56175,1.17356
207.32068,1.17717
207.07961,1.17347
206.83854,1.16290
206.59747,1.15013
206.35640,1.13869
206.11533,1.12999
205.87426,1.12396
205.63318,1.11820
205.39211,1.10841
205.15104,1.09303
204.90997,1.07529
204.66890,1.05936
204.42783,1.04688
204.18676,1.03658
203.94569,1.02585
203.70462,1.01296
203.46355,0.99879
203.22248,0.98673
202.98141,0.97918
202.74034,0.97308
202.49927,0.96137
202.25820,0.94142
202.01713,0.91924
201.77606,0.90331
201.53499,0.89702
201.29391,0.89576
201.05284,0.88998
200.81177,0.87513
200.57070,0.85697
200.32963,0.84373
200.08856,0.83636
199.84749,0.82869
199.60642,0.81580
199.36535,0.80045
199.12428,0.78839
198.88321,0.78071
198.64214,0.77374
198.40107,0.76413
198.16000,0.75271
197.91893,0.74290
197.67786,0.73632
197.43679,0.73105
197.19572,0.72437
196.95464,0.71650
196.71357,0.70989
196.47250,0.70524
196.23143,0.70000
195.99036,0.69195
195.74929,0.68334
195.50822,0.67789
195.26715,0.67446
195.02608,0.66797
194.78501,0.65692
194.54394,0.64597
194.30287,0.63979
194.06180,0.63768
193.82073,0.63573
193.57966,0.63144
193.33859,0.62517
193.09752,0.61846
192.85645,0.61251
192.61537,0.60807
192.37430,0.60575
192.13323,0.60543
191.89216,0.60535
191.65109,0.60314
191.41002,0.59864
191.16895,0.59422
190.92788,0.59141
190.68681,0.58893
190.44574,0.58497
190.20467,0.58013
189.96360,0.57656
189.72253,0.57498
189.48146,0.57364
189.24039,0.57101
188.99932,0.56823
188.75825,0.56699
188.51718,0.56619
188.27610,0.56358
188.03503,0.56001
187.79396,0.55847
187.55289,0.55883
187.31182,0.55792
187.07075,0.55500
186.82968,0.55327
186.58861,0.55470
186.34754,0.55705
186.10647,0.55808
185.86540,0.55893
185.62433,0.56027
185.38326,0.55951
185.14219,0.55569
184.90112,0.55245
184.66005,0.55228
184.41898,0.55344
184.17791,0.55484
183.93683,0.55799
183.69576,0.56238
183.45469,0.56469
183.21362,0.56418
182.97255,0.56346
182.73148,0.56369
182.49041,0.56368
182.24934,0.56287
182.00827,0.56182
181.76720,0.56125
181.52613,0.56196
181.28506,0.56389
181.04399,0.56571
180.80292,0.56671
180.56185,0.56754
180.32078,0.56853
180.07971,0.56983
179.83864,0.57273
179.59756,0.57800
179.35649,0.58463
179.11542,0.59185
178.87435,0.60030
178.63328,0.61002
178.39221,0.61964
178.15114,0.62821
177.91007,0.63577
177.66900,0.64243
177.42793,0.64845
177.18686,0.65526
176.94579,0.66550
176.70472,0.68078
176.46365,0.69953
176.22258,0.71819
175.98151,0.73396
175.74044,0.74605
175.49937,0.75571
175.25829,0.76569
175.01722,0.77814
174.77615,0.79399
174.53508,0.81409
174.29401,0.83810
174.05294,0.86308
173.81187,0.88544
173.57080,0.90241
173.32973,0.91165
173.08866,0.91411
172.84759,0.91552
172.60652,0.92104
172.36545,0.93109
172.12438,0.94303
171.88331,0.95339
171.64224,0.95904
171.40117,0.95868
171.16010,0.95231
170.91902,0.94151
170.67795,0.93090
170.43688,0.92465
170.19581,0.92145
169.95474,0.91657
169.71367,0.90801
169.47260,0.89775
169.23153,0.88863
168.99046,0.88229
168.74939,0.87880
168.50832,0.87744
168.26725,0.87814
168.02618,0.88124
167.78511,0.88521
167.54404,0.88676
167.30297,0.88392
167.06190,0.87807
166.82083,0.87253
166.57975,0.87042
166.33868,0.87354
166.09761,0.88231
165.85654,0.89456
165.61547,0.90556
165.37440,0.91171
165.13333,0.91276
164.89226,0.91029
164.65119,0.90739
164.41012,0.90845
164.16905,0.91707
163.92798,0.93348
163.68691,0.95370
163.44584,0.97103
163.20477,0.98081
162.96370,0.98375
162.72263,0.98350
162.48156,0.98307
162.24048,0.98459
161.99941,0.99024
161.75834,1.00105
161.51727,1.01389
161.27620,1.02172
161.03513,1.02046
160.79406,1.01366
160.55299,1.00697
160.31192,1.00314
160.07085,1.00230
159.82978,1.00192
159.58871,0.99744
159.34764,0.98703
159.10657,0.97429
158.86550,0.96463
158.62443,0.96148
158.38336,0.96435
158.14229,0.96811
157.90121,0.96670
157.66014,0.95907
157.41907,0.94903
157.17800,0.94021
156.93693,0.93436
156.69586,0.93208
156.45479,0.93227
156.21372,0.93145
155.97265,0.92545
155.73158,0.91304
155.49051,0.89787
155.24944,0.88552
155.00837,0.87842
154.76730,0.87397
154.52623,0.86689
154.28516,0.85394
154.04409,0.83737
153.80302,0.82246
153.56194,0.81190
153.32087,0.80344
153.07980,0.79269
152.83873,0.77719
152.59766,0.75787
152.35659,0.73785
152.11552,0.72067
151.87445,0.70797
151.63338,0.69809
151.39231,0.68733
151.15124,0.67388
150.91017,0.65963
150.66910,0.64710
150.42803,0.63640
150.18696,0.62485
149.94589,0.60982
149.70482,0.59314
149.46375,0.58002
149.22267,0.57311
148.98160,0.56976
148.74053,0.56559
148.49946,0.56002
148.25839,0.55563
148.01732,0.55296
147.77625,0.54960
147.53518,0.54417
147.29411,0.53852
147.05304,0.53541
146.81197,0.53570
146.57090,0.53819
146.32983,0.54097
146.08876,0.54312
145.84769,0.54537
145.60662,0.54880
145.36555,0.55316
145.12448,0.55717
144.88340,0.56058
144.64233,0.56441
144.40126,0.56933
144.16019,0.57466
143.91912,0.57912
143.67805,0.58208
143.43698,0.58342
143.19591,0.58262
142.95484,0.57914
142.71377,0.57299
142.47270,0.56399
142.23163,0.55172
141.99056,0.53740
141.74949,0.52428
141.50842,0.51488
141.26735,0.50917
141.02628,0.50580
140.78521,0.50393
140.54413,0.50296
140.30306,0.50197
140.06199,0.50071
139.82092,0.50032
139.57985,0.50171
139.33878,0.50427
139.09771,0.50721
138.85664,0.51070
138.61557,0.51488
138.37450,0.51938
138.13343,0.52487
137.89236,0.53342
137.65129,0.54583
137.41022,0.56006
137.16915,0.57344
136.92808,0.58568
136.68701,0.59834
136.44594,0.61323
136.20486,0.63176
135.96379,0.65368
135.72272,0.67686
135.48165,0.70043
135.24058,0.72641
134.99951,0.75629
134.75844,0.78864
134.51737,0.82211
134.27630,0.85608
134.03523,0.88745
133.79416,0.91262
133.55309,0.93312
133.31202,0.95459
133.07095,0.98086
132.82988,1.01049
132.58881,1.03849
132.34774,1.06191
132.10667,1.08289
131.86559,1.10423
131.62452,1.12380
131.38345,1.13613
131.14238,1.13918
130.90131,1.13627
130.66024,1.12992
130.41917,1.11662
130.17810,1.09274
129.93703,1.06012
129.69596,1.02188
129.45489,0.98035
129.21382,0.93984
128.97275,0.90481
128.73168,0.87515
128.49061,0.84630
128.24954,0.81466
128.00847,0.78176
127.76740,0.75173
127.52632,0.72555
127.28525,0.70060
127.04418,0.67554
126.80311,0.65187
126.56204,0.63080
126.32097,0.61222
126.07990,0.59582
125.83883,0.58079
125.59776,0.56604
125.35669,0.55193
125.11562,0.53938
124.87455,0.52747
124.63348,0.51438
124.39241,0.49984
124.15134,0.48505
123.91027,0.47147
123.66920,0.46063
123.42812,0.45382
123.18705,0.45094
122.94598,0.45024
122.70491,0.44961
122.46384,0.44841
122.22277,0.44726
121.98170,0.44656
121.74063,0.44622
121.49956,0.44648
121.25849,0.44803
121.01742,0.45102
120.77635,0.45467
120.53528,0.45789
120.29421,0.46075
120.05314,0.46538
119.81207,0.47492
119.57100,0.49144
119.32993,0.51462
119.08885,0.54219
118.84778,0.57175
118.60671,0.60232
118.36564,0.63339
118.12457,0.66249
117.88350,0.68551
117.64243,0.70116
117.40136,0.71317
117.16029,0.72680
116.91922,0.74420
116.67815,0.76290
116.43708,0.77736
116.19601,0.78261
115.95494,0.77768
115.71387,0.76520
115.47280,0.74804
115.23173,0.72813
114.99066,0.70863
114.74958,0.69365
114.50851,0.68467
114.26744,0.67970
114.02637,0.67668
113.78530,0.67520
113.54423,0.67384
113.30316,0.66914
113.06209,0.65934
112.82102,0.64777
112.57995,0.64059
112.33888,0.64161
112.09781,0.65023
111.85674,0.66313
111.61567,0.67667
111.37460,0.68748
111.13353,0.69201
110.89246,0.68857
110.65139,0.68103
110.41031,0.67670
110.16924,0.67865
109.92817,0.68224
109.68710,0.67963
109.44603,0.66647
109.20496,0.64469
108.96389,0.62066
108.72282,0.60126
108.48175,0.58982
108.24068,0.58452
107.99961,0.57971
107.75854,0.56874
107.51747,0.54828
107.27640,0.52167
107.03533,0.49561
106.79426,0.47445
106.55319,0.45909
106.31212,0.44861
106.07104,0.44097
105.82997,0.43304
105.58890,0.42202
105.34783,0.40779
105.10676,0.39411
104.86569,0.38590
104.62462,0.38424
104.38355,0.38466
104.14248,0.38070
103.90141,0.36912
103.66034,0.35233
103.41927,0.33666
103.17820,0.32772
102.93713,0.32642
102.69606,0.32772
102.45499,0.32402
102.21392,0.31270
101.97285,0.29927
101.73177,0.29115
101.49070,0.29029
101.24963,0.29183
101.00856,0.28939
100.76749,0.28216
100.52642,0.27550
100.28535,0.27409
100.04428,0.27711
99.80321,0.27874
99.56214,0.27382
99.32107,0.26489
99.08000,0.25949
98.83893,0.26088
98.59786,0.26468
98.35679,0.26437
98.11572,0.25969
97.87465,0.25653
97.63358,0.25819
97.39250,0.26130
97.15143,0.26123
96.91036,0.25928
96.66929,0.26079
96.42822,0.26695
96.18715,0.27263
95.94608,0.27430
95.70501,0.27650
95.46394,0.28479
95.22287,0.29586
94.98180,0.30159
94.74073,0.30198
94.49966,0.30453
94.25859,0.31086
94.01752,0.31454
93.77645,0.31299
93.53538,0.31196
93.29431,0.31473
93.05323,0.31646
92.81216,0.31433
92.57109,0.31369
92.33002,0.31686
92.08895,0.31772
91.84788,0.31418
91.60681,0.31387
91.36574,0.32114
91.12467,0.33254
90.88360,0.34664
90.64253,0.36596
90.40146,0.38947
90.16039,0.41501
89.91932,0.44541
89.67825,0.48350
89.43718,0.52786
89.19611,0.57714
88.95504,0.62867
88.71396,0.67415
88.47289,0.70566
88.23182,0.71985
87.99075,0.71338
87.74968,0.68669
87.50861,0.64827
87.26754,0.60659
87.02647,0.56484
86.78540,0.52354
86.54433,0.48432
86.30326,0.44982
86.06219,0.42031
85.82112,0.39308
85.58005,0.36651
85.33898,0.34224
85.09791,0.32205
84.85684,0.30594
84.61577,0.29316
84.37469,0.28237
84.13362,0.27165
83.89255,0.26022
83.65148,0.24942
83.41041,0.24115
83.16934,0.23571
82.92827,0.23131
82.68720,0.22628
82.44613,0.22126
82.20506,0.21744
81.96399,0.21434
81.72292,0.21111
81.48185,0.20796
81.24078,0.20541
80.99971,0.20406
80.75864,0.20466
80.51757,0.20636
80.27650,0.20658
80.03542,0.20411
79.79435,0.20037
79.55328,0.19703
79.31221,0.19436
79.07114,0.19210
78.83007,0.19020
78.58900,0.18850
78.34793,0.18647
78.10686,0.18369
77.86579,0.18016
77.62472,0.17606
77.38365,0.17171
77.14258,0.16777
76.90151,0.16480
76.66044,0.16247
76.41937,0.15996
76.17830,0.15712
75.93723,0.15484
75.69615,0.15386
75.45508,0.15352
75.21401,0.15235
74.97294,0.15002
74.73187,0.14753
74.49080,0.14559
74.24973,0.14445
74.00866,0.14536
73.76759,0.14967
73.52652,0.15611
73.28545,0.16092
73.04438,0.16159
72.80331,0.15910
72.56224,0.15576
72.32117,0.15271
72.08010,0.15042
71.83903,0.14980
71.59796,0.15093
71.35688,0.15221
71.11581,0.15235
70.87474,0.15268
70.63367,0.15648
70.39260,0.16683
70.15153,0.18493
69.91046,0.20922
69.66939,0.23579
69.42832,0.25923
69.18725,0.27332
68.94618,0.27348
68.70511,0.26047
68.46404,0.24032
68.22297,0.21932
67.98190,0.20041
67.74083,0.18443
67.49976,0.17181
67.25869,0.16209
67.01761,0.15357
66.77654,0.14471
66.53547,0.13575
66.29440,0.12853
66.05333,0.12459
65.81226,0.12395
65.57119,0.12589
65.33012,0.13038
65.08905,0.13853
64.84798,0.15187
64.60691,0.17056
64.36584,0.19156
64.12477,0.20928
63.88370,0.21895
63.64263,0.21923
63.40156,0.21184
63.16049,0.19965
62.91942,0.18498
62.67834,0.16903
62.43727,0.15246
62.19620,0.13630
61.95513,0.12163
61.71406,0.10901
61.47299,0.09899
61.23192,0.09299
60.99085,0.09280
60.74978,0.09964
60.50871,0.11420
60.26764,0.13589
60.02657,0.16002
59.78550,0.17611
59.54443,0.17455
59.30336,0.15648
59.06229,0.13152
58.82122,0.10857
58.58015,0.09280
58.33907,0.08708
58.09800,0.09315
57.85693,0.11179
57.61586,0.14151
57.37479,0.17292
57.13372,0.18575
56.89265,0.16873
56.65158,0.13706
56.41051,0.11061
56.16944,0.09898
55.92837,0.10407
55.68730,0.12319
55.44623,0.14866
55.20516,0.16728
54.96409,0.16683
54.72302,0.14834
54.48195,0.12493
54.24088,0.10962
53.99980,0.11035
53.75873,0.12876
53.51766,0.15786
53.27659,0.17975
53.03552,0.17581
52.79445,0.15016
52.55338,0.12289
52.31231,0.11082
52.07124,0.12486
51.83017,0.16298
51.58910,0.18898
51.34803,0.15685
51.10696,0.09934
50.86589,0.06691
50.62482,0.07564
50.38375,0.11927
50.14268,0.15854
49.90161,0.13932
49.66053,0.09246
49.41946,0.07656
49.17839,0.10734
48.93732,0.15186
48.69625,0.14974
48.45518,0.11481
48.21411,0.10154
47.97304,0.12093
47.73197,0.13863
47.49090,0.12012
47.24983,0.09883
47.00876,0.10731
46.76769,0.11889
46.52662,0.10006
46.28555,0.08405
46.04448,0.09885
45.80341,0.11690
45.56234,0.10760
45.32126,0.09423
45.08019,0.09545
44.83912,0.09364
44.59805,0.08597
44.35698,0.09300
44.11591,0.11196
43.87484,0.12210
43.63377,0.11975
43.39270,0.11433
43.15163,0.11225
42.91056,0.11782
42.66949,0.12815
42.42842,0.13151
42.18735,0.12552
41.94628,0.11892
41.70521,0.11528
41.46414,0.11340
41.22307,0.11443
40.98199,0.12078
40.74092,0.13147
40.49985,0.13973
40.25878,0.13981
40.01771,0.13396
39.77664,0.12410
39.53557,0.10864
39.29450,0.09203
39.05343,0.08282
38.81236,0.08404
38.57129,0.09300
38.33022,0.10370
38.08915,0.10936
37.84808,0.11173
37.60701,0.11992
37.36594,0.13208
37.12487,0.13563
36.88380,0.12773
36.64272,0.11498
36.40165,0.10338
36.16058,0.09423
35.91951,0.08509
35.67844,0.07873
35.43737,0.08454
35.19630,0.10311
34.95523,0.11849
34.71416,0.11424
34.47309,0.09330
34.23202,0.07274
33.99095,0.06294
33.74988,0.05906
33.50881,0.05135
33.26774,0.04095
33.02667,0.03960
32.78560,0.05355
32.54453,0.07669
32.30345,0.09943
32.06238,0.11460
31.82131,0.11636
31.58024,0.10038
31.33917,0.07026
31.09810,0.03697
30.85703,0.00580
30.61596,-0.02776
30.37489,-0.06182
30.13382,-0.08272
29.89275,-0.08472
29.65168,-0.07762
29.41061,-0.07003
29.16954,-0.06329
28.92847,-0.06442
28.68740,-0.08177
28.44633,-0.11286
28.20526,-0.14612
27.96418,-0.17147
27.72311,-0.19352
27.48204,-0.22591
27.24097,-0.26814
26.99990,-0.30629
26.75883,-0.33007
26.51776,-0.34402
26.27669,-0.35867
26.03562,-0.37865
25.79455,-0.39499
25.55348,-0.39694
25.31241,-0.39293
25.07134,-0.39336
24.83027,-0.38945
24.58920,-0.36499
24.34813,-0.33951
24.10706,-0.34905
23.86599,-0.38502
23.62491,-0.39955
23.38384,-0.40250
23.14277,-0.39529
22.90170,-0.38788
22.66063,-0.39297
22.41956,-0.38726
22.17849,-0.36812
21.93742,-0.37879
21.69635,-0.42530
21.45528,-0.46112
21.21421,-0.43768
20.97314,-0.39534
20.73207,-0.37764
20.49100,-0.40095
20.24993,-0.43551
20.00886,-0.43417
19.76779,-0.40538
19.52672,-0.38792
19.28564,-0.40227
19.04457,-0.44620
18.80350,-0.49250
18.56243,-0.50158
18.32136,-0.47323
18.08029,-0.44351
17.83922,-0.43302
17.59815,-0.43773
17.35708,-0.44855
17.11601,-0.45769
16.87494,-0.45032
16.63387,-0.43298
16.39280,-0.41075
16.15173,-0.37749
15.91066,-0.33792
15.66959,-0.30615
15.42852,-0.29104
15.18745,-0.28705
14.94637,-0.28817
14.70530,-0.28551
14.46423,-0.27208
14.22316,-0.26164
13.98209,-0.26804
13.74102,-0.29533
13.49995,-0.33613
13.25888,-0.37359
13.01781,-0.39622
12.77674,-0.40394
12.53567,-0.40419
12.29460,-0.40876
12.05353,-0.42132
11.81246,-0.43631
11.57139,-0.44337
11.33032,-0.43786
11.08925,-0.42762
10.84818,-0.41382
10.60710,-0.39936
10.36603,-0.39775
10.12496,-0.41464
9.88389,-0.43571
9.64282,-0.43953
9.40175,-0.42098
9.16068,-0.39074
8.91961,-0.36574
8.67854,-0.35705
8.43747,-0.36534
8.19640,-0.38920
7.95533,-0.42253
7.71426,-0.44972
7.47319,-0.45209
7.23212,-0.43157
6.99105,-0.41059
6.74998,-0.39983
6.50891,-0.38998
6.26783,-0.38344
6.02676,-0.39220
5.78569,-0.40290
5.54462,-0.39745
5.30355,-0.37912
5.06248,-0.35962
4.82141,-0.34940
4.58034,-0.36042
4.33927,-0.38938
4.09820,-0.41366
3.85713,-0.42781
3.61606,-0.44129
3.37499,-0.44414
3.13392,-0.42857
2.89285,-0.40798
2.65178,-0.39619
2.41071,-0.40189
2.16964,-0.42369
1.92856,-0.42872
1.68749,-0.40403
1.44642,-0.39822
1.20535,-0.42420
0.96428,-0.44991
0.72321,-0.49609
0.48214,-0.58404
0.24107,-0.54231
-0.00000,-0.07230
