399.69498,1.47542
399.45391,1.46684
399.21284,1.47586
398.97177,1.49199
398.73070,1.49619
398.48963,1.48299
398.24856,1.46494
398.00749,1.45631
397.76642,1.46121
397.52535,1.47377
397.28428,1.48386
397.04321,1.48468
396.80214,1.47731
396.56107,1.46938
396.32000,1.46590
396.07892,1.46633
395.83785,1.46975
395.59678,1.47401
395.35571,1.47640
395.11464,1.47966
394.87357,1.48581
394.63250,1.48521
394.39143,1.46903
394.15036,1.44617
393.90929,1.43101
393.66822,1.42825
393.42715,1.43628
393.18608,1.45090
392.94501,1.46411
392.70394,1.46974
392.46287,1.47080
392.22180,1.47487
391.98073,1.48403
391.73965,1.49339
391.49858,1.49462
391.25751,1.48693
391.01644,1.48268
390.77537,1.48990
390.53430,1.49814
390.29323,1.48979
390.05216,1.46331
389.81109,1.43553
389.57002,1.42038
389.32895,1.42011
389.08788,1.42854
388.84681,1.43725
388.60574,1.44200
388.36467,1.44342
388.12360,1.44155
387.88253,1.43117
387.64146,1.40798
387.40038,1.38024
387.15931,1.36395
386.91824,1.36585
386.67717,1.37795
386.43610,1.38661
386.19503,1.38257
385.95396,1.36506
385.71289,1.34266
385.47182,1.32714
385.23075,1.32198
384.98968,1.31872
384.74861,1.30786
384.50754,1.29204
384.26647,1.28293
384.02540,1.28358
383.78433,1.28425
383.54326,1.27907
383.30219,1.27446
383.06111,1.27572
382.82004,1.27810
382.57897,1.27399
382.33790,1.26256
382.09683,1.25145
381.85576,1.24871
381.61469,1.25381
381.37362,1.26057
381.13255,1.26433
380.89148,1.26126
380.65041,1.24692
380.40934,1.22305
380.16827,1.20115
379.92720,1.19245
379.68613,1.19709
379.44506,1.20723
379.20399,1.21931
378.96292,1.23665
378.72184,1.25762
378.48077,1.27403
378.23970,1.28329
377.99863,1.28970
377.75756,1.29502
377.51649,1.29930
377.27542,1.30543
377.03435,1.31167
376.79328,1.30894
376.55221,1.29471
376.31114,1.27949
376.07007,1.27538
375.82900,1.28622
375.58793,1.30754
375.34686,1.33032
375.10579,1.34711
374.86472,1.35683
374.62365,1.36203
374.38257,1.36188
374.14150,1.35223
373.90043,1.33495
373.65936,1.32103
373.41829,1.32012
373.17722,1.33145
372.93615,1.34518
372.69508,1.35100
372.45401,1.34705
372.21294,1.33957
371.97187,1.33394
371.73080,1.32991
371.48973,1.32648
371.24866,1.32675
371.00759,1.33283
370.76652,1.33987
370.52545,1.33902
370.28437,1.32548
370.04330,1.30600
369.80223,1.29334
369.56116,1.29294
369.32009,1.29957
369.07902,1.30284
368.83795,1.29679
368.59688,1.28784
368.35581,1.28907
368.11474,1.30394
367.87367,1.31906
367.63260,1.31664
367.39153,1.29493
367.15046,1.27001
366.90939,1.25679
366.66832,1.25640
366.42725,1.25947
366.18618,1.25719
365.94510,1.24936
365.70403,1.24177
365.46296,1.23829
365.22189,1.23786
364.98082,1.23781
364.73975,1.23813
364.49868,1.24135
364.25761,1.24750
364.01654,1.25178
363.77547,1.24989
363.53440,1.24417
363.29333,1.24080
363.05226,1.24228
362.81119,1.24457
362.57012,1.24255
362.32905,1.23655
362.08798,1.23036
361.84691,1.22512
361.60583,1.21955
361.36476,1.21431
361.12369,1.21198
360.88262,1.21336
360.64155,1.21699
360.40048,1.22183
360.15941,1.22745
359.91834,1.23097
359.67727,1.22783
359.43620,1.21742
359.19513,1.20542
358.95406,1.19923
358.71299,1.20194
358.47192,1.20965
358.23085,1.21482
357.98978,1.21414
357.74871,1.21110
357.50764,1.20936
357.26656,1.20868
357.02549,1.20784
356.78442,1.20715
356.54335,1.20791
356.30228,1.21099
356.06121,1.21579
355.82014,1.21926
355.57907,1.21654
355.33800,1.20606
355.09693,1.19381
354.85586,1.18789
354.61479,1.19060
354.37372,1.19758
354.13265,1.20242
353.89158,1.20230
353.65051,1.20041
353.40944,1.20317
353.16837,1.21344
352.92729,1.22512
352.68622,1.22705
352.44515,1.21528
352.20408,1.19819
351.96301,1.18754
351.72194,1.18818
351.48087,1.19618
351.23980,1.20419
350.99873,1.20751
350.75766,1.20507
350.51659,1.19729
350.27552,1.18746
350.03445,1.18245
349.79338,1.18709
349.55231,1.19863
349.31124,1.20903
349.07017,1.21334
348.82910,1.21402
348.58802,1.21610
348.34695,1.22076
348.10588,1.22421
347.86481,1.22220
347.62374,1.21560
347.38267,1.21021
347.14160,1.21004
346.90053,1.21333
346.65946,1.21643
346.41839,1.21933
346.17732,1.22524
345.93625,1.23621
345.69518,1.25006
345.45411,1.26129
345.21304,1.26466
344.97197,1.25908
344.73090,1.24843
344.48983,1.23857
344.24875,1.23416
344.00768,1.23689
343.76661,1.24479
343.52554,1.25414
343.28447,1.26209
343.04340,1.26665
342.80233,1.26677
342.56126,1.26382
342.32019,1.26122
342.07912,1.26245
341.83805,1.26965
341.59698,1.28081
341.35591,1.28999
341.11484,1.29411
340.87377,1.29785
340.63270,1.30705
340.39163,1.31885
340.15056,1.32336
339.90948,1.31506
339.66841,1.29964
339.42734,1.28845
339.18627,1.28797
338.94520,1.29603
338.70413,1.30750
338.46306,1.31912
338.22199,1.32788
337.98092,1.33098
337.73985,1.33045
337.49878,1.33182
337.25771,1.33636
337.01664,1.33960
336.77557,1.33677
336.53450,1.32741
336.29343,1.31613
336.05236,1.30966
335.81129,1.31202
335.57021,1.32092
335.32914,1.32752
335.08807,1.32457
334.84700,1.31584
334.60593,1.31139
334.36486,1.31471
334.12379,1.31993
333.88272,1.31894
333.64165,1.30815
333.40058,1.29021
333.15951,1.27250
332.91844,1.26265
332.67737,1.26460
332.43630,1.27697
332.19523,1.29156
331.95416,1.29705
331.71309,1.28963
331.47202,1.27470
331.23094,1.25809
330.98987,1.24438
330.74880,1.23809
330.50773,1.24062
330.26666,1.24827
330.02559,1.25358
329.78452,1.24947
329.54345,1.23509
329.30238,1.21785
329.06131,1.20775
328.82024,1.20955
328.57917,1.21981
328.33810,1.22876
328.09703,1.22821
327.85596,1.21935
327.61489,1.21099
327.37382,1.21070
327.13275,1.21785
326.89167,1.22482
326.65060,1.22591
326.40953,1.22401
326.16846,1.22538
325.92739,1.23042
325.68632,1.23453
325.44525,1.23458
325.20418,1.23128
324.96311,1.22882
324.72204,1.23208
324.48097,1.24141
324.23990,1.25148
323.99883,1.25799
323.75776,1.26181
323.51669,1.26302
323.27562,1.25808
323.03455,1.24787
322.79348,1.23925
322.55240,1.23737
322.31133,1.24173
322.07026,1.24822
321.82919,1.25175
321.58812,1.24956
321.34705,1.24538
321.10598,1.24632
320.86491,1.25357
320.62384,1.26138
320.38277,1.26426
320.14170,1.26133
319.90063,1.25499
319.65956,1.24712
319.41849,1.23825
319.17742,1.22959
318.93635,1.22462
318.69528,1.22536
318.45421,1.22655
318.21313,1.22118
317.97206,1.21193
317.73099,1.20873
317.48992,1.21498
317.24885,1.22464
317.00778,1.23215
316.76671,1.23793
316.52564,1.24450
316.28457,1.25149
316.04350,1.25517
315.80243,1.25583
315.56136,1.26121
315.32029,1.27631
315.07922,1.29344
314.83815,1.29949
314.59708,1.29181
314.35601,1.27829
314.11494,1.26672
313.87386,1.26219
313.63279,1.26607
313.39172,1.27386
313.15065,1.28050
312.90958,1.28766
312.66851,1.29997
312.42744,1.31593
312.18637,1.32654
311.94530,1.32204
311.70423,1.30212
311.46316,1.27739
311.22209,1.26128
310.98102,1.26169
310.73995,1.27620
310.49888,1.29376
310.25781,1.30295
310.01674,1.30153
309.77567,1.29742
309.53459,1.30035
309.29352,1.31496
309.05245,1.33654
308.81138,1.35332
308.57031,1.35684
308.32924,1.34910
308.08817,1.33755
307.84710,1.32807
307.60603,1.32402
307.36496,1.32417
307.12389,1.32207
306.88282,1.31400
306.64175,1.30431
306.40068,1.29891
306.15961,1.29857
305.91854,1.30033
305.67747,1.30042
305.43640,1.29560
305.19532,1.28611
304.95425,1.27777
304.71318,1.27670
304.47211,1.28201
304.23104,1.28761
303.98997,1.28941
303.74890,1.28692
303.50783,1.28017
303.26676,1.27020
303.02569,1.26157
302.78462,1.25809
302.54355,1.25787
302.30248,1.25760
302.06141,1.25683
301.82034,1.25552
301.57927,1.25243
301.33820,1.24790
301.09713,1.24515
300.85605,1.24574
300.61498,1.24699
300.37391,1.24548
300.13284,1.24096
299.89177,1.23629
299.65070,1.23383
299.40963,1.23246
299.16856,1.22881
298.92749,1.22166
298.68642,1.21394
298.44535,1.20874
298.20428,1.20427
297.96321,1.19634
297.72214,1.18562
297.48107,1.17798
297.24000,1.17708
296.99893,1.18077
296.75786,1.18434
296.51678,1.18457
296.27571,1.18115
296.03464,1.17585
295.79357,1.17082
295.55250,1.16709
295.31143,1.16428
295.07036,1.16172
294.82929,1.15868
294.58822,1.15398
294.34715,1.14731
294.10608,1.14001
293.86501,1.13391
293.62394,1.13016
293.38287,1.12858
293.14180,1.12777
292.90073,1.12687
292.65966,1.12657
292.41859,1.12770
292.17751,1.12911
291.93644,1.12883
291.69537,1.12709
291.45430,1.12549
291.21323,1.12447
290.97216,1.12348
290.73109,1.12202
290.49002,1.11967
290.24895,1.11693
290.00788,1.11537
289.76681,1.11531
289.52574,1.11451
289.28467,1.11164
289.04360,1.10865
288.80253,1.10745
288.56146,1.10665
288.32039,1.10391
288.07932,1.09948
287.83824,1.09589
287.59717,1.09421
287.35610,1.09210
287.11503,1.08718
286.87396,1.08099
286.63289,1.07708
286.39182,1.07616
286.15075,1.07583
285.90968,1.07495
285.66861,1.07523
285.42754,1.07747
285.18647,1.07925
284.94540,1.07849
284.70433,1.07669
284.46326,1.07608
284.22219,1.07586
283.98112,1.07475
283.74005,1.07404
283.49897,1.07414
283.25790,1.07254
283.01683,1.06845
282.77576,1.06563
282.53469,1.06722
282.29362,1.07158
282.05255,1.07588
281.81148,1.07981
281.57041,1.08317
281.32934,1.08417
281.08827,1.08247
280.84720,1.08051
280.60613,1.08049
280.36506,1.08245
280.12399,1.08523
279.88292,1.08701
279.64185,1.08627
279.40078,1.08410
279.15970,1.08350
278.91863,1.08511
278.67756,1.08667
278.43649,1.08718
278.19542,1.08834
277.95435,1.09089
277.71328,1.09293
277.47221,1.09284
277.23114,1.09100
276.99007,1.08850
276.74900,1.08640
276.50793,1.08593
276.26686,1.08763
276.02579,1.09050
275.78472,1.09313
275.54365,1.09481
275.30258,1.09494
275.06151,1.09276
274.82043,1.08868
274.57936,1.08428
274.33829,1.08054
274.09722,1.07771
273.85615,1.07683
273.61508,1.07904
273.37401,1.08342
273.13294,1.08718
272.89187,1.08853
272.65080,1.08856
272.40973,1.08958
272.16866,1.09259
271.92759,1.09698
271.68652,1.10155
271.44545,1.10608
271.20438,1.11195
270.96331,1.11938
270.72224,1.12495
270.48116,1.12538
270.24009,1.12316
269.99902,1.12437
269.75795,1.13072
269.51688,1.13794
269.27581,1.14241
269.03474,1.14577
268.79367,1.15119
268.55260,1.15717
268.31153,1.15896
268.07046,1.15637
267.82939,1.15508
267.58832,1.15938
267.34725,1.16800
267.10618,1.17775
266.86511,1.18775
266.62404,1.19813
266.38297,1.20729
266.14189,1.21342
265.90082,1.21753
265.65975,1.22263
265.41868,1.22953
265.17761,1.23583
264.93654,1.23965
264.69547,1.24238
264.45440,1.24646
264.21333,1.25327
263.97226,1.26366
263.73119,1.27819
263.49012,1.29698
263.24905,1.31999
263.00798,1.34530
262.76691,1.36867
262.52584,1.38706
262.28477,1.40090
262.04370,1.41173
261.80262,1.42075
261.56155,1.43056
261.32048,1.44529
261.07941,1.46737
260.83834,1.49383
260.59727,1.51621
260.35620,1.52658
260.11513,1.52726
259.87406,1.53092
259.63299,1.54739
259.39192,1.57465
259.15085,1.60337
258.90978,1.62622
258.66871,1.64644
258.42764,1.67411
258.18657,1.70883
257.94550,1.73841
257.70443,1.75336
257.46335,1.75664
257.22228,1.75598
256.98121,1.74699
256.74014,1.72578
256.49907,1.70546
256.25800,1.70133
256.01693,1.70737
255.77586,1.70128
255.53479,1.67446
255.29372,1.64136
255.05265,1.62020
254.81158,1.61710
254.57051,1.62513
254.32944,1.62958
254.08837,1.61848
253.84730,1.59504
253.60623,1.57430
253.36516,1.56509
253.12408,1.56236
252.88301,1.55750
252.64194,1.54818
252.40087,1.53714
252.15980,1.52902
251.91873,1.52632
251.67766,1.52395
251.43659,1.51433
251.19552,1.50130
250.95445,1.49708
250.71338,1.50446
250.47231,1.51303
250.23124,1.51379
249.99017,1.50857
249.74910,1.50221
249.50803,1.49363
249.26696,1.48078
249.02589,1.46755
248.78481,1.46058
248.54374,1.46335
248.30267,1.47300
248.06160,1.48271
247.82053,1.48796
247.57946,1.48974
247.33839,1.49259
247.09732,1.49996
246.85625,1.51014
246.61518,1.51736
246.37411,1.51886
246.13304,1.52014
245.89197,1.52953
245.65090,1.54778
245.40983,1.56777
245.16876,1.58615
244.92769,1.60826
244.68661,1.63821
244.44554,1.67065
244.20447,1.69541
243.96340,1.71158
243.72233,1.73144
243.48126,1.76436
243.24019,1.80555
242.99912,1.84551
242.75805,1.88509
242.51698,1.91086
242.27591,1.85812
242.03484,1.75769
241.79377,1.66829
241.55270,1.59381
241.31163,1.53491
241.07056,1.49279
240.82949,1.45620
240.58842,1.41071
240.34734,1.35654
240.10627,1.30616
239.86520,1.26666
239.62413,1.23394
239.38306,1.20223
239.14199,1.17110
238.90092,1.14164
238.65985,1.11359
238.41878,1.08872
238.17771,1.07041
237.93664,1.05797
237.69557,1.04576
237.45450,1.02961
237.21343,1.01145
236.97236,0.99585
236.73129,0.98459
236.49022,0.97563
236.24915,0.96605
236.00807,0.95480
235.76700,0.94308
235.52593,0.93261
235.28486,0.92423
235.04379,0.91747
234.80272,0.91108
234.56165,0.90399
234.32058,0.89653
234.07951,0.89073
233.83844,0.88795
233.59737,0.88616
233.35630,0.88165
233.11523,0.87391
232.87416,0.86653
232.63309,0.86264
232.39202,0.86220
232.15095,0.86394
231.90988,0.86623
231.66880,0.86635
231.42773,0.86299
231.18666,0.85846
230.94559,0.85462
230.70452,0.85010
230.46345,0.84397
230.22238,0.83812
229.98131,0.83389
229.74024,0.83061
229.49917,0.82845
229.25810,0.82839
229.01703,0.82890
228.77596,0.82678
228.53489,0.82226
228.29382,0.81905
228.05275,0.81857
227.81168,0.81804
227.57061,0.81559
227.32953,0.81325
227.08846,0.81257
226.84739,0.81182
226.60632,0.80932
226.36525,0.80590
226.12418,0.80286
225.88311,0.80066
225.64204,0.79976
225.40097,0.80019
225.15990,0.80040
224.91883,0.79867
224.67776,0.79561
224.43669,0.79340
224.19562,0.79297
223.95455,0.79334
223.71348,0.79365
223.47241,0.79449
223.23134,0.79696
222.99026,0.80144
222.74919,0.80758
222.50812,0.81469
222.26705,0.82220
222.02598,0.82977
221.78491,0.83675
221.54384,0.84189
221.30277,0.84495
221.06170,0.84796
220.82063,0.85330
220.57956,0.86072
220.33849,0.86810
220.09742,0.87477
219.85635,0.88197
219.61528,0.89009
219.37421,0.89788
219.13314,0.90527
218.89207,0.91468
218.65099,0.92801
218.40992,0.94331
218.16885,0.95584
217.92778,0.96307
217.68671,0.96760
217.44564,0.97404
217.20457,0.98474
216.96350,0.99969
216.72243,1.01845
216.48136,1.03956
216.24029,1.05924
215.99922,1.07322
215.75815,1.08028
215.51708,1.08319
215.27601,1.08661
215.03494,1.09465
214.79387,1.10890
214.55280,1.12677
214.31172,1.14241
214.07065,1.15174
213.82958,1.15643
213.58851,1.16190
213.34744,1.17147
213.10637,1.18358
212.86530,1.19446
212.62423,1.20221
212.38316,1.20712
212.14209,1.21002
211.90102,1.21198
211.65995,1.21429
211.41888,1.21895
211.17781,1.22743
210.93674,1.23745
210.69567,1.24341
210.45460,1.24051
210.21353,1.22859
209.97245,1.21370
209.73138,1.20501
209.49031,1.20735
209.24924,1.21636
209.00817,1.22190
208.76710,1.21782
208.52603,1.20756
208.28496,1.19889
208.04389,1.19606
207.80282,1.19679
207.56175,1.19448
207.32068,1.18414
207.07961,1.16819
206.83854,1.15433
206.59747,1.14666
206.35640,1.14167
206.11533,1.13331
205.87426,1.11936
205.63318,1.10239
205.39211,1.08662
205.15104,1.07492
204.90997,1.06728
204.66890,1.05965
204.42783,1.04607
204.18676,1.02606
203.94569,1.00677
203.70462,0.99513
203.46355,0.99072
203.22248,0.98723
202.98141,0.97906
202.74034,0.96553
202.49927,0.94931
202.25820,0.93279
202.01713,0.91648
201.77606,0.89994
201.53499,0.88373
201.29391,0.86993
201.05284,0.86011
200.81177,0.85308
200.57070,0.84523
200.32963,0.83406
200.08856,0.82082
199.84749,0.80834
199.60642,0.79734
199.36535,0.78676
199.12428,0.77615
198.88321,0.76613
198.64214,0.75690
198.40107,0.74800
198.16000,0.73936
197.91893,0.73141
197.67786,0.72394
197.43679,0.71628
197.19572,0.70844
196.95464,0.70097
196.71357,0.69371
196.47250,0.68608
196.23143,0.67853
195.99036,0.67258
195.74929,0.66850
195.50822,0.66365
195.26715,0.65510
195.02608,0.64397
194.78501,0.63452
194.54394,0.62866
194.30287,0.62392
194.06180,0.61788
193.82073,0.61192
193.57966,0.60868
193.33859,0.60781
193.09752,0.60621
192.85645,0.60204
192.61537,0.59653
192.37430,0.59147
192.13323,0.58689
191.89216,0.58234
191.65109,0.57849
191.41002,0.57601
191.16895,0.57389
190.92788,0.57068
190.68681,0.56654
190.44574,0.56278
190.20467,0.55989
189.96360,0.55742
189.72253,0.55523
189.48146,0.55356
189.24039,0.55226
188.99932,0.55106
188.75825,0.55021
188.51718,0.54987
188.27610,0.54917
188.03503,0.54700
187.79396,0.54356
187.55289,0.54027
187.31182,0.53786
187.07075,0.53596
186.82968,0.53466
186.58861,0.53488
186.34754,0.53617
186.10647,0.53629
185.86540,0.53455
185.62433,0.53299
185.38326,0.53319
185.14219,0.53441
184.90112,0.53592
184.66005,0.53789
184.41898,0.53955
184.17791,0.53989
183.93683,0.54000
183.69576,0.54156
183.45469,0.54399
183.21362,0.54601
182.97255,0.54819
182.73148,0.55124
182.49041,0.55416
182.24934,0.55609
182.00827,0.55763
181.76720,0.55892
181.52613,0.55873
181.28506,0.55660
181.04399,0.55412
180.80292,0.55324
180.56185,0.55431
180.32078,0.55607
180.07971,0.55747
179.83864,0.55910
179.59756,0.56228
179.35649,0.56756
179.11542,0.57473
178.87435,0.58322
178.63328,0.59223
178.39221,0.60127
178.15114,0.61050
177.91007,0.62006
177.66900,0.62991
177.42793,0.63987
177.18686,0.64926
176.94579,0.65756
176.70472,0.66636
176.46365,0.67879
176.22258,0.69635
175.98151,0.71707
175.74044,0.73736
175.49937,0.75516
175.25829,0.77118
175.01722,0.78747
174.77615,0.80487
174.53508,0.82248
174.29401,0.83892
174.05294,0.85378
173.81187,0.86809
173.57080,0.88329
173.32973,0.89955
173.08866,0.91531
172.84759,0.92830
172.60652,0.93665
172.36545,0.93927
172.12438,0.93720
171.88331,0.93412
171.64224,0.93319
171.40117,0.93408
171.16010,0.93515
170.91902,0.93684
170.67795,0.93980
170.43688,0.94109
170.19581,0.93630
169.95474,0.92513
169.71367,0.91142
169.47260,0.89880
169.23153,0.88926
168.99046,0.88392
168.74939,0.88246
168.50832,0.88268
168.26725,0.88261
168.02618,0.88232
167.78511,0.88209
167.54404,0.88025
167.30297,0.87511
167.06190,0.86848
166.82083,0.86443
166.57975,0.86487
166.33868,0.86867
166.09761,0.87480
165.85654,0.88330
165.61547,0.89263
165.37440,0.89977
165.13333,0.90427
164.89226,0.90949
164.65119,0.91846
164.41012,0.93119
164.16905,0.94546
163.92798,0.95801
163.68691,0.96610
163.44584,0.97007
163.20477,0.97255
162.96370,0.97505
162.72263,0.97800
162.48156,0.98325
162.24048,0.99265
161.99941,1.00405
161.75834,1.01212
161.51727,1.01365
161.27620,1.00983
161.03513,1.00400
160.79406,0.99947
160.55299,0.99832
160.31192,1.00030
160.07085,1.00255
159.82978,1.00147
159.58871,0.99592
159.34764,0.98833
159.10657,0.98259
158.86550,0.98127
158.62443,0.98287
158.38336,0.98152
158.14229,0.97282
157.90121,0.95987
157.66014,0.95001
157.41907,0.94715
157.17800,0.94914
156.93693,0.95003
156.69586,0.94416
156.45479,0.93079
156.21372,0.91538
155.97265,0.90499
155.73158,0.90276
155.49051,0.90556
155.24944,0.90523
155.00837,0.89461
154.76730,0.87509
154.52623,0.85495
154.28516,0.84051
154.04409,0.83167
153.80302,0.82394
153.56194,0.81273
153.32087,0.79707
153.07980,0.78003
152.83873,0.76485
152.59766,0.75140
152.35659,0.73713
152.11552,0.72088
151.87445,0.70451
151.63338,0.69009
151.39231,0.67774
151.15124,0.66663
150.91017,0.65592
150.66910,0.64437
150.42803,0.63100
150.18696,0.61658
149.94589,0.60294
149.70482,0.59105
149.46375,0.58086
149.22267,0.57225
148.98160,0.56522
148.74053,0.55957
148.49946,0.55492
148.25839,0.55063
148.01732,0.54614
147.77625,0.54154
147.53518,0.53746
147.29411,0.53417
147.05304,0.53158
146.81197,0.53022
146.57090,0.53110
146.32983,0.53403
146.08876,0.53722
145.84769,0.53971
145.60662,0.54285
145.36555,0.54809
145.12448,0.55440
144.88340,0.55962
144.64233,0.56323
144.40126,0.56632
144.16019,0.56947
143.91912,0.57215
143.67805,0.57333
143.43698,0.57201
143.19591,0.56803
142.95484,0.56252
142.71377,0.55664
142.47270,0.55043
142.23163,0.54331
141.99056,0.53519
141.74949,0.52638
141.50842,0.51726
141.26735,0.50852
141.02628,0.50111
140.78521,0.49550
140.54413,0.49168
140.30306,0.48961
140.06199,0.48917
139.82092,0.49012
139.57985,0.49258
139.33878,0.49674
139.09771,0.50144
138.85664,0.50495
138.61557,0.50746
138.37450,0.51138
138.13343,0.51848
137.89236,0.52863
137.65129,0.54098
137.41022,0.55505
137.16915,0.57066
136.92808,0.58772
136.68701,0.60580
136.44594,0.62400
136.20486,0.64204
135.96379,0.66123
135.72272,0.68317
135.48165,0.70797
135.24058,0.73449
134.99951,0.76204
134.75844,0.79073
134.51737,0.82042
134.27630,0.85011
134.03523,0.87900
133.79416,0.90762
133.55309,0.93728
133.31202,0.96837
133.07095,0.99929
132.82988,1.02721
132.58881,1.05113
132.34774,1.07449
132.10667,1.10133
131.86559,1.12830
131.62452,1.14562
131.38345,1.14960
131.14238,1.14710
130.90131,1.14390
130.66024,1.13748
130.41917,1.12296
130.17810,1.09899
129.93703,1.06713
129.69596,1.03014
129.45489,0.99154
129.21382,0.95489
128.97275,0.92154
128.73168,0.88949
128.49061,0.85618
128.24954,0.82175
128.00847,0.78842
127.76740,0.75823
127.52632,0.73193
127.28525,0.70878
127.04418,0.68696
126.80311,0.66514
126.56204,0.64340
126.32097,0.62268
126.07990,0.60385
125.83883,0.58742
125.59776,0.57286
125.35669,0.55876
125.11562,0.54419
124.87455,0.52949
124.63348,0.51500
124.39241,0.50046
124.15134,0.48620
123.91027,0.47389
123.66920,0.46537
123.42812,0.46052
123.18705,0.45704
122.94598,0.45275
122.70491,0.44763
122.46384,0.44332
122.22277,0.44095
121.98170,0.44028
121.74063,0.44059
121.49956,0.44164
121.25849,0.44357
121.01742,0.44632
120.77635,0.44980
120.53528,0.45454
120.29421,0.46168
120.05314,0.47229
119.81207,0.48657
119.57100,0.50381
119.32993,0.52327
119.08885,0.54518
118.84778,0.57071
118.60671,0.60069
118.36564,0.63407
118.12457,0.66757
117.88350,0.69794
117.64243,0.72437
117.40136,0.74690
117.16029,0.76296
116.91922,0.77001
116.67815,0.77055
116.43708,0.76929
116.19601,0.76726
115.95494,0.76298
115.71387,0.75675
115.47280,0.74977
115.23173,0.74166
114.99066,0.73159
114.74958,0.71984
114.50851,0.70673
114.26744,0.69222
114.02637,0.67803
113.78530,0.66765
113.54423,0.66321
113.30316,0.66428
113.06209,0.66927
112.82102,0.67555
112.57995,0.67910
112.33888,0.67758
112.09781,0.67353
111.85674,0.67224
111.61567,0.67683
111.37460,0.68630
111.13353,0.69696
110.89246,0.70487
110.65139,0.70779
110.41031,0.70510
110.16924,0.69667
109.92817,0.68367
109.68710,0.66971
109.44603,0.65871
109.20496,0.65146
108.96389,0.64415
108.72282,0.63094
108.48175,0.60958
108.24068,0.58406
107.99961,0.56019
107.75854,0.54113
107.51747,0.52752
107.27640,0.51849
107.03533,0.51085
106.79426,0.49982
106.55319,0.48305
106.31212,0.46285
106.07104,0.44361
105.82997,0.42831
105.58890,0.41778
105.34783,0.41068
105.10676,0.40349
104.86569,0.39275
104.62462,0.37893
104.38355,0.36665
104.14248,0.35963
103.90141,0.35654
103.66034,0.35290
103.41927,0.34580
103.17820,0.33606
102.93713,0.32640
102.69606,0.31928
102.45499,0.31555
102.21392,0.31343
101.97285,0.30961
101.73177,0.30293
101.49070,0.29543
101.24963,0.28971
101.00856,0.28663
100.76749,0.28522
100.52642,0.28325
100.28535,0.27907
100.04428,0.27389
99.80321,0.27080
99.56214,0.27068
99.32107,0.27026
99.08000,0.26597
98.83893,0.25922
98.59786,0.25482
98.35679,0.25436
98.11572,0.25425
97.87465,0.25201
97.63358,0.25064
97.39250,0.25321
97.15143,0.25726
96.91036,0.25841
96.66929,0.25745
96.42822,0.25954
96.18715,0.26670
95.94608,0.27496
95.70501,0.28025
95.46394,0.28446
95.22287,0.29148
94.98180,0.29997
94.74073,0.30489
94.49966,0.30578
94.25859,0.30696
94.01752,0.30984
93.77645,0.31134
93.53538,0.31043
93.29431,0.31008
93.05323,0.31148
92.81216,0.31255
92.57109,0.31281
92.33002,0.31333
92.08895,0.31317
91.84788,0.31207
91.60681,0.31372
91.36574,0.32038
91.12467,0.32984
90.88360,0.34170
90.64253,0.36001
90.40146,0.38647
90.16039,0.41832
89.91932,0.45396
89.67825,0.49462
89.43718,0.54088
89.19611,0.59089
88.95504,0.63964
88.71396,0.68052
88.47289,0.70964
88.23182,0.72419
87.99075,0.71890
87.74968,0.69303
87.50861,0.65378
87.26754,0.60877
87.02647,0.56320
86.78540,0.52125
86.54433,0.48463
86.30326,0.45229
86.06219,0.42323
85.82112,0.39736
85.58005,0.37420
85.33898,0.35288
85.09791,0.33287
84.85684,0.31419
84.61577,0.29752
84.37469,0.28365
84.13362,0.27261
83.89255,0.26365
83.65148,0.25584
83.41041,0.24817
83.16934,0.23990
82.92827,0.23124
82.68720,0.22331
82.44613,0.21732
82.20506,0.21345
81.96399,0.21054
81.72292,0.20704
81.48185,0.20280
81.24078,0.19947
80.99971,0.19864
80.75864,0.19971
80.51757,0.20058
80.27650,0.19989
80.03542,0.19788
79.79435,0.19533
79.55328,0.19253
79.31221,0.18956
79.07114,0.18702
78.83007,0.18595
78.58900,0.18618
78.34793,0.18556
78.10686,0.18243
77.86579,0.17782
77.62472,0.17367
77.38365,0.17009
77.14258,0.16638
76.90151,0.16335
76.66044,0.16224
76.41937,0.16245
76.17830,0.16189
75.93723,0.15948
75.69615,0.15587
75.45508,0.15214
75.21401,0.14918
74.97294,0.14788
74.73187,0.14883
74.49080,0.15166
74.24973,0.15524
74.00866,0.15819
73.76759,0.15950
73.52652,0.15918
73.28545,0.15790
73.04438,0.15621
72.80331,0.15473
72.56224,0.15432
72.32117,0.15519
72.08010,0.15642
71.83903,0.15690
71.59796,0.15590
71.35688,0.15329
71.11581,0.15042
70.87474,0.15013
70.63367,0.15477
70.39260,0.16490
70.15153,0.17999
69.91046,0.19898
69.66939,0.21957
69.42832,0.23765
69.18725,0.24843
68.94618,0.24899
68.70511,0.24033
68.46404,0.22624
68.22297,0.21023
67.98190,0.19420
67.74083,0.17951
67.49976,0.16787
67.25869,0.16046
67.01761,0.15660
66.77654,0.15391
66.53547,0.15008
66.29440,0.14470
66.05333,0.13965
65.81226,0.13772
65.57119,0.14012
65.33012,0.14570
65.08905,0.15309
64.84798,0.16223
64.60691,0.17334
64.36584,0.18552
64.12477,0.19674
63.88370,0.20389
63.64263,0.20407
63.40156,0.19731
63.16049,0.18697
62.91942,0.17635
62.67834,0.16617
62.43727,0.15557
62.19620,0.14433
61.95513,0.13342
61.71406,0.12397
61.47299,0.11656
61.23192,0.11141
60.99085,0.10900
60.74978,0.11035
60.50871,0.11649
60.26764,0.12740
60.02657,0.14138
59.78550,0.15518
59.54443,0.16437
59.30336,0.16459
59.06229,0.15467
58.82122,0.13857
58.58015,0.12283
58.33907,0.11281
58.09800,0.11065
57.85693,0.11560
57.61586,0.12568
57.37479,0.13873
57.13372,0.15161
56.89265,0.15946
56.65158,0.15806
56.41051,0.14758
56.16944,0.13278
55.92837,0.12043
55.68730,0.11649
55.44623,0.12348
55.20516,0.13884
54.96409,0.15597
54.72302,0.16674
54.48195,0.16525
54.24088,0.15251
53.99980,0.13652
53.75873,0.12726
53.51766,0.13245
53.27659,0.15412
53.03552,0.18257
52.79445,0.19477
52.55338,0.17769
52.31231,0.14892
52.07124,0.13103
51.83017,0.13255
51.58910,0.14934
51.34803,0.16481
51.10696,0.15843
50.86589,0.13541
50.62482,0.12137
50.38375,0.13051
50.14268,0.15633
49.90161,0.17252
49.66053,0.16111
49.41946,0.14272
49.17839,0.14190
48.93732,0.15775
48.69625,0.16401
48.45518,0.14611
48.21411,0.13178
47.97304,0.14381
47.73197,0.16784
47.49090,0.16908
47.24983,0.15084
47.00876,0.14392
46.76769,0.14821
46.52662,0.14027
46.28555,0.12358
46.04448,0.12052
45.80341,0.12957
45.56234,0.13675
45.32126,0.14342
45.08019,0.15196
44.83912,0.15185
44.59805,0.14294
44.35698,0.13957
44.11591,0.14293
43.87484,0.14188
43.63377,0.13639
43.39270,0.13584
43.15163,0.14320
42.91056,0.15291
42.66949,0.15860
42.42842,0.15997
42.18735,0.16146
41.94628,0.16463
41.70521,0.16830
41.46414,0.17356
41.22307,0.18015
40.98199,0.18492
40.74092,0.18803
40.49985,0.19140
40.25878,0.19300
40.01771,0.19133
39.77664,0.18849
39.53557,0.18477
39.29450,0.18019
39.05343,0.17980
38.81236,0.18900
38.57129,0.20597
38.33022,0.22250
38.08915,0.23190
37.84808,0.23536
37.60701,0.23662
37.36594,0.23255
37.12487,0.21982
36.88380,0.20493
36.64272,0.19582
36.40165,0.19053
36.16058,0.18254
35.91951,0.17227
35.67844,0.16670
35.43737,0.16894
35.19630,0.17486
34.95523,0.17993
34.71416,0.18198
34.47309,0.17877
34.23202,0.17212
33.99095,0.16970
33.74988,0.17389
33.50881,0.17612
33.26774,0.16808
33.02667,0.14984
32.78560,0.12587
32.54453,0.10361
32.30345,0.09301
32.06238,0.09664
31.82131,0.10328
31.58024,0.09953
31.33917,0.08559
31.09810,0.07355
30.85703,0.07124
30.61596,0.07201
30.37489,0.06399
30.13382,0.04674
29.89275,0.03122
29.65168,0.02307
29.41061,0.01387
29.16954,-0.00858
28.92847,-0.04539
28.68740,-0.08183
28.44633,-0.09863
28.20526,-0.09432
27.96418,-0.08917
27.72311,-0.09975
27.48204,-0.12048
27.24097,-0.13457
26.99990,-0.13975
26.75883,-0.14930
26.51776,-0.17349
26.27669,-0.20879
26.03562,-0.23904
25.79455,-0.24775
25.55348,-0.23290
25.31241,-0.20968
25.07134,-0.19475
24.83027,-0.19425
24.58920,-0.20597
24.34813,-0.22478
24.10706,-0.24791
23.86599,-0.27503
23.62491,-0.30292
23.38384,-0.32224
23.14277,-0.32595
22.90170,-0.32069
22.66063,-0.31623
22.41956,-0.31365
22.17849,-0.31979
21.93742,-0.34786
21.69635,-0.38758
21.45528,-0.40418
21.21421,-0.38888
20.97314,-0.36994
20.73207,-0.37058
20.49100,-0.39000
20.24993,-0.41184
20.00886,-0.42267
19.76779,-0.42479
19.52672,-0.43059
19.28564,-0.44833
19.04457,-0.47243
18.80350,-0.49058
18.56243,-0.49729
18.32136,-0.49704
18.08029,-0.50001
17.83922,-0.51068
17.59815,-0.52628
17.35708,-0.54709
17.11601,-0.56211
16.87494,-0.57859
16.63387,-0.56881
16.39280,-0.54490
16.15173,-0.51993
15.91066,-0.49811
15.66959,-0.48982
15.42852,-0.49830
15.18745,-0.51506
14.94637,-0.52922
14.70530,-0.53315
14.46423,-0.51860
14.22316,-0.48189
13.98209,-0.47094
13.74102,-0.50008
13.49995,-0.56171
13.25888,-0.62414
13.01781,-0.64460
12.77674,-0.63947
12.53567,-0.62169
12.29460,-0.59428
12.05353,-0.55680
11.81246,-0.53703
11.57139,-0.53307
11.33032,-0.52118
11.08925,-0.49427
10.84818,-0.47039
10.60710,-0.46075
10.36603,-0.46817
10.12496,-0.49113
9.88389,-0.51060
9.64282,-0.49783
9.40175,-0.48456
9.16068,-0.48336
8.91961,-0.49929
8.67854,-0.52849
8.43747,-0.55857
8.19640,-0.57615
7.95533,-0.55731
7.71426,-0.52719
7.47319,-0.53729
7.23212,-0.57513
6.99105,-0.57547
6.74998,-0.54247
6.50891,-0.51307
6.26783,-0.49410
6.02676,-0.48318
5.78569,-0.48175
5.54462,-0.48578
5.30355,-0.48118
5.06248,-0.47531
4.82141,-0.48633
4.58034,-0.51253
4.33927,-0.52834
4.09820,-0.53473
3.85713,-0.54941
3.61606,-0.55505
3.37499,-0.55939
3.13392,-0.55042
2.89285,-0.54154
2.65178,-0.52447
2.41071,-0.50755
2.16964,-0.50461
1.92856,-0.50301
1.68749,-0.50422
1.44642,-0.52719
1.20535,-0.55231
0.96428,-0.53973
0.72321,-0.52189
0.48214,-0.52751
0.24107,-0.50088
-0.00000,-0.11950
