399.69498,1.55454
399.45391,1.55972
399.21284,1.57075
398.97177,1.57828
398.73070,1.57259
398.48963,1.55562
398.24856,1.54282
398.00749,1.54506
397.76642,1.55429
397.52535,1.55502
397.28428,1.54844
397.04321,1.54985
396.80214,1.56491
396.56107,1.58428
396.32000,1.59727
396.07892,1.59688
395.83785,1.58116
395.59678,1.56067
395.35571,1.55040
395.11464,1.55128
394.87357,1.55120
394.63250,1.54424
394.39143,1.53746
394.15036,1.53650
393.90929,1.53644
393.66822,1.52921
393.42715,1.51326
393.18608,1.49109
392.94501,1.46645
392.70394,1.44863
392.46287,1.44570
392.22180,1.45277
391.98073,1.46223
391.73965,1.47890
391.49858,1.50627
391.25751,1.53273
391.01644,1.54181
390.77537,1.53088
390.53430,1.50765
390.29323,1.48076
390.05216,1.46107
389.81109,1.45626
389.57002,1.46188
389.32895,1.46625
389.08788,1.46251
388.84681,1.45391
388.60574,1.45097
388.36467,1.46374
388.12360,1.48787
387.88253,1.50450
387.64146,1.49896
387.40038,1.47366
387.15931,1.44189
386.91824,1.41728
386.67717,1.40760
386.43610,1.41518
386.19503,1.43774
385.95396,1.46165
385.71289,1.46376
385.47182,1.43775
385.23075,1.40481
384.98968,1.38233
384.74861,1.36714
384.50754,1.35109
384.26647,1.33425
384.02540,1.32122
383.78433,1.31514
383.54326,1.31191
383.30219,1.30424
383.06111,1.29297
382.82004,1.28432
382.57897,1.28228
382.33790,1.28252
382.09683,1.27894
381.85576,1.27818
381.61469,1.28740
381.37362,1.30091
381.13255,1.31027
380.89148,1.30909
380.65041,1.29593
380.40934,1.28045
380.16827,1.27325
379.92720,1.27322
379.68613,1.27157
379.44506,1.26936
379.20399,1.27761
378.96292,1.29318
378.72184,1.30274
378.48077,1.30751
378.23970,1.31679
377.99863,1.32927
377.75756,1.33725
377.51649,1.33832
377.27542,1.34154
377.03435,1.35640
376.79328,1.37729
376.55221,1.39317
376.31114,1.40269
376.07007,1.40723
375.82900,1.40593
375.58793,1.40196
375.34686,1.39909
375.10579,1.39854
374.86472,1.40122
374.62365,1.40509
374.38257,1.40021
374.14150,1.37981
373.90043,1.35636
373.65936,1.34959
373.41829,1.36363
373.17722,1.38564
372.93615,1.40239
372.69508,1.41180
372.45401,1.41868
372.21294,1.42196
371.97187,1.41410
371.73080,1.39428
371.48973,1.37322
371.24866,1.36150
371.00759,1.36116
370.76652,1.36935
370.52545,1.38258
370.28437,1.39319
370.04330,1.39320
369.80223,1.38803
369.56116,1.39073
369.32009,1.40306
369.07902,1.41040
368.83795,1.39763
368.59688,1.36712
368.35581,1.33479
368.11474,1.31458
367.87367,1.31269
367.63260,1.32715
367.39153,1.34661
367.15046,1.35611
366.90939,1.35150
366.66832,1.34472
366.42725,1.34877
366.18618,1.35861
365.94510,1.35705
365.70403,1.34151
365.46296,1.32738
365.22189,1.32439
364.98082,1.32664
364.73975,1.32677
364.49868,1.32676
364.25761,1.33141
364.01654,1.33890
363.77547,1.34124
363.53440,1.33273
363.29333,1.31519
363.05226,1.29599
362.81119,1.28324
362.57012,1.28155
362.32905,1.29022
362.08798,1.30256
361.84691,1.30845
361.60583,1.30272
361.36476,1.29030
361.12369,1.28030
360.88262,1.27581
360.64155,1.27385
360.40048,1.27396
360.15941,1.27820
359.91834,1.28472
359.67727,1.28748
359.43620,1.28224
359.19513,1.27183
358.95406,1.26394
358.71299,1.26302
358.47192,1.26843
358.23085,1.27857
357.98978,1.28983
357.74871,1.29521
357.50764,1.29069
357.26656,1.27994
357.02549,1.26912
356.78442,1.26131
356.54335,1.25791
356.30228,1.25959
356.06121,1.26287
355.82014,1.26113
355.57907,1.25284
355.33800,1.24446
355.09693,1.24380
354.85586,1.25300
354.61479,1.26640
354.37372,1.27458
354.13265,1.27284
353.89158,1.26535
353.65051,1.25947
353.40944,1.25850
353.16837,1.26042
352.92729,1.26062
352.68622,1.25743
352.44515,1.25472
352.20408,1.25693
351.96301,1.26437
351.72194,1.27313
351.48087,1.27955
351.23980,1.28376
350.99873,1.28615
350.75766,1.28397
350.51659,1.27483
350.27552,1.26111
350.03445,1.24820
349.79338,1.23937
349.55231,1.23699
349.31124,1.24557
349.07017,1.26633
348.82910,1.28907
348.58802,1.29739
348.34695,1.28746
348.10588,1.27222
347.86481,1.26451
347.62374,1.26752
347.38267,1.27808
347.14160,1.29092
346.90053,1.30091
346.65946,1.30446
346.41839,1.30076
346.17732,1.29146
345.93625,1.28159
345.69518,1.27757
345.45411,1.28287
345.21304,1.29521
344.97197,1.30819
344.73090,1.31818
344.48983,1.32685
344.24875,1.33469
344.00768,1.33762
343.76661,1.33385
343.52554,1.32714
343.28447,1.32044
343.04340,1.31531
342.80233,1.31324
342.56126,1.31374
342.32019,1.31789
342.07912,1.33114
341.83805,1.35400
341.59698,1.37272
341.35591,1.37283
341.11484,1.36082
340.87377,1.35497
340.63270,1.36191
340.39163,1.37394
340.15056,1.38168
339.90948,1.38428
339.66841,1.38720
339.42734,1.39266
339.18627,1.39766
338.94520,1.40088
338.70413,1.40302
338.46306,1.40134
338.22199,1.39343
337.98092,1.38384
337.73985,1.37906
337.49878,1.38113
337.25771,1.39051
337.01664,1.40501
336.77557,1.41600
336.53450,1.41680
336.29343,1.41279
336.05236,1.41307
335.81129,1.41748
335.57021,1.41816
335.32914,1.40983
335.08807,1.39788
334.84700,1.39642
334.60593,1.41270
334.36486,1.43394
334.12379,1.43885
333.88272,1.42393
333.64165,1.40217
333.40058,1.38447
333.15951,1.37360
332.91844,1.36758
332.67737,1.36141
332.43630,1.35041
332.19523,1.33451
331.95416,1.31860
331.71309,1.30823
331.47202,1.30284
331.23094,1.29890
330.98987,1.29592
330.74880,1.29437
330.50773,1.29290
330.26666,1.29156
330.02559,1.29313
329.78452,1.29919
329.54345,1.30614
329.30238,1.30684
329.06131,1.29831
328.82024,1.28789
328.57917,1.28883
328.33810,1.30606
328.09703,1.32621
327.85596,1.33110
327.61489,1.32028
327.37382,1.30714
327.13275,1.30009
326.89167,1.30126
326.65060,1.31378
326.40953,1.33385
326.16846,1.34240
325.92739,1.32624
325.68632,1.29640
325.44525,1.27494
325.20418,1.27229
324.96311,1.28203
324.72204,1.29226
324.48097,1.29761
324.23990,1.30359
323.99883,1.32212
323.75776,1.35111
323.51669,1.36379
323.27562,1.33831
323.03455,1.29338
322.79348,1.26670
322.55240,1.26829
322.31133,1.28280
322.07026,1.29237
321.82919,1.28958
321.58812,1.28136
321.34705,1.27564
321.10598,1.27105
320.86491,1.26580
320.62384,1.26812
320.38277,1.28807
320.14170,1.31867
319.90063,1.33436
319.65956,1.31913
319.41849,1.28624
319.17742,1.26457
318.93635,1.27050
318.69528,1.29609
318.45421,1.31794
318.21313,1.32198
317.97206,1.31723
317.73099,1.31540
317.48992,1.31705
317.24885,1.32189
317.00778,1.33429
316.76671,1.35275
316.52564,1.36713
316.28457,1.36942
316.04350,1.35979
315.80243,1.34651
315.56136,1.33785
315.32029,1.33520
315.07922,1.33608
314.83815,1.33759
314.59708,1.33781
314.35601,1.33685
314.11494,1.33717
313.87386,1.33932
313.63279,1.34044
313.39172,1.33760
313.15065,1.33079
312.90958,1.32729
312.66851,1.33639
312.42744,1.35912
312.18637,1.38873
311.94530,1.41561
311.70423,1.42878
311.46316,1.42028
311.22209,1.39546
310.98102,1.37234
310.73995,1.36178
310.49888,1.35879
310.25781,1.35482
310.01674,1.35017
309.77567,1.34975
309.53459,1.35692
309.29352,1.37557
309.05245,1.40483
308.81138,1.43041
308.57031,1.43646
308.32924,1.42704
308.08817,1.41757
307.84710,1.41143
307.60603,1.40059
307.36496,1.38418
307.12389,1.37437
306.88282,1.38134
306.64175,1.39911
306.40068,1.41248
306.15961,1.41394
305.91854,1.40522
305.67747,1.39116
305.43640,1.37655
305.19532,1.36537
304.95425,1.35875
304.71318,1.35782
304.47211,1.36106
304.23104,1.36176
303.98997,1.35638
303.74890,1.34947
303.50783,1.34647
303.26676,1.34464
303.02569,1.33791
302.78462,1.32818
302.54355,1.32012
302.30248,1.31288
302.06141,1.30509
301.82034,1.30131
301.57927,1.30591
301.33820,1.31366
301.09713,1.31429
300.85605,1.30545
300.61498,1.29518
300.37391,1.29193
300.13284,1.29501
299.89177,1.29773
299.65070,1.29634
299.40963,1.29174
299.16856,1.28617
298.92749,1.28105
298.68642,1.27640
298.44535,1.27203
298.20428,1.26931
297.96321,1.26902
297.72214,1.26828
297.48107,1.26425
297.24000,1.25788
296.99893,1.25032
296.75786,1.24049
296.51678,1.23005
296.27571,1.22515
296.03464,1.22957
295.79357,1.23851
295.55250,1.24015
295.31143,1.22693
295.07036,1.20570
294.82929,1.19088
294.58822,1.18973
294.34715,1.19792
294.10608,1.20585
293.86501,1.20805
293.62394,1.20615
293.38287,1.20306
293.14180,1.19881
292.90073,1.19346
292.65966,1.18871
292.41859,1.18562
292.17751,1.18372
291.93644,1.18190
291.69537,1.17767
291.45430,1.16849
291.21323,1.15737
290.97216,1.15207
290.73109,1.15473
290.49002,1.15837
290.24895,1.15678
290.00788,1.15375
289.76681,1.15695
289.52574,1.16532
289.28467,1.16982
289.04360,1.16679
288.80253,1.16323
288.56146,1.16588
288.32039,1.17211
288.07932,1.17430
287.83824,1.16815
287.59717,1.15532
287.35610,1.14188
287.11503,1.13316
286.87396,1.12905
286.63289,1.12681
286.39182,1.12727
286.15075,1.13282
285.90968,1.14021
285.66861,1.14229
285.42754,1.13696
285.18647,1.12878
284.94540,1.12336
284.70433,1.12389
284.46326,1.13010
284.22219,1.13782
283.98112,1.14218
283.74005,1.14240
283.49897,1.14039
283.25790,1.13704
283.01683,1.13301
282.77576,1.13029
282.53469,1.13140
282.29362,1.13546
282.05255,1.13731
281.81148,1.13315
281.57041,1.12599
281.32934,1.12267
281.08827,1.12629
280.84720,1.13343
280.60613,1.13867
280.36506,1.14121
280.12399,1.14449
279.88292,1.14966
279.64185,1.15391
279.40078,1.15540
279.15970,1.15605
278.91863,1.15735
278.67756,1.15705
278.43649,1.15351
278.19542,1.14942
277.95435,1.14762
277.71328,1.14742
277.47221,1.14697
277.23114,1.14520
276.99007,1.14106
276.74900,1.13399
276.50793,1.12602
276.26686,1.12090
276.02579,1.12084
275.78472,1.12427
275.54365,1.12694
275.30258,1.12639
275.06151,1.12467
274.82043,1.12475
274.57936,1.12646
274.33829,1.12841
274.09722,1.13179
273.85615,1.13782
273.61508,1.14374
273.37401,1.14592
273.13294,1.14499
272.89187,1.14462
272.65080,1.14740
272.40973,1.15393
272.16866,1.16298
271.92759,1.17121
271.68652,1.17502
271.44545,1.17396
271.20438,1.17107
270.96331,1.16969
270.72224,1.17198
270.48116,1.17814
270.24009,1.18375
269.99902,1.18295
269.75795,1.17678
269.51688,1.17268
269.27581,1.17533
269.03474,1.18359
268.79367,1.19483
268.55260,1.20676
268.31153,1.21711
268.07046,1.22539
267.82939,1.23262
267.58832,1.23774
267.34725,1.23725
267.10618,1.22982
266.86511,1.22021
266.62404,1.21728
266.38297,1.22704
266.14189,1.24663
265.90082,1.26664
265.65975,1.28018
265.41868,1.28776
265.17761,1.29334
264.93654,1.29825
264.69547,1.30066
264.45440,1.30004
264.21333,1.30104
263.97226,1.30914
263.73119,1.32370
263.49012,1.33889
263.24905,1.34929
263.00798,1.35426
262.76691,1.35784
262.52584,1.36430
262.28477,1.37424
262.04370,1.38757
261.80262,1.40874
261.56155,1.44143
261.32048,1.47996
261.07941,1.51286
260.83834,1.53552
260.59727,1.55648
260.35620,1.58799
260.11513,1.62852
259.87406,1.66265
259.63299,1.68205
259.39192,1.69440
259.15085,1.70891
258.90978,1.73073
258.66871,1.76604
258.42764,1.80917
258.18657,1.84543
257.94550,1.87100
257.70443,1.87197
257.46335,1.84218
257.22228,1.81099
256.98121,1.80162
256.74014,1.80823
256.49907,1.81166
256.25800,1.80625
256.01693,1.79812
255.77586,1.78354
255.53479,1.75192
255.29372,1.71332
255.05265,1.69113
254.81158,1.69568
254.57051,1.71312
254.32944,1.72153
254.08837,1.71295
253.84730,1.69226
253.60623,1.66760
253.36516,1.64660
253.12408,1.63285
252.88301,1.62543
252.64194,1.62071
252.40087,1.61181
252.15980,1.59327
251.91873,1.57025
251.67766,1.55610
251.43659,1.55872
251.19552,1.57220
250.95445,1.58263
250.71338,1.58247
250.47231,1.57550
250.23124,1.56801
249.99017,1.56245
249.74910,1.56110
249.50803,1.56684
249.26696,1.57661
249.02589,1.58479
248.78481,1.58789
248.54374,1.58406
248.30267,1.57678
248.06160,1.57313
247.82053,1.57464
247.57946,1.57594
247.33839,1.57866
247.09732,1.59124
246.85625,1.61346
246.61518,1.63146
246.37411,1.63104
246.13304,1.61618
245.89197,1.60274
245.65090,1.60284
245.40983,1.61777
245.16876,1.63497
244.92769,1.64109
244.68661,1.64005
244.44554,1.64976
244.20447,1.68114
243.96340,1.72469
243.72233,1.76325
243.48126,1.80153
243.24019,1.86472
242.99912,1.95903
242.75805,2.01065
242.51698,1.89761
242.27591,1.79111
242.03484,1.72411
241.79377,1.67335
241.55270,1.62153
241.31163,1.56290
241.07056,1.50503
240.82949,1.45513
240.58842,1.41289
240.34734,1.37504
240.10627,1.33907
239.86520,1.30377
239.62413,1.26979
239.38306,1.23827
239.14199,1.20728
238.90092,1.17426
238.65985,1.14200
238.41878,1.11589
238.17771,1.09594
237.93664,1.07731
237.69557,1.05831
237.45450,1.04275
237.21343,1.03454
236.97236,1.03278
236.73129,1.03198
236.49022,1.02628
236.24915,1.01410
236.00807,0.99909
235.76700,0.98558
235.52593,0.97366
235.28486,0.96067
235.04379,0.94700
234.80272,0.93661
234.56165,0.93098
234.32058,0.92625
234.07951,0.91799
233.83844,0.90682
233.59737,0.89694
233.35630,0.89156
233.11523,0.89158
232.87416,0.89558
232.63309,0.89948
232.39202,0.89979
232.15095,0.89785
231.90988,0.89750
231.66880,0.89871
231.42773,0.89697
231.18666,0.88939
230.94559,0.87884
230.70452,0.87087
230.46345,0.86739
230.22238,0.86519
229.98131,0.86185
229.74024,0.85943
229.49917,0.85932
229.25810,0.85954
229.01703,0.85903
228.77596,0.85904
228.53489,0.85897
228.29382,0.85654
228.05275,0.85201
227.81168,0.84654
227.57061,0.83965
227.32953,0.83216
227.08846,0.82754
226.84739,0.82779
226.60632,0.83076
226.36525,0.83317
226.12418,0.83429
225.88311,0.83499
225.64204,0.83520
225.40097,0.83344
225.15990,0.82900
224.91883,0.82401
224.67776,0.82186
224.43669,0.82368
224.19562,0.82807
223.95455,0.83389
223.71348,0.84035
223.47241,0.84547
223.23134,0.84819
222.99026,0.84976
222.74919,0.85045
222.50812,0.84951
222.26705,0.84932
222.02598,0.85319
221.78491,0.85955
221.54384,0.86375
221.30277,0.86451
221.06170,0.86501
220.82063,0.86941
220.57956,0.87939
220.33849,0.89247
220.09742,0.90430
219.85635,0.91317
219.61528,0.91954
219.37421,0.92326
219.13314,0.92553
218.89207,0.93043
218.65099,0.94079
218.40992,0.95458
218.16885,0.96778
217.92778,0.97892
217.68671,0.98897
217.44564,0.99872
217.20457,1.00839
216.96350,1.01890
216.72243,1.03212
216.48136,1.04914
216.24029,1.06824
215.99922,1.08552
215.75815,1.09764
215.51708,1.10461
215.27601,1.11046
215.03494,1.12058
214.79387,1.13782
214.55280,1.16045
214.31172,1.18276
214.07065,1.19735
213.82958,1.20019
213.58851,1.19481
213.34744,1.18813
213.10637,1.18522
212.86530,1.18861
212.62423,1.19743
212.38316,1.20833
212.14209,1.21770
211.90102,1.22253
211.65995,1.22185
211.41888,1.21825
211.17781,1.21656
210.93674,1.22106
210.69567,1.23147
210.45460,1.24039
210.21353,1.23986
209.97245,1.23077
209.73138,1.22109
209.49031,1.21722
209.24924,1.22051
209.00817,1.22790
208.76710,1.23240
208.52603,1.22774
208.28496,1.21567
208.04389,1.20438
207.80282,1.19818
207.56175,1.19387
207.32068,1.18736
207.07961,1.17946
206.83854,1.17277
206.59747,1.16583
206.35640,1.15476
206.11533,1.14050
205.87426,1.12905
205.63318,1.12185
205.39211,1.11262
205.15104,1.09609
204.90997,1.07589
204.66890,1.06024
204.42783,1.05288
204.18676,1.05111
203.94569,1.04875
203.70462,1.04041
203.46355,1.02552
203.22248,1.00684
202.98141,0.98734
202.74034,0.97066
202.49927,0.96043
202.25820,0.95556
202.01713,0.94851
201.77606,0.93292
201.53499,0.91238
201.29391,0.89581
201.05284,0.88634
200.81177,0.87882
200.57070,0.86703
200.32963,0.85019
200.08856,0.83220
199.84749,0.81711
199.60642,0.80640
199.36535,0.79865
199.12428,0.79057
198.88321,0.77949
198.64214,0.76613
198.40107,0.75464
198.16000,0.74880
197.91893,0.74778
197.67786,0.74566
197.43679,0.73700
197.19572,0.72393
196.95464,0.71436
196.71357,0.71257
196.47250,0.71404
196.23143,0.71003
195.99036,0.69813
195.74929,0.68513
195.50822,0.67765
195.26715,0.67468
195.02608,0.66967
194.78501,0.65979
194.54394,0.64978
194.30287,0.64437
194.06180,0.64197
193.82073,0.63808
193.57966,0.63148
193.33859,0.62457
193.09752,0.61955
192.85645,0.61646
192.61537,0.61408
192.37430,0.61161
192.13323,0.60926
191.89216,0.60743
191.65109,0.60560
191.41002,0.60241
191.16895,0.59734
190.92788,0.59199
190.68681,0.58894
190.44574,0.58896
190.20467,0.58997
189.96360,0.58883
189.72253,0.58450
189.48146,0.57903
189.24039,0.57494
188.99932,0.57212
188.75825,0.56898
188.51718,0.56582
188.27610,0.56443
188.03503,0.56432
187.79396,0.56282
187.55289,0.55992
187.31182,0.55872
187.07075,0.56009
186.82968,0.56108
186.58861,0.55972
186.34754,0.55805
186.10647,0.55817
185.86540,0.55869
185.62433,0.55733
185.38326,0.55516
185.14219,0.55536
184.90112,0.55831
184.66005,0.56098
184.41898,0.56138
184.17791,0.56043
183.93683,0.55907
183.69576,0.55781
183.45469,0.55859
183.21362,0.56236
182.97255,0.56577
182.73148,0.56532
182.49041,0.56328
182.24934,0.56390
182.00827,0.56622
181.76720,0.56652
181.52613,0.56536
181.28506,0.56653
181.04399,0.57059
180.80292,0.57447
180.56185,0.57606
180.32078,0.57608
180.07971,0.57668
179.83864,0.57963
179.59756,0.58466
179.35649,0.58955
179.11542,0.59352
178.87435,0.59894
178.63328,0.60802
178.39221,0.61952
178.15114,0.63050
177.91007,0.63983
177.66900,0.64854
177.42793,0.65780
177.18686,0.66802
176.94579,0.67946
176.70472,0.69241
176.46365,0.70634
176.22258,0.72021
175.98151,0.73386
175.74044,0.74770
175.49937,0.76176
175.25829,0.77671
175.01722,0.79456
174.77615,0.81650
174.53508,0.84128
174.29401,0.86571
174.05294,0.88579
173.81187,0.89933
173.57080,0.90839
173.32973,0.91617
173.08866,0.92266
172.84759,0.92696
172.60652,0.93066
172.36545,0.93537
172.12438,0.93970
171.88331,0.94090
171.64224,0.93833
171.40117,0.93418
171.16010,0.93157
170.91902,0.93285
170.67795,0.93830
170.43688,0.94395
170.19581,0.94281
169.95474,0.93276
169.71367,0.92007
169.47260,0.91145
169.23153,0.90753
168.99046,0.90575
168.74939,0.90495
168.50832,0.90510
168.26725,0.90523
168.02618,0.90468
167.78511,0.90399
167.54404,0.90287
167.30297,0.89939
167.06190,0.89319
166.82083,0.88723
166.57975,0.88482
166.33868,0.88650
166.09761,0.89135
165.85654,0.89931
165.61547,0.91012
165.37440,0.92152
165.13333,0.93086
164.89226,0.93755
164.65119,0.94174
164.41012,0.94243
164.16905,0.93968
163.92798,0.93754
163.68691,0.94109
163.44584,0.95103
163.20477,0.96364
162.96370,0.97564
162.72263,0.98573
162.48156,0.99251
162.24048,0.99457
161.99941,0.99328
161.75834,0.99365
161.51727,1.00039
161.27620,1.01162
161.03513,1.01945
160.79406,1.01858
160.55299,1.01019
160.31192,0.99839
160.07085,0.98712
159.82978,0.97964
159.58871,0.97768
159.34764,0.98011
159.10657,0.98303
158.86550,0.98370
158.62443,0.98340
158.38336,0.98380
158.14229,0.98313
157.90121,0.97923
157.66014,0.97311
157.41907,0.96630
157.17800,0.95806
156.93693,0.94687
156.69586,0.93301
156.45479,0.92010
156.21372,0.91335
155.97265,0.91388
155.73158,0.91537
155.49051,0.90996
155.24944,0.89717
155.00837,0.88241
154.76730,0.86862
154.52623,0.85521
154.28516,0.84252
154.04409,0.83196
153.80302,0.82230
153.56194,0.80989
153.32087,0.79364
153.07980,0.77725
152.83873,0.76525
152.59766,0.75770
152.35659,0.74921
152.11552,0.73437
151.87445,0.71466
151.63338,0.69623
151.39231,0.68276
151.15124,0.67350
150.91017,0.66565
150.66910,0.65579
150.42803,0.64136
150.18696,0.62343
149.94589,0.60681
149.70482,0.59563
149.46375,0.58948
149.22267,0.58365
148.98160,0.57401
148.74053,0.56233
148.49946,0.55439
148.25839,0.55233
148.01732,0.55161
147.77625,0.54678
147.53518,0.53880
147.29411,0.53382
147.05304,0.53530
146.81197,0.54026
146.57090,0.54330
146.32983,0.54290
146.08876,0.54242
145.84769,0.54527
145.60662,0.55154
145.36555,0.55884
145.12448,0.56484
144.88340,0.56869
144.64233,0.57117
144.40126,0.57414
144.16019,0.57872
143.91912,0.58334
143.67805,0.58463
143.43698,0.58083
143.19591,0.57352
142.95484,0.56555
142.71377,0.55843
142.47270,0.55175
142.23163,0.54441
141.99056,0.53598
141.74949,0.52701
141.50842,0.51842
141.26735,0.51108
141.02628,0.50576
140.78521,0.50270
140.54413,0.50104
140.30306,0.49963
140.06199,0.49859
139.82092,0.49927
139.57985,0.50218
139.33878,0.50638
139.09771,0.51123
138.85664,0.51695
138.61557,0.52292
138.37450,0.52784
138.13343,0.53199
137.89236,0.53751
137.65129,0.54594
137.41022,0.55744
137.16915,0.57266
136.92808,0.59203
136.68701,0.61289
136.44594,0.63116
136.20486,0.64664
135.96379,0.66309
135.72272,0.68311
135.48165,0.70664
135.24058,0.73301
134.99951,0.76082
134.75844,0.78781
134.51737,0.81379
134.27630,0.84125
134.03523,0.87153
133.79416,0.90308
133.55309,0.93291
133.31202,0.95981
133.07095,0.98642
132.82988,1.01592
132.58881,1.04692
132.34774,1.07555
132.10667,1.10144
131.86559,1.12552
131.62452,1.14582
131.38345,1.15812
131.14238,1.15734
130.90131,1.14137
130.66024,1.11540
130.41917,1.08781
130.17810,1.06252
129.93703,1.03838
129.69596,1.01165
129.45489,0.97862
129.21382,0.94043
128.97275,0.90349
128.73168,0.87153
128.49061,0.84122
128.24954,0.80793
128.00847,0.77191
127.76740,0.73783
127.52632,0.71027
127.28525,0.68988
127.04418,0.67326
126.80311,0.65641
126.56204,0.63816
126.32097,0.61971
126.07990,0.60185
125.83883,0.58407
125.59776,0.56662
125.35669,0.55129
125.11562,0.53883
124.87455,0.52744
124.63348,0.51561
124.39241,0.50397
124.15134,0.49295
123.91027,0.48174
123.66920,0.47037
123.42812,0.46016
123.18705,0.45205
122.94598,0.44621
122.70491,0.44260
122.46384,0.44094
122.22277,0.44063
121.98170,0.44081
121.74063,0.44052
121.49956,0.43974
121.25849,0.44002
121.01742,0.44336
120.77635,0.45069
120.53528,0.46156
120.29421,0.47446
120.05314,0.48773
119.81207,0.50061
119.57100,0.51332
119.32993,0.52657
119.08885,0.54197
118.84778,0.56196
118.60671,0.58796
118.36564,0.61897
118.12457,0.65197
117.88350,0.68332
117.64243,0.71065
117.40136,0.73415
117.16029,0.75487
116.91922,0.77134
116.67815,0.77954
116.43708,0.77672
116.19601,0.76478
115.95494,0.74977
115.71387,0.73773
115.47280,0.73012
115.23173,0.72368
114.99066,0.71490
114.74958,0.70352
114.50851,0.69204
114.26744,0.68386
114.02637,0.68095
113.78530,0.68043
113.54423,0.67638
113.30316,0.66703
113.06209,0.65644
112.82102,0.64805
112.57995,0.64123
112.33888,0.63571
112.09781,0.63523
111.85674,0.64395
111.61567,0.66131
111.37460,0.68155
111.13353,0.69708
110.89246,0.70230
110.65139,0.69642
110.41031,0.68363
110.16924,0.66975
109.92817,0.65879
109.68710,0.65307
109.44603,0.65332
109.20496,0.65620
108.96389,0.65428
108.72282,0.64098
108.48175,0.61566
108.24068,0.58434
107.99961,0.55482
107.75854,0.53154
107.51747,0.51550
107.27640,0.50632
107.03533,0.50179
106.79426,0.49687
106.55319,0.48563
106.31212,0.46616
106.07104,0.44304
105.82997,0.42347
105.58890,0.41117
105.34783,0.40458
105.10676,0.39989
104.86569,0.39430
104.62462,0.38578
104.38355,0.37347
104.14248,0.36000
103.90141,0.35035
103.66034,0.34680
103.41927,0.34627
103.17820,0.34288
102.93713,0.33362
102.69606,0.32142
102.45499,0.31236
102.21392,0.30952
101.97285,0.30941
101.73177,0.30530
101.49070,0.29495
101.24963,0.28301
101.00856,0.27489
100.76749,0.27217
100.52642,0.27403
100.28535,0.27836
100.04428,0.28034
99.80321,0.27502
99.56214,0.26458
99.32107,0.25816
99.08000,0.26181
98.83893,0.27072
98.59786,0.27237
98.35679,0.26194
98.11572,0.24965
97.87465,0.24727
97.63358,0.25532
97.39250,0.26329
97.15143,0.26263
96.91036,0.25819
96.66929,0.25937
96.42822,0.26698
96.18715,0.27441
95.94608,0.27800
95.70501,0.28075
95.46394,0.28589
95.22287,0.29282
94.98180,0.29948
94.74073,0.30551
94.49966,0.31102
94.25859,0.31415
94.01752,0.31361
93.77645,0.31206
93.53538,0.31247
93.29431,0.31299
93.05323,0.31092
92.81216,0.30912
92.57109,0.31147
92.33002,0.31482
92.08895,0.31411
91.84788,0.31294
91.60681,0.31770
91.36574,0.32683
91.12467,0.33542
90.88360,0.34641
90.64253,0.36494
90.40146,0.38849
90.16039,0.41457
89.91932,0.44885
89.67825,0.49431
89.43718,0.54299
89.19611,0.58724
88.95504,0.62745
88.71396,0.66345
88.47289,0.68999
88.23182,0.70053
87.99075,0.69218
87.74968,0.66922
87.50861,0.63815
87.26754,0.60191
87.02647,0.56296
86.78540,0.52495
86.54433,0.48975
86.30326,0.45802
86.06219,0.43049
85.82112,0.40605
85.58005,0.38275
85.33898,0.36081
85.09791,0.34096
84.85684,0.32212
84.61577,0.30340
84.37469,0.28559
84.13362,0.26998
83.89255,0.25754
83.65148,0.24837
83.41041,0.24160
83.16934,0.23668
82.92827,0.23334
82.68720,0.22974
82.44613,0.22388
82.20506,0.21642
81.96399,0.20957
81.72292,0.20446
81.48185,0.20124
81.24078,0.19985
80.99971,0.19933
80.75864,0.19807
80.51757,0.19569
80.27650,0.19360
80.03542,0.19297
79.79435,0.19294
79.55328,0.19172
79.31221,0.18925
79.07114,0.18682
78.83007,0.18474
78.58900,0.18274
78.34793,0.18152
78.10686,0.18103
77.86579,0.17885
77.62472,0.17344
77.38365,0.16697
77.14258,0.16247
76.90151,0.16001
76.66044,0.15761
76.41937,0.15486
76.17830,0.15340
75.93723,0.15382
75.69615,0.15439
75.45508,0.15330
75.21401,0.15075
74.97294,0.14822
74.73187,0.14704
74.49080,0.14800
74.24973,0.15136
74.00866,0.15647
73.76759,0.16125
73.52652,0.16287
73.28545,0.16028
73.04438,0.15607
72.80331,0.15422
72.56224,0.15620
72.32117,0.16014
72.08010,0.16343
71.83903,0.16458
71.59796,0.16284
71.35688,0.15837
71.11581,0.15345
70.87474,0.15158
70.63367,0.15459
70.39260,0.16223
70.15153,0.17460
69.91046,0.19271
69.66939,0.21585
69.42832,0.23930
69.18725,0.25567
68.94618,0.25947
68.70511,0.25052
68.46404,0.23292
68.22297,0.21179
67.98190,0.19134
67.74083,0.17432
67.49976,0.16197
67.25869,0.15399
67.01761,0.14866
66.77654,0.14365
66.53547,0.13753
66.29440,0.13076
66.05333,0.12529
65.81226,0.12324
65.57119,0.12612
65.33012,0.13435
65.08905,0.14692
64.84798,0.16183
64.60691,0.17743
64.36584,0.19251
64.12477,0.20448
63.88370,0.20953
63.64263,0.20679
63.40156,0.19982
63.16049,0.19146
62.91942,0.18057
62.67834,0.16605
62.43727,0.15042
62.19620,0.13694
61.95513,0.12581
61.71406,0.11554
61.47299,0.10642
61.23192,0.10046
60.99085,0.09867
60.74978,0.10061
60.50871,0.10615
60.26764,0.11543
60.02657,0.12727
59.78550,0.14014
59.54443,0.15423
59.30336,0.16886
59.06229,0.17827
58.82122,0.17604
58.58015,0.16329
58.33907,0.14584
58.09800,0.12773
57.85693,0.11213
57.61586,0.10314
57.37479,0.10206
57.13372,0.10589
56.89265,0.11323
56.65158,0.12769
56.41051,0.15133
56.16944,0.17676
55.92837,0.18759
55.68730,0.17261
55.44623,0.14050
55.20516,0.10853
54.96409,0.08824
54.72302,0.08530
54.48195,0.10155
54.24088,0.13483
53.99980,0.17727
53.75873,0.20855
53.51766,0.20066
53.27659,0.15964
53.03552,0.12035
52.79445,0.10293
52.55338,0.11039
52.31231,0.13734
52.07124,0.16831
51.83017,0.17661
51.58910,0.15113
51.34803,0.11468
51.10696,0.09191
50.86589,0.09502
50.62482,0.12769
50.38375,0.16964
50.14268,0.16716
49.90161,0.11988
49.66053,0.08626
49.41946,0.09813
49.17839,0.15202
48.93732,0.18854
48.69625,0.14673
48.45518,0.09654
48.21411,0.09647
47.97304,0.14270
47.73197,0.18048
47.49090,0.15832
47.24983,0.12289
47.00876,0.11672
46.76769,0.12156
46.52662,0.10941
46.28555,0.09725
46.04448,0.10018
45.80341,0.09857
45.56234,0.08696
45.32126,0.08851
45.08019,0.10047
44.83912,0.09592
44.59805,0.08267
44.35698,0.08881
44.11591,0.10723
43.87484,0.11033
43.63377,0.10152
43.39270,0.09962
43.15163,0.10527
42.91056,0.10812
42.66949,0.10442
42.42842,0.10193
42.18735,0.10833
41.94628,0.11786
41.70521,0.11916
41.46414,0.11452
41.22307,0.11237
40.98199,0.11249
40.74092,0.11256
40.49985,0.11449
40.25878,0.11951
40.01771,0.12658
39.77664,0.13382
39.53557,0.13781
39.29450,0.13856
39.05343,0.14120
38.81236,0.14907
38.57129,0.16240
38.33022,0.17814
38.08915,0.18806
37.84808,0.18963
37.60701,0.19363
37.36594,0.20510
37.12487,0.21203
36.88380,0.20458
36.64272,0.18691
36.40165,0.16832
36.16058,0.15780
35.91951,0.16068
35.67844,0.17630
35.43737,0.19719
35.19630,0.20988
34.95523,0.20702
34.71416,0.19583
34.47309,0.18216
34.23202,0.16143
33.99095,0.13518
33.74988,0.11496
33.50881,0.10309
33.26774,0.08986
33.02667,0.07581
32.78560,0.07837
32.54453,0.10288
32.30345,0.13019
32.06238,0.14343
31.82131,0.14026
31.58024,0.11873
31.33917,0.08196
31.09810,0.04983
30.85703,0.04157
30.61596,0.05075
30.37489,0.05517
30.13382,0.04328
29.89275,0.02136
29.65168,0.00384
29.41061,-0.00325
29.16954,-0.00696
28.92847,-0.01730
28.68740,-0.03697
28.44633,-0.05749
28.20526,-0.06670
27.96418,-0.06400
27.72311,-0.05606
27.48204,-0.04391
27.24097,-0.02818
26.99990,-0.01656
26.75883,-0.01600
26.51776,-0.02562
26.27669,-0.04300
26.03562,-0.06833
25.79455,-0.10336
25.55348,-0.14581
25.31241,-0.18296
25.07134,-0.19513
24.83027,-0.17781
24.58920,-0.14950
24.34813,-0.13312
24.10706,-0.13830
23.86599,-0.16009
23.62491,-0.19144
23.38384,-0.23138
23.14277,-0.27576
22.90170,-0.31057
22.66063,-0.32224
22.41956,-0.30283
22.17849,-0.25963
21.93742,-0.22384
21.69635,-0.22410
21.45528,-0.25369
21.21421,-0.27996
20.97314,-0.28923
20.73207,-0.29706
20.49100,-0.31949
20.24993,-0.35740
20.00886,-0.39502
19.76779,-0.41886
19.52672,-0.43659
19.28564,-0.45286
19.04457,-0.45965
18.80350,-0.46113
18.56243,-0.47298
18.32136,-0.49542
18.08029,-0.50659
17.83922,-0.48626
17.59815,-0.44831
17.35708,-0.42549
17.11601,-0.42758
16.87494,-0.42429
16.63387,-0.39594
16.39280,-0.38687
16.15173,-0.38569
15.91066,-0.38689
15.66959,-0.40537
15.42852,-0.43356
15.18745,-0.43751
14.94637,-0.41118
14.70530,-0.39232
14.46423,-0.40851
14.22316,-0.43712
13.98209,-0.44328
13.74102,-0.41543
13.49995,-0.36330
13.25888,-0.32344
13.01781,-0.32621
12.77674,-0.37168
12.53567,-0.42205
12.29460,-0.42830
12.05353,-0.40916
11.81246,-0.41194
11.57139,-0.43864
11.33032,-0.45238
11.08925,-0.45049
10.84818,-0.45528
10.60710,-0.46683
10.36603,-0.47667
10.12496,-0.48998
9.88389,-0.49195
9.64282,-0.47213
9.40175,-0.43480
9.16068,-0.41294
8.91961,-0.43860
8.67854,-0.48857
8.43747,-0.50839
8.19640,-0.47951
7.95533,-0.43500
7.71426,-0.41223
7.47319,-0.42779
7.23212,-0.47133
6.99105,-0.51619
6.74998,-0.53768
6.50891,-0.52446
6.26783,-0.49703
6.02676,-0.48997
5.78569,-0.49583
5.54462,-0.49370
5.30355,-0.48660
5.06248,-0.47752
4.82141,-0.45855
4.58034,-0.42826
4.33927,-0.40634
4.09820,-0.41536
3.85713,-0.46393
3.61606,-0.49986
3.37499,-0.49651
3.13392,-0.48421
2.89285,-0.48079
2.65178,-0.46124
2.41071,-0.43066
2.16964,-0.42759
1.92856,-0.41483
1.68749,-0.39380
1.44642,-0.40123
1.20535,-0.42951
0.96428,-0.46672
0.72321,-0.54068
0.48214,-0.68294
0.24107,-0.71637
-0.00000,-0.11331
