399.69498,1.56363
399.45391,1.55354
399.21284,1.54325
398.97177,1.53894
398.73070,1.54087
398.48963,1.54486
398.24856,1.54704
398.00749,1.54599
397.76642,1.54355
397.52535,1.54134
397.28428,1.53600
397.04321,1.52404
396.80214,1.51085
396.56107,1.50430
396.32000,1.50469
396.07892,1.50535
395.83785,1.49872
395.59678,1.48504
395.35571,1.47445
395.11464,1.47677
394.87357,1.49170
394.63250,1.50820
394.39143,1.51551
394.15036,1.51520
393.90929,1.51650
393.66822,1.52249
393.42715,1.52913
393.18608,1.53603
392.94501,1.54704
392.70394,1.55973
392.46287,1.56333
392.22180,1.55156
391.98073,1.53506
391.73965,1.53118
391.49858,1.54262
391.25751,1.55574
391.01644,1.56135
390.77537,1.56438
390.53430,1.56685
390.29323,1.56202
390.05216,1.54942
389.81109,1.53573
389.57002,1.52155
389.32895,1.50607
389.08788,1.49346
388.84681,1.48537
388.60574,1.47802
388.36467,1.46827
388.12360,1.45898
387.88253,1.45446
387.64146,1.45424
387.40038,1.45526
387.15931,1.45789
386.91824,1.46329
386.67717,1.46739
386.43610,1.46627
386.19503,1.46320
385.95396,1.46027
385.71289,1.45316
385.47182,1.44019
385.23075,1.42404
384.98968,1.40624
384.74861,1.38896
384.50754,1.37643
384.26647,1.36895
384.02540,1.36158
383.78433,1.35419
383.54326,1.35411
383.30219,1.36250
383.06111,1.36707
382.82004,1.35637
382.57897,1.33560
382.33790,1.31561
382.09683,1.30129
381.85576,1.29600
381.61469,1.30277
381.37362,1.31760
381.13255,1.32997
380.89148,1.33278
380.65041,1.32868
380.40934,1.32522
380.16827,1.32271
379.92720,1.31865
379.68613,1.31172
379.44506,1.30275
379.20399,1.29801
378.96292,1.30400
378.72184,1.32097
378.48077,1.34037
378.23970,1.35012
377.99863,1.34699
377.75756,1.33841
377.51649,1.33104
377.27542,1.32905
377.03435,1.33605
376.79328,1.35032
376.55221,1.36546
376.31114,1.37800
376.07007,1.39036
375.82900,1.40588
375.58793,1.42265
375.34686,1.43343
375.10579,1.43126
374.86472,1.41733
374.62365,1.40145
374.38257,1.39245
374.14150,1.39152
373.90043,1.39639
373.65936,1.40512
373.41829,1.41268
373.17722,1.41517
372.93615,1.41241
372.69508,1.40626
372.45401,1.40678
372.21294,1.42067
371.97187,1.43779
371.73080,1.44104
371.48973,1.42683
371.24866,1.40982
371.00759,1.40444
370.76652,1.41058
370.52545,1.41843
370.28437,1.42042
370.04330,1.41611
369.80223,1.40889
369.56116,1.40201
369.32009,1.39492
369.07902,1.38503
368.83795,1.37469
368.59688,1.36939
368.35581,1.36938
368.11474,1.36809
367.87367,1.35991
367.63260,1.34714
367.39153,1.33770
367.15046,1.33749
366.90939,1.34596
366.66832,1.35637
366.42725,1.36025
366.18618,1.35550
365.94510,1.34842
365.70403,1.34468
365.46296,1.34271
365.22189,1.33737
364.98082,1.32685
364.73975,1.31385
364.49868,1.30280
364.25761,1.29741
364.01654,1.29793
363.77547,1.30091
363.53440,1.30260
363.29333,1.30198
363.05226,1.29955
362.81119,1.29571
362.57012,1.29166
362.32905,1.28947
362.08798,1.28925
361.84691,1.28809
361.60583,1.28321
361.36476,1.27629
361.12369,1.27155
360.88262,1.27012
360.64155,1.26992
360.40048,1.26991
360.15941,1.27066
359.91834,1.27149
359.67727,1.27121
359.43620,1.27015
359.19513,1.26804
358.95406,1.26369
358.71299,1.25991
358.47192,1.26306
358.23085,1.27410
357.98978,1.28483
357.74871,1.28670
357.50764,1.27999
357.26656,1.27044
357.02549,1.26237
356.78442,1.25753
356.54335,1.25622
356.30228,1.25676
356.06121,1.25448
355.82014,1.24540
355.57907,1.23329
355.33800,1.22749
355.09693,1.23205
354.85586,1.24241
354.61479,1.25256
354.37372,1.26136
354.13265,1.27064
353.89158,1.27890
353.65051,1.28119
353.40944,1.27536
353.16837,1.26531
352.92729,1.25737
352.68622,1.25430
352.44515,1.25442
352.20408,1.25459
351.96301,1.25278
351.72194,1.25031
351.48087,1.25029
351.23980,1.25238
350.99873,1.25331
350.75766,1.25291
350.51659,1.25359
350.27552,1.25524
350.03445,1.25546
349.79338,1.25310
349.55231,1.24909
349.31124,1.24640
349.07017,1.24946
348.82910,1.25937
348.58802,1.27110
348.34695,1.28039
348.10588,1.28865
347.86481,1.29599
347.62374,1.29810
347.38267,1.29403
347.14160,1.28828
346.90053,1.28494
346.65946,1.28567
346.41839,1.29076
346.17732,1.29805
345.93625,1.30427
345.69518,1.30930
345.45411,1.31482
345.21304,1.31892
344.97197,1.31777
344.73090,1.31266
344.48983,1.30875
344.24875,1.30687
344.00768,1.30497
343.76661,1.30593
343.52554,1.31280
343.28447,1.31943
343.04340,1.31766
342.80233,1.31133
342.56126,1.31063
342.32019,1.31909
342.07912,1.33462
341.83805,1.35471
341.59698,1.37331
341.35591,1.38027
341.11484,1.37272
340.87377,1.36049
340.63270,1.35437
340.39163,1.35579
340.15056,1.36003
339.90948,1.36518
339.66841,1.37494
339.42734,1.39050
339.18627,1.40260
338.94520,1.40071
338.70413,1.38870
338.46306,1.37847
338.22199,1.37437
337.98092,1.37420
337.73985,1.37697
337.49878,1.38072
337.25771,1.38061
337.01664,1.37673
336.77557,1.37576
336.53450,1.38167
336.29343,1.39161
336.05236,1.40105
335.81129,1.40736
335.57021,1.40890
335.32914,1.40533
335.08807,1.39878
334.84700,1.39114
334.60593,1.38239
334.36486,1.37394
334.12379,1.36958
333.88272,1.37101
333.64165,1.37405
333.40058,1.37152
333.15951,1.36159
332.91844,1.35012
332.67737,1.34217
332.43630,1.33756
332.19523,1.33586
331.95416,1.33726
331.71309,1.33827
331.47202,1.33400
331.23094,1.32312
330.98987,1.30899
330.74880,1.29768
330.50773,1.29227
330.26666,1.28958
330.02559,1.28549
329.78452,1.28232
329.54345,1.28459
329.30238,1.28827
329.06131,1.28519
328.82024,1.27941
328.57917,1.28224
328.33810,1.29454
328.09703,1.30562
327.85596,1.30864
327.61489,1.30849
327.37382,1.31033
327.13275,1.31195
326.89167,1.31190
326.65060,1.31343
326.40953,1.31619
326.16846,1.31608
325.92739,1.31419
325.68632,1.31509
325.44525,1.31703
325.20418,1.31253
324.96311,1.29926
324.72204,1.28499
324.48097,1.27825
324.23990,1.27720
323.99883,1.27384
323.75776,1.26733
323.51669,1.26576
323.27562,1.27478
323.03455,1.29074
322.79348,1.30388
322.55240,1.30563
322.31133,1.29816
322.07026,1.29587
321.82919,1.30821
321.58812,1.32363
321.34705,1.32373
321.10598,1.31335
320.86491,1.31562
320.62384,1.34140
320.38277,1.37731
320.14170,1.39956
319.90063,1.39778
319.65956,1.37900
319.41849,1.35399
319.17742,1.33012
318.93635,1.31283
318.69528,1.30568
318.45421,1.30774
318.21313,1.31502
317.97206,1.32414
317.73099,1.33125
317.48992,1.33018
317.24885,1.31825
317.00778,1.30500
316.76671,1.30249
316.52564,1.30953
316.28457,1.31315
316.04350,1.30564
315.80243,1.29556
315.56136,1.29666
315.32029,1.31280
315.07922,1.33487
314.83815,1.34988
314.59708,1.35329
314.35601,1.34959
314.11494,1.34274
313.87386,1.33553
313.63279,1.33596
313.39172,1.35345
313.15065,1.38251
312.90958,1.39961
312.66851,1.39189
312.42744,1.37540
312.18637,1.37139
311.94530,1.38000
311.70423,1.38544
311.46316,1.38146
311.22209,1.37910
310.98102,1.39054
310.73995,1.41332
310.49888,1.43073
310.25781,1.43090
310.01674,1.41967
309.77567,1.40805
309.53459,1.40099
309.29352,1.40051
309.05245,1.40754
308.81138,1.41715
308.57031,1.42114
308.32924,1.41837
308.08817,1.41287
307.84710,1.40332
307.60603,1.38680
307.36496,1.36734
307.12389,1.35253
306.88282,1.34764
306.64175,1.35339
306.40068,1.36698
306.15961,1.38281
305.91854,1.39248
305.67747,1.39001
305.43640,1.37826
305.19532,1.36586
304.95425,1.35747
304.71318,1.35259
304.47211,1.35312
304.23104,1.36282
303.98997,1.37755
303.74890,1.38498
303.50783,1.37894
303.26676,1.36498
303.02569,1.35000
302.78462,1.33690
302.54355,1.32697
302.30248,1.32141
302.06141,1.32120
301.82034,1.32564
301.57927,1.32965
301.33820,1.32687
301.09713,1.31781
300.85605,1.30931
300.61498,1.30588
300.37391,1.30677
300.13284,1.30939
299.89177,1.30966
299.65070,1.30188
299.40963,1.28535
299.16856,1.26888
298.92749,1.26315
298.68642,1.26939
298.44535,1.27684
298.20428,1.27331
297.96321,1.25821
297.72214,1.24279
297.48107,1.23820
297.24000,1.24397
296.99893,1.24827
296.75786,1.24175
296.51678,1.22815
296.27571,1.21750
296.03464,1.21568
295.79357,1.22145
295.55250,1.22767
295.31143,1.22629
295.07036,1.21633
294.82929,1.20515
294.58822,1.20024
294.34715,1.20241
294.10608,1.20678
293.86501,1.20749
293.62394,1.20129
293.38287,1.19060
293.14180,1.18204
292.90073,1.17945
292.65966,1.18054
292.41859,1.18050
292.17751,1.17723
291.93644,1.17230
291.69537,1.16806
291.45430,1.16595
291.21323,1.16580
290.97216,1.16561
290.73109,1.16312
290.49002,1.15837
290.24895,1.15376
290.00788,1.15167
289.76681,1.15210
289.52574,1.15176
289.28467,1.14698
289.04360,1.13942
288.80253,1.13566
288.56146,1.13880
288.32039,1.14424
288.07932,1.14577
287.83824,1.14354
287.59717,1.14275
287.35610,1.14605
287.11503,1.15072
286.87396,1.15336
286.63289,1.15428
286.39182,1.15532
286.15075,1.15557
285.90968,1.15219
285.66861,1.14500
285.42754,1.13721
285.18647,1.13149
284.94540,1.12765
284.70433,1.12482
284.46326,1.12332
284.22219,1.12328
283.98112,1.12350
283.74005,1.12319
283.49897,1.12280
283.25790,1.12261
283.01683,1.12287
282.77576,1.12486
282.53469,1.12876
282.29362,1.13191
282.05255,1.13244
281.81148,1.13210
281.57041,1.13257
281.32934,1.13274
281.08827,1.13196
280.84720,1.13196
280.60613,1.13371
280.36506,1.13533
280.12399,1.13499
279.88292,1.13407
279.64185,1.13446
279.40078,1.13477
279.15970,1.13298
278.91863,1.13061
278.67756,1.13050
278.43649,1.13251
278.19542,1.13512
277.95435,1.13880
277.71328,1.14435
277.47221,1.14964
277.23114,1.15081
276.99007,1.14612
276.74900,1.13826
276.50793,1.13208
276.26686,1.12972
276.02579,1.12952
275.78472,1.12990
275.54365,1.13114
275.30258,1.13323
275.06151,1.13500
274.82043,1.13604
274.57936,1.13715
274.33829,1.13893
274.09722,1.14094
273.85615,1.14172
273.61508,1.13977
273.37401,1.13563
273.13294,1.13215
272.89187,1.13215
272.65080,1.13588
272.40973,1.14118
272.16866,1.14615
271.92759,1.15055
271.68652,1.15488
271.44545,1.15941
271.20438,1.16411
270.96331,1.16815
270.72224,1.16996
270.48116,1.16962
270.24009,1.16966
269.99902,1.17152
269.75795,1.17414
269.51688,1.17708
269.27581,1.18098
269.03474,1.18476
268.79367,1.18711
268.55260,1.19052
268.31153,1.19824
268.07046,1.20745
267.82939,1.21163
267.58832,1.21038
267.34725,1.21075
267.10618,1.21767
266.86511,1.22836
266.62404,1.23719
266.38297,1.24258
266.14189,1.24737
265.90082,1.25390
265.65975,1.26048
265.41868,1.26433
265.17761,1.26647
264.93654,1.27091
264.69547,1.27975
264.45440,1.29180
264.21333,1.30547
263.97226,1.32007
263.73119,1.33428
263.49012,1.34510
263.24905,1.35070
263.00798,1.35494
262.76691,1.36536
262.52584,1.38506
262.28477,1.40898
262.04370,1.42891
261.80262,1.44135
261.56155,1.44981
261.32048,1.46009
261.07941,1.47465
260.83834,1.49332
260.59727,1.51768
260.35620,1.54966
260.11513,1.58226
259.87406,1.60213
259.63299,1.61139
259.39192,1.62642
259.15085,1.65543
258.90978,1.69161
258.66871,1.72243
258.42764,1.73951
258.18657,1.74783
257.94550,1.76658
257.70443,1.80696
257.46335,1.85931
257.22228,1.90403
256.98121,1.92097
256.74014,1.90073
256.49907,1.86343
256.25800,1.84249
256.01693,1.85156
255.77586,1.87344
255.53479,1.87388
255.29372,1.84146
255.05265,1.79758
254.81158,1.75993
254.57051,1.72791
254.32944,1.69674
254.08837,1.67071
253.84730,1.65767
253.60623,1.65681
253.36516,1.65983
253.12408,1.66004
252.88301,1.65436
252.64194,1.64268
252.40087,1.62951
252.15980,1.62191
251.91873,1.62290
251.67766,1.62752
251.43659,1.62943
251.19552,1.63030
250.95445,1.63571
250.71338,1.64203
250.47231,1.63787
250.23124,1.62413
249.99017,1.61445
249.74910,1.60995
249.50803,1.59854
249.26696,1.57995
249.02589,1.56848
248.78481,1.57090
248.54374,1.57746
248.30267,1.57558
248.06160,1.56570
247.82053,1.55839
247.57946,1.56085
247.33839,1.57323
247.09732,1.59050
246.85625,1.60318
246.61518,1.60791
246.37411,1.61324
246.13304,1.62358
245.89197,1.63038
245.65090,1.62570
245.40983,1.61593
245.16876,1.61481
244.92769,1.62997
244.68661,1.65949
244.44554,1.69590
244.20447,1.73212
243.96340,1.76906
243.72233,1.81568
243.48126,1.87403
243.24019,1.93206
242.99912,1.97886
242.75805,1.99633
242.51698,1.93909
242.27591,1.84945
242.03484,1.76964
241.79377,1.70189
241.55270,1.63743
241.31163,1.57097
241.07056,1.50465
240.82949,1.44373
240.58842,1.39234
240.34734,1.35181
240.10627,1.31946
239.86520,1.29109
239.62413,1.26466
239.38306,1.23838
239.14199,1.20910
238.90092,1.17719
238.65985,1.14845
238.41878,1.12633
238.17771,1.10784
237.93664,1.08998
237.69557,1.07399
237.45450,1.06061
237.21343,1.04682
236.97236,1.03017
236.73129,1.01237
236.49022,0.99731
236.24915,0.98698
236.00807,0.97941
235.76700,0.97082
235.52593,0.96029
235.28486,0.95061
235.04379,0.94347
234.80272,0.93730
234.56165,0.93086
234.32058,0.92550
234.07951,0.92201
233.83844,0.91814
233.59737,0.91175
233.35630,0.90461
233.11523,0.90024
232.87416,0.89910
232.63309,0.89832
232.39202,0.89615
232.15095,0.89369
231.90988,0.89204
231.66880,0.89041
231.42773,0.88755
231.18666,0.88314
230.94559,0.87781
230.70452,0.87265
230.46345,0.86861
230.22238,0.86599
229.98131,0.86452
229.74024,0.86382
229.49917,0.86338
229.25810,0.86279
229.01703,0.86164
228.77596,0.85904
228.53489,0.85466
228.29382,0.85003
228.05275,0.84700
227.81168,0.84544
227.57061,0.84429
227.32953,0.84345
227.08846,0.84332
226.84739,0.84398
226.60632,0.84487
226.36525,0.84398
226.12418,0.83903
225.88311,0.83135
225.64204,0.82561
225.40097,0.82450
225.15990,0.82624
224.91883,0.82725
224.67776,0.82554
224.43669,0.82209
224.19562,0.81996
223.95455,0.82148
223.71348,0.82621
223.47241,0.83216
223.23134,0.83832
222.99026,0.84473
222.74919,0.85091
222.50812,0.85556
222.26705,0.85803
222.02598,0.85923
221.78491,0.86087
221.54384,0.86409
221.30277,0.86847
221.06170,0.87284
220.82063,0.87749
220.57956,0.88454
220.33849,0.89477
220.09742,0.90542
219.85635,0.91336
219.61528,0.91958
219.37421,0.92705
219.13314,0.93498
218.89207,0.93997
218.65099,0.94290
218.40992,0.94943
218.16885,0.96286
217.92778,0.98037
217.68671,0.99738
217.44564,1.01299
217.20457,1.02903
216.96350,1.04539
216.72243,1.05899
216.48136,1.06767
216.24029,1.07227
215.99922,1.07537
215.75815,1.08084
215.51708,1.09190
215.27601,1.10727
215.03494,1.12251
214.79387,1.13593
214.55280,1.14871
214.31172,1.16000
214.07065,1.16759
213.82958,1.17209
213.58851,1.17577
213.34744,1.18088
213.10637,1.19040
212.86530,1.20534
212.62423,1.22141
212.38316,1.23356
212.14209,1.24183
211.90102,1.24836
211.65995,1.25195
211.41888,1.24914
211.17781,1.24010
210.93674,1.23078
210.69567,1.22752
210.45460,1.23094
210.21353,1.23633
209.97245,1.23918
209.73138,1.23872
209.49031,1.23626
209.24924,1.23279
209.00817,1.22932
208.76710,1.22654
208.52603,1.22321
208.28496,1.21761
208.04389,1.21060
207.80282,1.20391
207.56175,1.19749
207.32068,1.19174
207.07961,1.18860
206.83854,1.18765
206.59747,1.18407
206.35640,1.17350
206.11533,1.15673
205.87426,1.13795
205.63318,1.12090
205.39211,1.10752
205.15104,1.09767
204.90997,1.08960
204.66890,1.08099
204.42783,1.06952
204.18676,1.05421
203.94569,1.03731
203.70462,1.02293
203.46355,1.01304
203.22248,1.00634
202.98141,1.00032
202.74034,0.99234
202.49927,0.97946
202.25820,0.96076
202.01713,0.93969
201.77606,0.92175
201.53499,0.90991
201.29391,0.90288
201.05284,0.89684
200.81177,0.88792
200.57070,0.87424
200.32963,0.85738
200.08856,0.84118
199.84749,0.82876
199.60642,0.82051
199.36535,0.81430
199.12428,0.80751
198.88321,0.79907
198.64214,0.78951
198.40107,0.77987
198.16000,0.77097
197.91893,0.76267
197.67786,0.75352
197.43679,0.74216
197.19572,0.72940
196.95464,0.71796
196.71357,0.71038
196.47250,0.70764
196.23143,0.70804
195.99036,0.70666
195.74929,0.69891
195.50822,0.68625
195.26715,0.67495
195.02608,0.66909
194.78501,0.66661
194.54394,0.66257
194.30287,0.65566
194.06180,0.64897
193.82073,0.64484
193.57966,0.64209
193.33859,0.63852
193.09752,0.63398
192.85645,0.62992
192.61537,0.62654
192.37430,0.62239
192.13323,0.61694
191.89216,0.61182
191.65109,0.60843
191.41002,0.60576
191.16895,0.60203
190.92788,0.59724
190.68681,0.59274
190.44574,0.58913
190.20467,0.58607
189.96360,0.58335
189.72253,0.58138
189.48146,0.58033
189.24039,0.57925
188.99932,0.57670
188.75825,0.57295
188.51718,0.57019
188.27610,0.56960
188.03503,0.56926
187.79396,0.56714
187.55289,0.56460
187.31182,0.56409
187.07075,0.56512
186.82968,0.56552
186.58861,0.56488
186.34754,0.56425
186.10647,0.56329
185.86540,0.56077
185.62433,0.55751
185.38326,0.55611
185.14219,0.55759
184.90112,0.56009
184.66005,0.56179
184.41898,0.56324
184.17791,0.56542
183.93683,0.56760
183.69576,0.56881
183.45469,0.56952
183.21362,0.57017
182.97255,0.57008
182.73148,0.56938
182.49041,0.56973
182.24934,0.57185
182.00827,0.57447
181.76720,0.57625
181.52613,0.57705
181.28506,0.57750
181.04399,0.57843
180.80292,0.58031
180.56185,0.58244
180.32078,0.58417
180.07971,0.58649
179.83864,0.59077
179.59756,0.59622
179.35649,0.60104
179.11542,0.60522
178.87435,0.61017
178.63328,0.61638
178.39221,0.62317
178.15114,0.63029
177.91007,0.63843
177.66900,0.64834
177.42793,0.66006
177.18686,0.67276
176.94579,0.68512
176.70472,0.69705
176.46365,0.71031
176.22258,0.72610
175.98151,0.74264
175.74044,0.75781
175.49937,0.77274
175.25829,0.78981
175.01722,0.80882
174.77615,0.82785
174.53508,0.84544
174.29401,0.86094
174.05294,0.87486
173.81187,0.88835
173.57080,0.90145
173.32973,0.91377
173.08866,0.92615
172.84759,0.93791
172.60652,0.94598
172.36545,0.94953
172.12438,0.95163
171.88331,0.95476
171.64224,0.95843
171.40117,0.96069
171.16010,0.96030
170.91902,0.95821
170.67795,0.95639
170.43688,0.95463
170.19581,0.95090
169.95474,0.94495
169.71367,0.93772
169.47260,0.92913
169.23153,0.91931
168.99046,0.91004
168.74939,0.90341
168.50832,0.89981
168.26725,0.89766
168.02618,0.89503
167.78511,0.89167
167.54404,0.88908
167.30297,0.88905
167.06190,0.89267
166.82083,0.89892
166.57975,0.90426
166.33868,0.90563
166.09761,0.90365
165.85654,0.90109
165.61547,0.90065
165.37440,0.90493
165.13333,0.91496
164.89226,0.92758
164.65119,0.93779
164.41012,0.94466
164.16905,0.95202
163.92798,0.96284
163.68691,0.97597
163.44584,0.98805
163.20477,0.99644
162.96370,1.00033
162.72263,1.00110
162.48156,1.00156
162.24048,1.00373
161.99941,1.00792
161.75834,1.01389
161.51727,1.02068
161.27620,1.02478
161.03513,1.02226
160.79406,1.01428
160.55299,1.00609
160.31192,1.00093
160.07085,0.99787
159.82978,0.99533
159.58871,0.99404
159.34764,0.99527
159.10657,0.99724
158.86550,0.99582
158.62443,0.98940
158.38336,0.98070
158.14229,0.97322
157.90121,0.96767
157.66014,0.96200
157.41907,0.95432
157.17800,0.94598
156.93693,0.94066
156.69586,0.93984
156.45479,0.94055
156.21372,0.93880
155.97265,0.93327
155.73158,0.92489
155.49051,0.91468
155.24944,0.90341
155.00837,0.89197
154.76730,0.88099
154.52623,0.87063
154.28516,0.86108
154.04409,0.85218
153.80302,0.84217
153.56194,0.82909
153.32087,0.81347
153.07980,0.79714
152.83873,0.78076
152.59766,0.76524
152.35659,0.75287
152.11552,0.74409
151.87445,0.73506
151.63338,0.72132
151.39231,0.70313
151.15124,0.68548
150.91017,0.67279
150.66910,0.66432
150.42803,0.65535
150.18696,0.64260
149.94589,0.62716
149.70482,0.61188
149.46375,0.59882
149.22267,0.58902
148.98160,0.58245
148.74053,0.57775
148.49946,0.57296
148.25839,0.56710
148.01732,0.56117
147.77625,0.55738
147.53518,0.55677
147.29411,0.55768
147.05304,0.55715
146.81197,0.55414
146.57090,0.55066
146.32983,0.54954
146.08876,0.55195
145.84769,0.55688
145.60662,0.56246
145.36555,0.56777
145.12448,0.57322
144.88340,0.57921
144.64233,0.58492
144.40126,0.58918
144.16019,0.59206
143.91912,0.59430
143.67805,0.59556
143.43698,0.59437
143.19591,0.58998
142.95484,0.58345
142.71377,0.57636
142.47270,0.56936
142.23163,0.56215
141.99056,0.55472
141.74949,0.54743
141.50842,0.54001
141.26735,0.53212
141.02628,0.52463
140.78521,0.51890
140.54413,0.51485
140.30306,0.51131
140.06199,0.50814
139.82092,0.50685
139.57985,0.50866
139.33878,0.51287
139.09771,0.51768
138.85664,0.52256
138.61557,0.52852
138.37450,0.53602
138.13343,0.54418
137.89236,0.55271
137.65129,0.56255
137.41022,0.57411
137.16915,0.58697
136.92808,0.60107
136.68701,0.61697
136.44594,0.63502
136.20486,0.65516
135.96379,0.67683
135.72272,0.69908
135.48165,0.72189
135.24058,0.74670
134.99951,0.77432
134.75844,0.80318
134.51737,0.83151
134.27630,0.86013
134.03523,0.89123
133.79416,0.92521
133.55309,0.96067
133.31202,0.99604
133.07095,1.02828
132.82988,1.05323
132.58881,1.07149
132.34774,1.08926
132.10667,1.11013
131.86559,1.13083
131.62452,1.14674
131.38345,1.15721
131.14238,1.16351
130.90131,1.16376
130.66024,1.15206
130.41917,1.12655
130.17810,1.09461
129.93703,1.06464
129.69596,1.03801
129.45489,1.01081
129.21382,0.97916
128.97275,0.94228
128.73168,0.90341
128.49061,0.86754
128.24954,0.83699
128.00847,0.80982
127.76740,0.78284
127.52632,0.75531
127.28525,0.72904
127.04418,0.70527
126.80311,0.68308
126.56204,0.66115
126.32097,0.63975
126.07990,0.61984
125.83883,0.60185
125.59776,0.58589
125.35669,0.57166
125.11562,0.55802
124.87455,0.54425
124.63348,0.53119
124.39241,0.52022
124.15134,0.51133
123.91027,0.50302
123.66920,0.49417
123.42812,0.48543
123.18705,0.47829
122.94598,0.47305
122.70491,0.46860
122.46384,0.46453
122.22277,0.46196
121.98170,0.46149
121.74063,0.46191
121.49956,0.46203
121.25849,0.46246
121.01742,0.46472
120.77635,0.46949
120.53528,0.47632
120.29421,0.48452
120.05314,0.49391
119.81207,0.50505
119.57100,0.51900
119.32993,0.53670
119.08885,0.55854
118.84778,0.58387
118.60671,0.61128
118.36564,0.63971
118.12457,0.66888
117.88350,0.69803
117.64243,0.72524
117.40136,0.74925
117.16029,0.77028
116.91922,0.78792
116.67815,0.79984
116.43708,0.80413
116.19601,0.80132
115.95494,0.79269
115.71387,0.77900
115.47280,0.76194
115.23173,0.74405
114.99066,0.72682
114.74958,0.71084
114.50851,0.69712
114.26744,0.68652
114.02637,0.67883
113.78530,0.67395
113.54423,0.67317
113.30316,0.67771
113.06209,0.68633
112.82102,0.69571
112.57995,0.70363
112.33888,0.70994
112.09781,0.71419
111.85674,0.71511
111.61567,0.71278
111.37460,0.70888
111.13353,0.70489
110.89246,0.70168
110.65139,0.69968
110.41031,0.69855
110.16924,0.69739
109.92817,0.69553
109.68710,0.69234
109.44603,0.68705
109.20496,0.67892
108.96389,0.66673
108.72282,0.64881
108.48175,0.62550
108.24068,0.60104
107.99961,0.58080
107.75854,0.56637
107.51747,0.55506
107.27640,0.54379
107.03533,0.53140
106.79426,0.51771
106.55319,0.50266
106.31212,0.48679
106.07104,0.47105
105.82997,0.45588
105.58890,0.44110
105.34783,0.42708
105.10676,0.41505
104.86569,0.40592
104.62462,0.39907
104.38355,0.39249
104.14248,0.38416
103.90141,0.37339
103.66034,0.36140
103.41927,0.35045
103.17820,0.34233
102.93713,0.33770
102.69606,0.33640
102.45499,0.33687
102.21392,0.33566
101.97285,0.32931
101.73177,0.31764
101.49070,0.30433
101.24963,0.29417
101.00856,0.29013
100.76749,0.29181
100.52642,0.29568
100.28535,0.29757
100.04428,0.29570
99.80321,0.29072
99.56214,0.28447
99.32107,0.27961
99.08000,0.27888
98.83893,0.28230
98.59786,0.28546
98.35679,0.28339
98.11572,0.27706
97.87465,0.27287
97.63358,0.27518
97.39250,0.28121
97.15143,0.28379
96.91036,0.28033
96.66929,0.27676
96.42822,0.27965
96.18715,0.28809
95.94608,0.29501
95.70501,0.29662
95.46394,0.29758
95.22287,0.30333
94.98180,0.31235
94.74073,0.31898
94.49966,0.32128
94.25859,0.32240
94.01752,0.32454
93.77645,0.32624
93.53538,0.32645
93.29431,0.32695
93.05323,0.32806
92.81216,0.32674
92.57109,0.32296
92.33002,0.32216
92.08895,0.32673
91.84788,0.33187
91.60681,0.33415
91.36574,0.33759
91.12467,0.34653
90.88360,0.35992
90.64253,0.37626
90.40146,0.39848
90.16039,0.42885
89.91932,0.46481
89.67825,0.50428
89.43718,0.54883
89.19611,0.59704
88.95504,0.64227
88.71396,0.68023
88.47289,0.70889
88.23182,0.72239
87.99075,0.71721
87.74968,0.69713
87.50861,0.66604
87.26754,0.62756
87.02647,0.58754
86.78540,0.54927
86.54433,0.51276
86.30326,0.47947
86.06219,0.45101
85.82112,0.42555
85.58005,0.40082
85.33898,0.37748
85.09791,0.35688
84.85684,0.33917
84.61577,0.32385
84.37469,0.30989
84.13362,0.29657
83.89255,0.28463
83.65148,0.27496
83.41041,0.26682
83.16934,0.25891
82.92827,0.25100
82.68720,0.24355
82.44613,0.23689
82.20506,0.23087
81.96399,0.22519
81.72292,0.22007
81.48185,0.21616
81.24078,0.21319
80.99971,0.20995
80.75864,0.20611
80.51757,0.20261
80.27650,0.20015
80.03542,0.19839
79.79435,0.19678
79.55328,0.19514
79.31221,0.19328
79.07114,0.19141
78.83007,0.19073
78.58900,0.19179
78.34793,0.19275
78.10686,0.19122
77.86579,0.18733
77.62472,0.18331
77.38365,0.18061
77.14258,0.17899
76.90151,0.17774
76.66044,0.17662
76.41937,0.17581
76.17830,0.17563
75.93723,0.17616
75.69615,0.17649
75.45508,0.17496
75.21401,0.17156
74.97294,0.16894
74.73187,0.16990
74.49080,0.17421
74.24973,0.17900
74.00866,0.18174
73.76759,0.18209
73.52652,0.18087
73.28545,0.17859
73.04438,0.17603
72.80331,0.17420
72.56224,0.17297
72.32117,0.17137
72.08010,0.16997
71.83903,0.17102
71.59796,0.17528
71.35688,0.18038
71.11581,0.18222
70.87474,0.17810
70.63367,0.16966
70.39260,0.16282
70.15153,0.16386
69.91046,0.17527
69.66939,0.19464
69.42832,0.21620
69.18725,0.23307
68.94618,0.23987
68.70511,0.23531
68.46404,0.22256
68.22297,0.20659
67.98190,0.19128
67.74083,0.17858
67.49976,0.16892
67.25869,0.16177
67.01761,0.15621
66.77654,0.15165
66.53547,0.14842
66.29440,0.14751
66.05333,0.14991
65.81226,0.15559
65.57119,0.16317
65.33012,0.17093
65.08905,0.17854
64.84798,0.18747
64.60691,0.19917
64.36584,0.21270
64.12477,0.22414
63.88370,0.22926
63.64263,0.22701
63.40156,0.21944
63.16049,0.20909
62.91942,0.19835
62.67834,0.18902
62.43727,0.18101
62.19620,0.17295
61.95513,0.16463
61.71406,0.15726
61.47299,0.15150
61.23192,0.14686
60.99085,0.14260
60.74978,0.13837
60.50871,0.13477
60.26764,0.13287
60.02657,0.13289
59.78550,0.13389
59.54443,0.13476
59.30336,0.13483
59.06229,0.13405
58.82122,0.13353
58.58015,0.13504
58.33907,0.13920
58.09800,0.14516
57.85693,0.15268
57.61586,0.16258
57.37479,0.17371
57.13372,0.18119
56.89265,0.17972
56.65158,0.16850
56.41051,0.15174
56.16944,0.13505
55.92837,0.12194
55.68730,0.11320
55.44623,0.10876
55.20516,0.10907
54.96409,0.11470
54.72302,0.12602
54.48195,0.14289
54.24088,0.16293
53.99980,0.18078
53.75873,0.19134
53.51766,0.19247
53.27659,0.18394
53.03552,0.16804
52.79445,0.15096
52.55338,0.14039
52.31231,0.14189
52.07124,0.15673
51.83017,0.18040
51.58910,0.20090
51.34803,0.20253
51.10696,0.18042
50.86589,0.14806
50.62482,0.12268
50.38375,0.11467
50.14268,0.13032
49.90161,0.17211
49.66053,0.21784
49.41946,0.21194
49.17839,0.15978
48.93732,0.12144
48.69625,0.12327
48.45518,0.15898
48.21411,0.18991
47.97304,0.17587
47.73197,0.14659
47.49090,0.14229
47.24983,0.15959
47.00876,0.16380
46.76769,0.14410
46.52662,0.13001
46.28555,0.13275
46.04448,0.13521
45.80341,0.12915
45.56234,0.12848
45.32126,0.13653
45.08019,0.13731
44.83912,0.12878
44.59805,0.12665
44.35698,0.13156
44.11591,0.13376
43.87484,0.13768
43.63377,0.14921
43.39270,0.15979
43.15163,0.16419
42.91056,0.16815
42.66949,0.17035
42.42842,0.16744
42.18735,0.16581
41.94628,0.16656
41.70521,0.16407
41.46414,0.16105
41.22307,0.16377
40.98199,0.17120
40.74092,0.18011
40.49985,0.18997
40.25878,0.20053
40.01771,0.21168
39.77664,0.22174
39.53557,0.22668
39.29450,0.22801
39.05343,0.23277
38.81236,0.24285
38.57129,0.25537
38.33022,0.26908
38.08915,0.28180
37.84808,0.28791
37.60701,0.28450
37.36594,0.27587
37.12487,0.26773
36.88380,0.26078
36.64272,0.25308
36.40165,0.24578
36.16058,0.24255
35.91951,0.24344
35.67844,0.24586
35.43737,0.25027
35.19630,0.25737
34.95523,0.26120
34.71416,0.25263
34.47309,0.23157
34.23202,0.21030
33.99095,0.19993
33.74988,0.19952
33.50881,0.20385
33.26774,0.21475
33.02667,0.23339
32.78560,0.24792
32.54453,0.24461
32.30345,0.22519
32.06238,0.20266
31.82131,0.18739
31.58024,0.18255
31.33917,0.18738
31.09810,0.19540
30.85703,0.19255
30.61596,0.17149
30.37489,0.14560
30.13382,0.13189
29.89275,0.13115
29.65168,0.13517
29.41061,0.13833
29.16954,0.13527
28.92847,0.11981
28.68740,0.09357
28.44633,0.07026
28.20526,0.05883
27.96418,0.04949
27.72311,0.03073
27.48204,0.00889
27.24097,-0.00214
26.99990,0.00117
26.75883,0.01336
26.51776,0.02744
26.27669,0.03732
26.03562,0.04162
25.79455,0.04177
25.55348,0.03441
25.31241,0.01686
25.07134,-0.00395
24.83027,-0.02135
24.58920,-0.03875
24.34813,-0.05845
24.10706,-0.07427
23.86599,-0.08375
23.62491,-0.09521
23.38384,-0.11472
23.14277,-0.13511
22.90170,-0.14480
22.66063,-0.14205
22.41956,-0.13298
22.17849,-0.12248
21.93742,-0.11581
21.69635,-0.12074
21.45528,-0.14115
21.21421,-0.16896
20.97314,-0.18735
20.73207,-0.18891
20.49100,-0.18374
20.24993,-0.18185
20.00886,-0.17962
19.76779,-0.17465
19.52672,-0.18161
19.28564,-0.21816
19.04457,-0.28023
18.80350,-0.33201
18.56243,-0.34125
18.32136,-0.32191
18.08029,-0.29997
17.83922,-0.27961
17.59815,-0.25760
17.35708,-0.24104
17.11601,-0.23845
16.87494,-0.24573
16.63387,-0.25674
16.39280,-0.27033
16.15173,-0.28301
15.91066,-0.28750
15.66959,-0.28289
15.42852,-0.28023
15.18745,-0.29139
14.94637,-0.31715
14.70530,-0.33901
14.46423,-0.34056
14.22316,-0.33693
13.98209,-0.35063
13.74102,-0.37353
13.49995,-0.38113
13.25888,-0.36690
13.01781,-0.34875
12.77674,-0.34156
12.53567,-0.34531
12.29460,-0.35896
12.05353,-0.37940
11.81246,-0.39124
11.57139,-0.38049
11.33032,-0.35470
11.08925,-0.32919
10.84818,-0.31369
10.60710,-0.31444
10.36603,-0.32951
10.12496,-0.35060
9.88389,-0.37253
9.64282,-0.39586
9.40175,-0.41915
9.16068,-0.43697
8.91961,-0.44311
8.67854,-0.43585
8.43747,-0.43231
8.19640,-0.44076
7.95533,-0.44265
7.71426,-0.43525
7.47319,-0.42840
7.23212,-0.43178
6.99105,-0.44845
6.74998,-0.47203
6.50891,-0.48675
6.26783,-0.47791
6.02676,-0.44550
5.78569,-0.41290
5.54462,-0.40297
5.30355,-0.42398
5.06248,-0.43938
4.82141,-0.41629
4.58034,-0.39933
4.33927,-0.40554
4.09820,-0.41318
3.85713,-0.40841
3.61606,-0.38462
3.37499,-0.35780
3.13392,-0.35581
2.89285,-0.38238
2.65178,-0.42350
2.41071,-0.45920
2.16964,-0.45887
1.92856,-0.44464
1.68749,-0.42513
1.44642,-0.40036
1.20535,-0.37446
0.96428,-0.36060
0.72321,-0.37027
0.48214,-0.40415
0.24107,-0.40667
-0.00000,-0.08908
