399.69498,1.94602
399.45391,1.89949
399.21284,1.86929
398.97177,1.87633
398.73070,1.91889
398.48963,1.95897
398.24856,1.96450
398.00749,1.96261
397.76642,1.98811
397.52535,2.02794
397.28428,2.04838
397.04321,2.03416
396.80214,2.02671
396.56107,2.04437
396.32000,2.05812
396.07892,2.07341
395.83785,2.20479
395.59678,2.46913
395.35571,2.42201
395.11464,2.26142
394.87357,2.08131
394.63250,1.93125
394.39143,1.86981
394.15036,1.88728
393.90929,1.91866
393.66822,1.92142
393.42715,1.93193
393.18608,1.96023
392.94501,2.01013
392.70394,2.11732
392.46287,2.31779
392.22180,2.54209
391.98073,2.45124
391.73965,2.15409
391.49858,1.99840
391.25751,1.95458
391.01644,1.91792
390.77537,1.84824
390.53430,1.79064
390.29323,1.80153
390.05216,1.89953
389.81109,2.04874
389.57002,2.13851
389.32895,2.09405
389.08788,2.01997
388.84681,2.04172
388.60574,2.13454
388.36467,2.07576
388.12360,1.92249
387.88253,1.79933
387.64146,1.72737
387.40038,1.72680
387.15931,1.79720
386.91824,1.93800
386.67717,2.13108
386.43610,2.26086
386.19503,2.40549
385.95396,2.75740
385.71289,2.61959
385.47182,2.38184
385.23075,2.26633
384.98968,2.15979
384.74861,2.14037
384.50754,2.13035
384.26647,2.07942
384.02540,2.10059
383.78433,2.13449
383.54326,2.08274
383.30219,1.94869
383.06111,1.79788
382.82004,1.70521
382.57897,1.68309
382.33790,1.71040
382.09683,1.76183
381.85576,1.82710
381.61469,1.89672
381.37362,1.95497
381.13255,1.99949
380.89148,2.02152
380.65041,1.99677
380.40934,1.92372
380.16827,1.87479
379.92720,1.89270
379.68613,1.96381
379.44506,2.09313
379.20399,2.28694
378.96292,2.34638
378.72184,2.04546
378.48077,1.74650
378.23970,1.59388
377.99863,1.54885
377.75756,1.56799
377.51649,1.64439
377.27542,1.77306
377.03435,1.85721
376.79328,1.84863
376.55221,1.87873
376.31114,2.05073
376.07007,2.43570
375.82900,2.76060
375.58793,2.16647
375.34686,1.94807
375.10579,1.95892
374.86472,2.01268
374.62365,2.07602
374.38257,2.12240
374.14150,2.10079
373.90043,2.02014
373.65936,1.93097
373.41829,1.86571
373.17722,1.84737
372.93615,1.88792
372.69508,1.96634
372.45401,2.01438
372.21294,1.97245
371.97187,1.87333
371.73080,1.79366
371.48973,1.78427
371.24866,1.86634
371.00759,2.02568
370.76652,2.16802
370.52545,2.16909
370.28437,2.07620
370.04330,1.99704
369.80223,1.93907
369.56116,1.86560
369.32009,1.78187
369.07902,1.72718
368.83795,1.72690
368.59688,1.77276
368.35581,1.82924
368.11474,1.86553
367.87367,1.86805
367.63260,1.84072
367.39153,1.79977
367.15046,1.77041
366.90939,1.76600
366.66832,1.75815
366.42725,1.70671
366.18618,1.62887
365.94510,1.57473
365.70403,1.56099
365.46296,1.56929
365.22189,1.58142
364.98082,1.60285
364.73975,1.65238
364.49868,1.72559
364.25761,1.77038
364.01654,1.75017
363.77547,1.70313
363.53440,1.68206
363.29333,1.69775
363.05226,1.71621
362.81119,1.69484
362.57012,1.63202
362.32905,1.56510
362.08798,1.53304
361.84691,1.54875
361.60583,1.58727
361.36476,1.60447
361.12369,1.59652
360.88262,1.60009
360.64155,1.61774
360.40048,1.61469
360.15941,1.59534
359.91834,1.59900
359.67727,1.64870
359.43620,1.73071
359.19513,1.78646
358.95406,1.78139
358.71299,1.73495
358.47192,1.67034
358.23085,1.61388
357.98978,1.57958
357.74871,1.56218
357.50764,1.56277
357.26656,1.56293
357.02549,1.54807
356.78442,1.53777
356.54335,1.55178
356.30228,1.58686
356.06121,1.62890
355.82014,1.66933
355.57907,1.70118
355.33800,1.69321
355.09693,1.63345
354.85586,1.58438
354.61479,1.58132
354.37372,1.59757
354.13265,1.60568
353.89158,1.60564
353.65051,1.57993
353.40944,1.52719
353.16837,1.49776
352.92729,1.52179
352.68622,1.57457
352.44515,1.61512
352.20408,1.63783
351.96301,1.64125
351.72194,1.60566
351.48087,1.55491
351.23980,1.54168
350.99873,1.58152
350.75766,1.64767
350.51659,1.70097
350.27552,1.72974
350.03445,1.71434
349.79338,1.60866
349.55231,1.49338
349.31124,1.45776
349.07017,1.49856
348.82910,1.58305
348.58802,1.67761
348.34695,1.72638
348.10588,1.69232
347.86481,1.63811
347.62374,1.64019
347.38267,1.68881
347.14160,1.70166
346.90053,1.65008
346.65946,1.58865
346.41839,1.55566
346.17732,1.55126
345.93625,1.57403
345.69518,1.63159
345.45411,1.70627
345.21304,1.77122
344.97197,1.83209
344.73090,1.88684
344.48983,1.90945
344.24875,1.86359
344.00768,1.81568
343.76661,1.79440
343.52554,1.77366
343.28447,1.72756
343.04340,1.66399
342.80233,1.62831
342.56126,1.65327
342.32019,1.73303
342.07912,1.81099
341.83805,1.82253
341.59698,1.81468
341.35591,1.89729
341.11484,2.01747
340.87377,1.92787
340.63270,1.79585
340.39163,1.73206
340.15056,1.71427
339.90948,1.71938
339.66841,1.73841
339.42734,1.77008
339.18627,1.80608
338.94520,1.83553
338.70413,1.93456
338.46306,2.24259
338.22199,2.27871
337.98092,1.83388
337.73985,1.68876
337.49878,1.72783
337.25771,1.79097
337.01664,1.80210
336.77557,1.75739
336.53450,1.75840
336.29343,1.91356
336.05236,2.38320
335.81129,2.94259
335.57021,2.12975
335.32914,1.73200
335.08807,1.65762
334.84700,1.70230
334.60593,1.81677
334.36486,1.93847
334.12379,1.98207
333.88272,1.88886
333.64165,1.78588
333.40058,1.78127
333.15951,1.86079
332.91844,1.90833
332.67737,1.77300
332.43630,1.64755
332.19523,1.67148
331.95416,1.83711
331.71309,2.00898
331.47202,1.98405
331.23094,1.84403
330.98987,1.72649
330.74880,1.65841
330.50773,1.60704
330.26666,1.55883
330.02559,1.53609
329.78452,1.54581
329.54345,1.58702
329.30238,1.64327
329.06131,1.67346
328.82024,1.66782
328.57917,1.67837
328.33810,1.73831
328.09703,1.80441
327.85596,1.81179
327.61489,1.78732
327.37382,1.76229
327.13275,1.72732
326.89167,1.71823
326.65060,1.73137
326.40953,1.71556
326.16846,1.72648
325.92739,1.87173
325.68632,2.13297
325.44525,2.20998
325.20418,2.04248
324.96311,1.87054
324.72204,1.83605
324.48097,1.88028
324.23990,1.81476
323.99883,1.73023
323.75776,1.74426
323.51669,1.77889
323.27562,1.76042
323.03455,1.72947
322.79348,1.74565
322.55240,1.96344
322.31133,2.45071
322.07026,2.13393
321.82919,1.76073
321.58812,1.62376
321.34705,1.63168
321.10598,1.72144
320.86491,1.85324
320.62384,1.99347
320.38277,2.00424
320.14170,1.88644
319.90063,1.77302
319.65956,1.66639
319.41849,1.61418
319.17742,1.63228
318.93635,1.66957
318.69528,1.69035
318.45421,1.74200
318.21313,2.01494
317.97206,2.60057
317.73099,2.11537
317.48992,1.77827
317.24885,1.70366
317.00778,1.76410
316.76671,1.95080
316.52564,2.16375
316.28457,2.35854
316.04350,2.85317
315.80243,2.18801
315.56136,1.83540
315.32029,1.71657
315.07922,1.65773
314.83815,1.64001
314.59708,1.70710
314.35601,1.91065
314.11494,1.88768
313.87386,1.70415
313.63279,1.67331
313.39172,1.70411
313.15065,1.69067
312.90958,1.67418
312.66851,1.80892
312.42744,2.14418
312.18637,2.14429
311.94530,1.98463
311.70423,1.81425
311.46316,1.72256
311.22209,1.78085
310.98102,1.91295
310.73995,1.97224
310.49888,1.98910
310.25781,1.98966
310.01674,1.89307
309.77567,1.76254
309.53459,1.70496
309.29352,1.75614
309.05245,1.87187
308.81138,1.91303
308.57031,1.90640
308.32924,1.90001
308.08817,1.83823
307.84710,1.81033
307.60603,1.82985
307.36496,1.85325
307.12389,1.91004
306.88282,2.03193
306.64175,2.03538
306.40068,1.82144
306.15961,1.68186
305.91854,1.64228
305.67747,1.64629
305.43640,1.67822
305.19532,1.76339
304.95425,1.85286
304.71318,1.73830
304.47211,1.56759
304.23104,1.47297
303.98997,1.44945
303.74890,1.50502
303.50783,1.67770
303.26676,1.95208
303.02569,2.04632
302.78462,1.81704
302.54355,1.62001
302.30248,1.56071
302.06141,1.60413
301.82034,1.68141
301.57927,1.69451
301.33820,1.61636
301.09713,1.52234
300.85605,1.47966
300.61498,1.49143
300.37391,1.51668
300.13284,1.53447
299.89177,1.53765
299.65070,1.50694
299.40963,1.44219
299.16856,1.37371
298.92749,1.34895
298.68642,1.39842
298.44535,1.50556
298.20428,1.57890
297.96321,1.53343
297.72214,1.43462
297.48107,1.37364
297.24000,1.37974
296.99893,1.43461
296.75786,1.48564
296.51678,1.49049
296.27571,1.46170
296.03464,1.43162
295.79357,1.41853
295.55250,1.42534
295.31143,1.44131
295.07036,1.44680
294.82929,1.43218
294.58822,1.41164
294.34715,1.40816
294.10608,1.42494
293.86501,1.43799
293.62394,1.42590
293.38287,1.39450
293.14180,1.35963
292.90073,1.33536
292.65966,1.33639
292.41859,1.36525
292.17751,1.39626
291.93644,1.40024
291.69537,1.38506
291.45430,1.38207
291.21323,1.41128
290.97216,1.45215
290.73109,1.45404
290.49002,1.40725
290.24895,1.35596
290.00788,1.33614
289.76681,1.34867
289.52574,1.36158
289.28467,1.34536
289.04360,1.32110
288.80253,1.32275
288.56146,1.34823
288.32039,1.36795
288.07932,1.35602
287.83824,1.31298
287.59717,1.26378
287.35610,1.23937
287.11503,1.25342
286.87396,1.29116
286.63289,1.31564
286.39182,1.29707
286.15075,1.25580
285.90968,1.23363
285.66861,1.24433
285.42754,1.27345
285.18647,1.28972
284.94540,1.27745
284.70433,1.26199
284.46326,1.26908
284.22219,1.29320
283.98112,1.30762
283.74005,1.29629
283.49897,1.27445
283.25790,1.26378
283.01683,1.26567
282.77576,1.26957
282.53469,1.27255
282.29362,1.28282
282.05255,1.30707
281.81148,1.34242
281.57041,1.37426
281.32934,1.38120
281.08827,1.36014
280.84720,1.33173
280.60613,1.31248
280.36506,1.30212
280.12399,1.29361
279.88292,1.28843
279.64185,1.29776
279.40078,1.32422
279.15970,1.34476
278.91863,1.32861
278.67756,1.28337
278.43649,1.24904
278.19542,1.24746
277.95435,1.26201
277.71328,1.26267
277.47221,1.24956
277.23114,1.25009
276.99007,1.27492
276.74900,1.30239
276.50793,1.30895
276.26686,1.29879
276.02579,1.28695
275.78472,1.27513
275.54365,1.25820
275.30258,1.23864
275.06151,1.22516
274.82043,1.22404
274.57936,1.23529
274.33829,1.25439
274.09722,1.27399
273.85615,1.28520
273.61508,1.28563
273.37401,1.28451
273.13294,1.28960
272.89187,1.29378
272.65080,1.28570
272.40973,1.27037
272.16866,1.26281
271.92759,1.26601
271.68652,1.26720
271.44545,1.25863
271.20438,1.25035
270.96331,1.25399
270.72224,1.26930
270.48116,1.28932
270.24009,1.30701
269.99902,1.31412
269.75795,1.30454
269.51688,1.28361
269.27581,1.26516
269.03474,1.25932
268.79367,1.26952
268.55260,1.29509
268.31153,1.32972
268.07046,1.35980
267.82939,1.37263
267.58832,1.37247
267.34725,1.37236
267.10618,1.37561
266.86511,1.37352
266.62404,1.35773
266.38297,1.33666
266.14189,1.32591
265.90082,1.32552
265.65975,1.32212
265.41868,1.31486
265.17761,1.31515
264.93654,1.32434
264.69547,1.33568
264.45440,1.34890
264.21333,1.36795
263.97226,1.39048
263.73119,1.40618
263.49012,1.40543
263.24905,1.39474
263.00798,1.39829
262.76691,1.43287
262.52584,1.48670
262.28477,1.52759
262.04370,1.53704
261.80262,1.52824
261.56155,1.52173
261.32048,1.52470
261.07941,1.53264
260.83834,1.54298
260.59727,1.56789
260.35620,1.61576
260.11513,1.67181
259.87406,1.71018
259.63299,1.72374
259.39192,1.73469
259.15085,1.76293
258.90978,1.80717
258.66871,1.85664
258.42764,1.89259
258.18657,1.88308
257.94550,1.82878
257.70443,1.79439
257.46335,1.83115
257.22228,1.93522
256.98121,2.04417
256.74014,2.08799
256.49907,2.07620
256.25800,2.07014
256.01693,2.09205
255.77586,2.09184
255.53479,2.04120
255.29372,2.02283
255.05265,2.11747
254.81158,2.30345
254.57051,2.38019
254.32944,2.24686
254.08837,2.12505
253.84730,2.10974
253.60623,2.15731
253.36516,2.23919
253.12408,2.37684
252.88301,2.77505
252.64194,3.58517
252.40087,3.00081
252.15980,2.72623
251.91873,2.63755
251.67766,2.48294
251.43659,2.37106
251.19552,2.25410
250.95445,2.19389
250.71338,2.31179
250.47231,2.28610
250.23124,2.03256
249.99017,1.94717
249.74910,1.99614
249.50803,2.07910
249.26696,2.17337
249.02589,2.30245
248.78481,2.39291
248.54374,2.27815
248.30267,2.12047
248.06160,2.03454
247.82053,1.95785
247.57946,1.87039
247.33839,1.81881
247.09732,1.81612
246.85625,1.83471
246.61518,1.83861
246.37411,1.84180
246.13304,1.96264
245.89197,2.29062
245.65090,2.25988
245.40983,2.02419
245.16876,2.05885
244.92769,2.31660
244.68661,2.52918
244.44554,2.32923
244.20447,2.09657
243.96340,2.08354
243.72233,2.33520
243.48126,2.60799
243.24019,2.34700
242.99912,2.13748
242.75805,1.98619
242.51698,1.83722
242.27591,1.70998
242.03484,1.61406
241.79377,1.54411
241.55270,1.49011
241.31163,1.45095
241.07056,1.43127
240.82949,1.42280
240.58842,1.40562
240.34734,1.37594
240.10627,1.35214
239.86520,1.34233
239.62413,1.32461
239.38306,1.27979
239.14199,1.22319
238.90092,1.18122
238.65985,1.16344
238.41878,1.15575
238.17771,1.13727
237.93664,1.10958
237.69557,1.09346
237.45450,1.10029
237.21343,1.11881
236.97236,1.12568
236.73129,1.11206
236.49022,1.09276
236.24915,1.08325
236.00807,1.08223
235.76700,1.07646
235.52593,1.05924
235.28486,1.04167
235.04379,1.03798
234.80272,1.04454
234.56165,1.03786
234.32058,1.00273
234.07951,0.95796
233.83844,0.93489
233.59737,0.94484
233.35630,0.97121
233.11523,0.98462
232.87416,0.97702
232.63309,0.97143
232.39202,0.98492
232.15095,1.00143
231.90988,0.99671
231.66880,0.98127
231.42773,0.97886
231.18666,0.98720
230.94559,0.98381
230.70452,0.96096
230.46345,0.93595
230.22238,0.92495
229.98131,0.92621
229.74024,0.92768
229.49917,0.92817
229.25810,0.93995
229.01703,0.96416
228.77596,0.97791
228.53489,0.96497
228.29382,0.94145
228.05275,0.92317
227.81168,0.90549
227.57061,0.88687
227.32953,0.87980
227.08846,0.89242
226.84739,0.91699
226.60632,0.93858
226.36525,0.95367
226.12418,0.96712
225.88311,0.97309
225.64204,0.96328
225.40097,0.94181
225.15990,0.91473
224.91883,0.88645
224.67776,0.86510
224.43669,0.85937
224.19562,0.87112
223.95455,0.89308
223.71348,0.91528
223.47241,0.93400
223.23134,0.94822
222.99026,0.95227
222.74919,0.94567
222.50812,0.93792
222.26705,0.93441
222.02598,0.92770
221.78491,0.91413
221.54384,0.91158
221.30277,0.93577
221.06170,0.97108
220.82063,0.98533
220.57956,0.98293
220.33849,0.98816
220.09742,0.99331
219.85635,0.98096
219.61528,0.96626
219.37421,0.97340
219.13314,1.00294
218.89207,1.03698
218.65099,1.05722
218.40992,1.05398
218.16885,1.03623
217.92778,1.02766
217.68671,1.03510
217.44564,1.04604
217.20457,1.05797
216.96350,1.08417
216.72243,1.12526
216.48136,1.15956
216.24029,1.17480
215.99922,1.17916
215.75815,1.17503
215.51708,1.16414
215.27601,1.15844
215.03494,1.16888
214.79387,1.19431
214.55280,1.22184
214.31172,1.23277
214.07065,1.22066
213.82958,1.20082
213.58851,1.19150
213.34744,1.20349
213.10637,1.23846
212.86530,1.28981
212.62423,1.34821
212.38316,1.39318
212.14209,1.38067
211.90102,1.30489
211.65995,1.22676
211.41888,1.18671
211.17781,1.18478
210.93674,1.20887
210.69567,1.25494
210.45460,1.30954
210.21353,1.32668
209.97245,1.28279
209.73138,1.21679
209.49031,1.16670
209.24924,1.14712
209.00817,1.16117
208.76710,1.20582
208.52603,1.27388
208.28496,1.34729
208.04389,1.38734
207.80282,1.36480
207.56175,1.30036
207.32068,1.23577
207.07961,1.19828
206.83854,1.19984
206.59747,1.23796
206.35640,1.28673
206.11533,1.29715
205.87426,1.24773
205.63318,1.18583
205.39211,1.15510
205.15104,1.15675
204.90997,1.16864
204.66890,1.15905
204.42783,1.11654
204.18676,1.06634
203.94569,1.03051
203.70462,1.01484
203.46355,1.02231
203.22248,1.05218
202.98141,1.08600
202.74034,1.08697
202.49927,1.04482
202.25820,0.99303
202.01713,0.96180
201.77606,0.96139
201.53499,0.98635
201.29391,1.01183
201.05284,1.00257
200.81177,0.95719
200.57070,0.90798
200.32963,0.87667
200.08856,0.87011
199.84749,0.88467
199.60642,0.90149
199.36535,0.89665
199.12428,0.86978
198.88321,0.84241
198.64214,0.83129
198.40107,0.84148
198.16000,0.86894
197.91893,0.89721
197.67786,0.89964
197.43679,0.86715
197.19572,0.82497
196.95464,0.80467
196.71357,0.81407
196.47250,0.82819
196.23143,0.81538
195.99036,0.78357
195.74929,0.76309
195.50822,0.76479
195.26715,0.77702
195.02608,0.78028
194.78501,0.76642
194.54394,0.74399
194.30287,0.72523
194.06180,0.71800
193.82073,0.72448
193.57966,0.73647
193.33859,0.73719
193.09752,0.72159
192.85645,0.70672
192.61537,0.71068
192.37430,0.73023
192.13323,0.73998
191.89216,0.72292
191.65109,0.69606
191.41002,0.68552
191.16895,0.69811
190.92788,0.71378
190.68681,0.70366
190.44574,0.67199
190.20467,0.64784
189.96360,0.64653
189.72253,0.66139
189.48146,0.67275
189.24039,0.66889
188.99932,0.66122
188.75825,0.66740
188.51718,0.69072
188.27610,0.71513
188.03503,0.71589
187.79396,0.69345
187.55289,0.67810
187.31182,0.68835
187.07075,0.70870
186.82968,0.70900
186.58861,0.68780
186.34754,0.66925
186.10647,0.66361
185.86540,0.65837
185.62433,0.64355
185.38326,0.63008
185.14219,0.63240
184.90112,0.64808
184.66005,0.65604
184.41898,0.64608
184.17791,0.64069
183.93683,0.65876
183.69576,0.68615
183.45469,0.69457
183.21362,0.68584
182.97255,0.68268
182.73148,0.68550
182.49041,0.67760
182.24934,0.66194
182.00827,0.65872
181.76720,0.67262
181.52613,0.68780
181.28506,0.69168
181.04399,0.68928
180.80292,0.68815
180.56185,0.68612
180.32078,0.68125
180.07971,0.67880
179.83864,0.68236
179.59756,0.68812
179.35649,0.69209
179.11542,0.69693
178.87435,0.70437
178.63328,0.70746
178.39221,0.70286
178.15114,0.69945
177.91007,0.70268
177.66900,0.70768
177.42793,0.71413
177.18686,0.73003
176.94579,0.75396
176.70472,0.77510
176.46365,0.79890
176.22258,0.84327
175.98151,0.89562
175.74044,0.91448
175.49937,0.90727
175.25829,0.91771
175.01722,0.94122
174.77615,0.93881
174.53508,0.91405
174.29401,0.89899
174.05294,0.89690
173.81187,0.89649
173.57080,0.89575
173.32973,0.89826
173.08866,0.91054
172.84759,0.94096
172.60652,0.98532
172.36545,1.02030
172.12438,1.03358
171.88331,1.03904
171.64224,1.03665
171.40117,1.01148
171.16010,0.97034
170.91902,0.93687
170.67795,0.92611
170.43688,0.93610
170.19581,0.95474
169.95474,0.97607
169.71367,1.00241
169.47260,1.02350
169.23153,1.01918
168.99046,0.99188
168.74939,0.95541
168.50832,0.91449
168.26725,0.87750
168.02618,0.85623
167.78511,0.85485
167.54404,0.87159
167.30297,0.90428
167.06190,0.94822
166.82083,0.99061
166.57975,1.01348
166.33868,1.00705
166.09761,0.97797
165.85654,0.94409
165.61547,0.92027
165.37440,0.91362
165.13333,0.92748
164.89226,0.95986
164.65119,0.99781
164.41012,1.02084
164.16905,1.01673
163.92798,0.99529
163.68691,0.97522
163.44584,0.96051
163.20477,0.94692
162.96370,0.94107
162.72263,0.95518
162.48156,0.98944
162.24048,1.02959
161.99941,1.05593
161.75834,1.05278
161.51727,1.02345
161.27620,0.99071
161.03513,0.97410
160.79406,0.97993
160.55299,1.00669
160.31192,1.04394
160.07085,1.06804
159.82978,1.05928
159.58871,1.02742
159.34764,0.99918
159.10657,0.99612
158.86550,1.02523
158.62443,1.07049
158.38336,1.10264
158.14229,1.10437
157.90121,1.07652
157.66014,1.03201
157.41907,0.98967
157.17800,0.96268
156.93693,0.95703
156.69586,0.97608
156.45479,1.01549
156.21372,1.04970
155.97265,1.04213
155.73158,0.99377
155.49051,0.93787
155.24944,0.89540
155.00837,0.87367
154.76730,0.87643
154.52623,0.89821
154.28516,0.91708
154.04409,0.90899
153.80302,0.87469
153.56194,0.83552
153.32087,0.81186
153.07980,0.81327
152.83873,0.83392
152.59766,0.85273
152.35659,0.84574
152.11552,0.81072
151.87445,0.77171
151.63338,0.75166
151.39231,0.75411
151.15124,0.76647
150.91017,0.77144
150.66910,0.75706
150.42803,0.72435
150.18696,0.68841
149.94589,0.66748
149.70482,0.66897
149.46375,0.68309
149.22267,0.68736
148.98160,0.66821
148.74053,0.63978
148.49946,0.62401
148.25839,0.62766
148.01732,0.64367
147.77625,0.65896
147.53518,0.66247
147.29411,0.65409
147.05304,0.64332
146.81197,0.63971
146.57090,0.64664
146.32983,0.65780
146.08876,0.65979
145.84769,0.64788
145.60662,0.63391
145.36555,0.63145
145.12448,0.64139
144.88340,0.65070
144.64233,0.64692
144.40126,0.63624
144.16019,0.63516
143.91912,0.64939
143.67805,0.66772
143.43698,0.67278
143.19591,0.65987
142.95484,0.64202
142.71377,0.63424
142.47270,0.63827
142.23163,0.64118
141.99056,0.62985
141.74949,0.60953
141.50842,0.59758
141.26735,0.60059
141.02628,0.60678
140.78521,0.59962
140.54413,0.57973
140.30306,0.56505
140.06199,0.56781
139.82092,0.58096
139.57985,0.58800
139.33878,0.58489
139.09771,0.58246
138.85664,0.58687
138.61557,0.59051
138.37450,0.58787
138.13343,0.58816
137.89236,0.60028
137.65129,0.61834
137.41022,0.63130
137.16915,0.64119
136.92808,0.65670
136.68701,0.67694
136.44594,0.69496
136.20486,0.71118
135.96379,0.73236
135.72272,0.75859
135.48165,0.78200
135.24058,0.79993
134.99951,0.81873
134.75844,0.84143
134.51737,0.86264
134.27630,0.88188
134.03523,0.90517
133.79416,0.92944
133.55309,0.94691
133.31202,0.96405
133.07095,0.99299
132.82988,1.02512
132.58881,1.04342
132.34774,1.05486
132.10667,1.06656
131.86559,1.06735
131.62452,1.06339
131.38345,1.08181
131.14238,1.11848
130.90131,1.13408
130.66024,1.12765
130.41917,1.13025
130.17810,1.13718
129.93703,1.12101
129.69596,1.08503
129.45489,1.04795
129.21382,1.00923
128.97275,0.96552
128.73168,0.91960
128.49061,0.87425
128.24954,0.83464
128.00847,0.80425
127.76740,0.77704
127.52632,0.74452
127.28525,0.70986
127.04418,0.68437
126.80311,0.67243
126.56204,0.66652
126.32097,0.65759
126.07990,0.64721
125.83883,0.64297
125.59776,0.64368
125.35669,0.63902
125.11562,0.62486
124.87455,0.60773
124.63348,0.59403
124.39241,0.58496
124.15134,0.57899
123.91027,0.57299
123.66920,0.56422
123.42812,0.55359
123.18705,0.54449
122.94598,0.53889
122.70491,0.53670
122.46384,0.53713
122.22277,0.54008
121.98170,0.54610
121.74063,0.55438
121.49956,0.56156
121.25849,0.56503
121.01742,0.56572
120.77635,0.56420
120.53528,0.55782
120.29421,0.54683
120.05314,0.53890
119.81207,0.54174
119.57100,0.55526
119.32993,0.57563
119.08885,0.60227
118.84778,0.63598
118.60671,0.67555
118.36564,0.72111
118.12457,0.77658
117.88350,0.84358
117.64243,0.91218
117.40136,0.96109
117.16029,0.97046
116.91922,0.93862
116.67815,0.88402
116.43708,0.82982
116.19601,0.78996
115.95494,0.76345
115.71387,0.74118
115.47280,0.72032
115.23173,0.70743
114.99066,0.70801
114.74958,0.72116
114.50851,0.74784
114.26744,0.79568
114.02637,0.85612
113.78530,0.87732
113.54423,0.82999
113.30316,0.75589
113.06209,0.68721
112.82102,0.63716
112.57995,0.61428
112.33888,0.61762
112.09781,0.64215
111.85674,0.68946
111.61567,0.75980
111.37460,0.83394
111.13353,0.87185
110.89246,0.85059
110.65139,0.79356
110.41031,0.73080
110.16924,0.68006
109.92817,0.65938
109.68710,0.68089
109.44603,0.74213
109.20496,0.82606
108.96389,0.89205
108.72282,0.88286
108.48175,0.80186
108.24068,0.71101
107.99961,0.64829
107.75854,0.62058
107.51747,0.62323
107.27640,0.64666
107.03533,0.66915
106.79426,0.65722
106.55319,0.60125
106.31212,0.53081
106.07104,0.47762
105.82997,0.45423
105.58890,0.45729
105.34783,0.47699
105.10676,0.50458
104.86569,0.52620
104.62462,0.51335
104.38355,0.45725
104.14248,0.39629
103.90141,0.36620
103.66034,0.37385
103.41927,0.40888
103.17820,0.44829
102.93713,0.45904
102.69606,0.42826
102.45499,0.37899
102.21392,0.33948
101.97285,0.32589
101.73177,0.34431
101.49070,0.38737
101.24963,0.42347
101.00856,0.41437
100.76749,0.36977
100.52642,0.33356
100.28535,0.32859
100.04428,0.34977
99.80321,0.37978
99.56214,0.39736
99.32107,0.38635
99.08000,0.35316
98.83893,0.32275
98.59786,0.31801
98.35679,0.34603
98.11572,0.38182
97.87465,0.37717
97.63358,0.33118
97.39250,0.29148
97.15143,0.28785
96.91036,0.32014
96.66929,0.36064
96.42822,0.36521
96.18715,0.33087
95.94608,0.30427
95.70501,0.31686
95.46394,0.36130
95.22287,0.39617
94.98180,0.38474
94.74073,0.35309
94.49966,0.35100
94.25859,0.39869
94.01752,0.46153
93.77645,0.45775
93.53538,0.40120
93.29431,0.37675
93.05323,0.41167
92.81216,0.46065
92.57109,0.44760
92.33002,0.40398
92.08895,0.39840
91.84788,0.43304
91.60681,0.45556
91.36574,0.43193
91.12467,0.41156
90.88360,0.43318
90.64253,0.46655
90.40146,0.46887
90.16039,0.47513
89.91932,0.52814
89.67825,0.59284
89.43718,0.61267
89.19611,0.63181
88.95504,0.68576
88.71396,0.72147
88.47289,0.72722
88.23182,0.77417
87.99075,0.84239
87.74968,0.84370
87.50861,0.80702
87.26754,0.78552
87.02647,0.75815
86.78540,0.69418
86.54433,0.63593
86.30326,0.61292
86.06219,0.58729
85.82112,0.53243
85.58005,0.47713
85.33898,0.44208
85.09791,0.41579
84.85684,0.38524
84.61577,0.35325
84.37469,0.32828
84.13362,0.31476
83.89255,0.30896
83.65148,0.30536
83.41041,0.30491
83.16934,0.30624
82.92827,0.30196
82.68720,0.29280
82.44613,0.28847
82.20506,0.29301
81.96399,0.30201
81.72292,0.30681
81.48185,0.29998
81.24078,0.28836
80.99971,0.28745
80.75864,0.29716
80.51757,0.30306
80.27650,0.30271
80.03542,0.30694
79.79435,0.31728
79.55328,0.32124
79.31221,0.30879
79.07114,0.28489
78.83007,0.26202
78.58900,0.24676
78.34793,0.23861
78.10686,0.23649
77.86579,0.24010
77.62472,0.24669
77.38365,0.25156
77.14258,0.25217
76.90151,0.25028
76.66044,0.24910
76.41937,0.24822
76.17830,0.24400
75.93723,0.23550
75.69615,0.22508
75.45508,0.21391
75.21401,0.20260
74.97294,0.19429
74.73187,0.19208
74.49080,0.19530
74.24973,0.20206
74.00866,0.21409
73.76759,0.23430
73.52652,0.25872
73.28545,0.27504
73.04438,0.27444
72.80331,0.26313
72.56224,0.25388
72.32117,0.25162
72.08010,0.25316
71.83903,0.25296
71.59796,0.24621
71.35688,0.23230
71.11581,0.21729
70.87474,0.21001
70.63367,0.21708
70.39260,0.24333
70.15153,0.29112
69.91046,0.35631
69.66939,0.43073
69.42832,0.50542
69.18725,0.55176
68.94618,0.52373
68.70511,0.42884
68.46404,0.32443
68.22297,0.24888
67.98190,0.20960
67.74083,0.19879
67.49976,0.20212
67.25869,0.20375
67.01761,0.19576
66.77654,0.18154
66.53547,0.16854
66.29440,0.16311
66.05333,0.16737
65.81226,0.17834
65.57119,0.19312
65.33012,0.21227
65.08905,0.23578
64.84798,0.25982
64.60691,0.27947
64.36584,0.29214
64.12477,0.29675
63.88370,0.29332
63.64263,0.28542
63.40156,0.27846
63.16049,0.27459
62.91942,0.27495
62.67834,0.28353
62.43727,0.30231
62.19620,0.32231
61.95513,0.32612
61.71406,0.30656
61.47299,0.27318
61.23192,0.23943
60.99085,0.21360
60.74978,0.19417
60.50871,0.17065
60.26764,0.13688
60.02657,0.10024
59.78550,0.07088
59.54443,0.05053
59.30336,0.03736
59.06229,0.03514
58.82122,0.05066
58.58015,0.08653
58.33907,0.14431
58.09800,0.23227
57.85693,0.37644
57.61586,0.73008
57.37479,1.19802
57.13372,0.54322
56.89265,0.21791
56.65158,0.09997
56.41051,0.03611
56.16944,0.01764
55.92837,0.03468
55.68730,0.08618
55.44623,0.18342
55.20516,0.38492
54.96409,0.68370
54.72302,0.59132
54.48195,0.31361
54.24088,0.14422
53.99980,0.05385
53.75873,0.01713
53.51766,0.03598
53.27659,0.11748
53.03552,0.33181
52.79445,0.70870
52.55338,0.58937
52.31231,0.25695
52.07124,0.08348
51.83017,0.01561
51.58910,0.02505
51.34803,0.13320
51.10696,0.40310
50.86589,0.64106
50.62482,0.27944
50.38375,0.03319
50.14268,-0.05270
49.90161,-0.04541
49.66053,0.05831
49.41946,0.37335
49.17839,0.79163
48.93732,0.27806
48.69625,0.03595
48.45518,0.01630
48.21411,0.12745
47.97304,0.45566
47.73197,0.63725
47.49090,0.15759
47.24983,-0.02813
47.00876,0.03702
46.76769,0.28821
46.52662,0.36118
46.28555,0.06868
46.04448,-0.03939
45.80341,0.05153
45.56234,0.22947
45.32126,0.18010
45.08019,0.04809
44.83912,0.06293
44.59805,0.18487
44.35698,0.18997
44.11591,0.10758
43.87484,0.11985
43.63377,0.15795
43.39270,0.12243
43.15163,0.11725
42.91056,0.17931
42.66949,0.21948
42.42842,0.20884
42.18735,0.21678
41.94628,0.20900
41.70521,0.14599
41.46414,0.10533
41.22307,0.11899
40.98199,0.14978
40.74092,0.17157
40.49985,0.18917
40.25878,0.21044
40.01771,0.23797
39.77664,0.26163
39.53557,0.27938
39.29450,0.29849
39.05343,0.29615
38.81236,0.26391
38.57129,0.24765
38.33022,0.27741
38.08915,0.33109
37.84808,0.36752
37.60701,0.36251
37.36594,0.33033
37.12487,0.31030
36.88380,0.30331
36.64272,0.27068
36.40165,0.21099
36.16058,0.17558
35.91951,0.19282
35.67844,0.23876
35.43737,0.27301
35.19630,0.29341
34.95523,0.33235
34.71416,0.41533
34.47309,0.47390
34.23202,0.43177
33.99095,0.40110
33.74988,0.43039
33.50881,0.49720
33.26774,0.52944
33.02667,0.46322
32.78560,0.36625
32.54453,0.31478
32.30345,0.29600
32.06238,0.26162
31.82131,0.22664
31.58024,0.21528
31.33917,0.20431
31.09810,0.17287
30.85703,0.13486
30.61596,0.11863
30.37489,0.14177
30.13382,0.19587
29.89275,0.24872
29.65168,0.27757
29.41061,0.27500
29.16954,0.25214
28.92847,0.24951
28.68740,0.27486
28.44633,0.29915
28.20526,0.31894
27.96418,0.36990
27.72311,0.45030
27.48204,0.48147
27.24097,0.42945
26.99990,0.35376
26.75883,0.29248
26.51776,0.25007
26.27669,0.22918
26.03562,0.23743
25.79455,0.25514
25.55348,0.24028
25.31241,0.18293
25.07134,0.11182
24.83027,0.05649
24.58920,0.03934
24.34813,0.08486
24.10706,0.18842
23.86599,0.29641
23.62491,0.36957
23.38384,0.40552
23.14277,0.40113
22.90170,0.34276
22.66063,0.25776
22.41956,0.24024
22.17849,0.32348
21.93742,0.41388
21.69635,0.39230
21.45528,0.29654
21.21421,0.22892
20.97314,0.19077
20.73207,0.13882
20.49100,0.06246
20.24993,0.03228
20.00886,0.10604
19.76779,0.22459
19.52672,0.29488
19.28564,0.30499
19.04457,0.24598
18.80350,0.08246
18.56243,-0.05454
18.32136,-0.11827
18.08029,-0.14423
17.83922,-0.13660
17.59815,-0.11951
17.35708,-0.15179
17.11601,-0.23595
16.87494,-0.27368
16.63387,-0.17916
16.39280,-0.06501
16.15173,-0.02546
15.91066,-0.01243
15.66959,0.04436
15.42852,0.14760
15.18745,0.22416
14.94637,0.22257
14.70530,0.19071
14.46423,0.14488
14.22316,0.05278
13.98209,-0.08136
13.74102,-0.18977
13.49995,-0.20599
13.25888,-0.18505
13.01781,-0.27537
12.77674,-0.46183
12.53567,-0.47748
12.29460,-0.30674
12.05353,-0.17707
11.81246,-0.11598
11.57139,-0.08898
11.33032,-0.06762
11.08925,0.00424
10.84818,0.18094
10.60710,0.53296
10.36603,1.00791
10.12496,0.68448
9.88389,0.17734
9.64282,-0.12777
9.40175,-0.15217
9.16068,-0.22066
8.91961,-0.66700
8.67854,-0.29704
8.43747,0.06827
8.19640,0.13369
7.95533,-0.09703
7.71426,-0.52783
7.47319,-0.81665
7.23212,-1.05008
6.99105,-0.93943
6.74998,-0.60402
6.50891,-0.50017
6.26783,-0.37360
6.02676,-0.16850
5.78569,-0.05270
5.54462,-0.08607
5.30355,-0.14325
5.06248,-0.18673
4.82141,-0.30890
4.58034,-0.47376
4.33927,-0.63391
4.09820,-0.80233
3.85713,-0.57481
3.61606,-0.44132
3.37499,-0.38473
3.13392,-0.38431
2.89285,-0.43251
2.65178,-0.43376
2.41071,-0.37685
2.16964,-0.30500
1.92856,-0.17153
1.68749,0.00399
1.44642,0.12762
1.20535,0.12652
0.96428,-0.10112
0.72321,-0.52601
0.48214,-0.31708
0.24107,0.16537
-0.00000,-0.00543
