399.69498,1.76780
399.45391,1.75245
399.21284,1.72880
398.97177,1.71153
398.73070,1.70231
398.48963,1.68942
398.24856,1.67637
398.00749,1.67825
397.76642,1.69050
397.52535,1.70126
397.28428,1.73350
397.04321,1.81379
396.80214,1.89870
396.56107,1.91132
396.32000,1.85317
396.07892,1.77160
395.83785,1.71220
395.59678,1.68267
395.35571,1.66252
395.11464,1.64163
394.87357,1.63364
394.63250,1.65871
394.39143,1.70868
394.15036,1.75369
393.90929,1.80128
393.66822,1.82506
393.42715,1.76907
393.18608,1.68169
392.94501,1.62650
392.70394,1.62062
392.46287,1.64905
392.22180,1.70063
391.98073,1.74493
391.73965,1.73022
391.49858,1.69039
391.25751,1.67815
391.01644,1.71092
390.77537,1.76233
390.53430,1.79984
390.29323,1.82161
390.05216,1.83950
389.81109,1.83096
389.57002,1.74998
389.32895,1.65789
389.08788,1.61834
388.84681,1.61828
388.60574,1.62150
388.36467,1.60815
388.12360,1.58466
387.88253,1.57512
387.64146,1.59581
387.40038,1.63250
387.15931,1.66094
386.91824,1.67957
386.67717,1.67907
386.43610,1.65162
386.19503,1.60290
385.95396,1.55724
385.71289,1.54795
385.47182,1.59078
385.23075,1.65703
384.98968,1.66297
384.74861,1.56290
384.50754,1.49589
384.26647,1.49563
384.02540,1.46526
383.78433,1.43966
383.54326,1.44578
383.30219,1.48783
383.06111,1.53066
382.82004,1.52918
382.57897,1.50626
382.33790,1.49454
382.09683,1.49481
381.85576,1.49957
381.61469,1.51216
381.37362,1.49592
381.13255,1.46589
380.89148,1.42275
380.65041,1.37094
380.40934,1.33404
380.16827,1.32984
379.92720,1.36315
379.68613,1.41818
379.44506,1.45474
379.20399,1.45016
378.96292,1.44392
378.72184,1.47880
378.48077,1.52699
378.23970,1.52124
377.99863,1.46595
377.75756,1.42523
377.51649,1.42692
377.27542,1.45004
377.03435,1.46257
376.79328,1.46203
376.55221,1.47585
376.31114,1.52663
376.07007,1.58153
375.82900,1.59606
375.58793,1.58783
375.34686,1.57914
375.10579,1.57051
374.86472,1.57401
374.62365,1.60851
374.38257,1.64703
374.14150,1.64703
373.90043,1.61569
373.65936,1.57958
373.41829,1.55483
373.17722,1.53957
372.93615,1.54059
372.69508,1.56941
372.45401,1.61851
372.21294,1.65048
371.97187,1.63898
371.73080,1.62465
371.48973,1.62225
371.24866,1.60710
371.00759,1.55811
370.76652,1.49950
370.52545,1.47249
370.28437,1.49299
370.04330,1.54876
369.80223,1.60331
369.56116,1.62250
369.32009,1.61300
369.07902,1.60145
368.83795,1.59823
368.59688,1.60308
368.35581,1.61218
368.11474,1.61384
367.87367,1.59369
367.63260,1.54380
367.39153,1.50030
367.15046,1.49450
366.90939,1.51944
366.66832,1.54290
366.42725,1.54509
366.18618,1.52627
365.94510,1.50381
365.70403,1.50048
365.46296,1.51655
365.22189,1.53294
364.98082,1.53077
364.73975,1.50907
364.49868,1.48828
364.25761,1.48946
364.01654,1.51397
363.77547,1.54038
363.53440,1.53570
363.29333,1.50456
363.05226,1.48070
362.81119,1.46967
362.57012,1.45482
362.32905,1.42835
362.08798,1.40115
361.84691,1.38852
361.60583,1.38739
361.36476,1.38626
361.12369,1.38643
360.88262,1.39848
360.64155,1.42500
360.40048,1.45567
360.15941,1.47569
359.91834,1.46955
359.67727,1.43949
359.43620,1.41345
359.19513,1.40991
358.95406,1.42064
358.71299,1.43108
358.47192,1.44306
358.23085,1.46436
357.98978,1.48651
357.74871,1.49967
357.50764,1.51135
357.26656,1.52248
357.02549,1.52081
356.78442,1.50482
356.54335,1.48196
356.30228,1.45041
356.06121,1.41023
355.82014,1.38015
355.57907,1.37781
355.33800,1.39602
355.09693,1.41097
354.85586,1.41223
354.61479,1.41075
354.37372,1.41604
354.13265,1.42228
353.89158,1.42129
353.65051,1.41410
353.40944,1.40392
353.16837,1.39540
352.92729,1.39613
352.68622,1.40701
352.44515,1.41894
352.20408,1.42651
351.96301,1.43385
351.72194,1.44522
351.48087,1.45862
351.23980,1.46739
350.99873,1.46395
350.75766,1.44721
350.51659,1.42237
350.27552,1.39569
350.03445,1.37602
349.79338,1.37675
349.55231,1.40426
349.31124,1.43920
349.07017,1.45024
348.82910,1.43392
348.58802,1.40825
348.34695,1.39023
348.10588,1.38777
347.86481,1.39917
347.62374,1.41586
347.38267,1.42883
347.14160,1.44135
346.90053,1.45843
346.65946,1.47091
346.41839,1.46439
346.17732,1.43962
345.93625,1.42298
345.69518,1.43080
345.45411,1.45596
345.21304,1.47549
344.97197,1.47161
344.73090,1.45230
344.48983,1.44095
344.24875,1.44599
344.00768,1.45336
343.76661,1.45174
343.52554,1.45108
343.28447,1.46168
343.04340,1.48121
342.80233,1.50158
342.56126,1.51025
342.32019,1.50572
342.07912,1.51155
341.83805,1.53914
341.59698,1.56496
341.35591,1.55986
341.11484,1.52073
340.87377,1.48542
340.63270,1.49381
340.39163,1.54763
340.15056,1.60376
339.90948,1.61091
339.66841,1.58832
339.42734,1.57990
339.18627,1.58043
338.94520,1.56169
338.70413,1.53677
338.46306,1.54082
338.22199,1.56913
337.98092,1.58387
337.73985,1.58825
337.49878,1.60287
337.25771,1.62607
337.01664,1.65566
336.77557,1.67991
336.53450,1.69695
336.29343,1.71179
336.05236,1.70492
335.81129,1.62743
335.57021,1.57078
335.32914,1.54609
335.08807,1.54390
334.84700,1.55537
334.60593,1.57516
334.36486,1.59736
334.12379,1.59133
333.88272,1.54521
333.64165,1.50672
333.40058,1.51108
333.15951,1.53587
332.91844,1.54182
332.67737,1.53443
332.43630,1.54126
332.19523,1.58007
331.95416,1.63731
331.71309,1.62889
331.47202,1.56363
331.23094,1.51523
330.98987,1.48102
330.74880,1.44306
330.50773,1.41004
330.26666,1.39721
330.02559,1.40354
329.78452,1.42144
329.54345,1.44939
329.30238,1.48642
329.06131,1.50996
328.82024,1.48766
328.57917,1.43585
328.33810,1.39713
328.09703,1.39043
327.85596,1.41747
327.61489,1.47337
327.37382,1.53496
327.13275,1.57679
326.89167,1.59901
326.65060,1.59035
326.40953,1.53766
326.16846,1.48605
325.92739,1.46816
325.68632,1.49447
325.44525,1.55015
325.20418,1.59592
324.96311,1.57884
324.72204,1.57222
324.48097,1.60767
324.23990,1.57120
323.99883,1.51558
323.75776,1.48448
323.51669,1.47561
323.27562,1.48185
323.03455,1.50810
322.79348,1.52547
322.55240,1.52813
322.31133,1.53231
322.07026,1.49958
321.82919,1.45998
321.58812,1.46696
321.34705,1.53914
321.10598,1.62876
320.86491,1.63620
320.62384,1.62506
320.38277,1.55131
320.14170,1.45184
319.90063,1.41158
319.65956,1.42144
319.41849,1.44843
319.17742,1.46288
318.93635,1.44798
318.69528,1.44352
318.45421,1.47801
318.21313,1.50367
317.97206,1.47900
317.73099,1.44048
317.48992,1.42804
317.24885,1.45505
317.00778,1.52029
316.76671,1.52789
316.52564,1.45605
316.28457,1.43267
316.04350,1.46599
315.80243,1.51494
315.56136,1.57515
315.32029,1.64298
315.07922,1.56141
314.83815,1.48653
314.59708,1.47620
314.35601,1.51579
314.11494,1.57111
313.87386,1.58983
313.63279,1.58677
313.39172,1.56484
313.15065,1.53023
312.90958,1.53405
312.66851,1.55983
312.42744,1.55212
312.18637,1.57752
311.94530,1.60793
311.70423,1.56935
311.46316,1.53029
311.22209,1.53229
310.98102,1.57855
310.73995,1.61559
310.49888,1.57050
310.25781,1.49459
310.01674,1.44810
309.77567,1.44040
309.53459,1.46630
309.29352,1.50990
309.05245,1.54250
308.81138,1.54982
308.57031,1.54806
308.32924,1.55786
308.08817,1.57328
307.84710,1.56912
307.60603,1.54642
307.36496,1.54075
307.12389,1.55513
306.88282,1.56377
306.64175,1.55831
306.40068,1.55688
306.15961,1.57525
305.91854,1.60561
305.67747,1.62114
305.43640,1.61731
305.19532,1.60247
304.95425,1.58962
304.71318,1.58582
304.47211,1.57215
304.23104,1.53840
303.98997,1.50519
303.74890,1.49406
303.50783,1.50406
303.26676,1.51496
303.02569,1.51442
302.78462,1.51340
302.54355,1.52344
302.30248,1.53751
302.06141,1.53480
301.82034,1.50705
301.57927,1.47452
301.33820,1.46267
301.09713,1.47397
300.85605,1.48678
300.61498,1.48599
300.37391,1.47825
300.13284,1.46963
299.89177,1.45911
299.65070,1.44567
299.40963,1.43342
299.16856,1.43243
298.92749,1.44322
298.68642,1.45548
298.44535,1.46049
298.20428,1.45532
297.96321,1.44330
297.72214,1.43153
297.48107,1.42004
297.24000,1.40718
296.99893,1.39993
296.75786,1.40506
296.51678,1.40694
296.27571,1.38036
296.03464,1.34438
295.79357,1.33408
295.55250,1.35494
295.31143,1.38055
295.07036,1.37669
294.82929,1.34808
294.58822,1.33209
294.34715,1.34455
294.10608,1.37267
293.86501,1.38427
293.62394,1.35952
293.38287,1.32421
293.14180,1.30888
292.90073,1.31321
292.65966,1.31636
292.41859,1.31263
292.17751,1.31698
291.93644,1.33584
291.69537,1.35911
291.45430,1.36454
291.21323,1.34186
290.97216,1.31404
290.73109,1.30658
290.49002,1.32078
290.24895,1.33256
290.00788,1.32337
289.76681,1.30410
289.52574,1.29023
289.28467,1.27868
289.04360,1.26297
288.80253,1.25184
288.56146,1.25405
288.32039,1.26035
288.07932,1.26050
287.83824,1.26391
287.59717,1.28443
287.35610,1.31339
287.11503,1.31884
286.87396,1.29029
286.63289,1.25337
286.39182,1.22940
286.15075,1.21988
285.90968,1.21620
285.66861,1.21353
285.42754,1.21298
285.18647,1.21513
284.94540,1.21852
284.70433,1.22306
284.46326,1.23054
284.22219,1.23836
283.98112,1.23940
283.74005,1.23262
283.49897,1.22481
283.25790,1.22061
283.01683,1.21816
282.77576,1.21729
282.53469,1.22194
282.29362,1.22922
282.05255,1.23057
281.81148,1.22541
281.57041,1.22244
281.32934,1.22910
281.08827,1.24855
280.84720,1.27799
280.60613,1.30216
280.36506,1.30174
280.12399,1.27935
279.88292,1.25827
279.64185,1.25187
279.40078,1.25398
279.15970,1.25558
278.91863,1.25674
278.67756,1.26037
278.43649,1.26409
278.19542,1.26159
277.95435,1.24885
277.71328,1.23124
277.47221,1.22180
277.23114,1.22797
276.99007,1.24350
276.74900,1.25492
276.50793,1.25552
276.26686,1.25067
276.02579,1.24744
275.78472,1.24461
275.54365,1.23659
275.30258,1.22399
275.06151,1.21431
274.82043,1.21303
274.57936,1.21891
274.33829,1.22795
274.09722,1.23695
273.85615,1.24409
273.61508,1.25231
273.37401,1.26611
273.13294,1.27905
272.89187,1.27648
272.65080,1.25888
272.40973,1.24504
272.16866,1.24625
271.92759,1.25525
271.68652,1.26244
271.44545,1.26629
271.20438,1.26461
270.96331,1.25493
270.72224,1.24298
270.48116,1.23619
270.24009,1.23465
269.99902,1.23812
269.75795,1.25324
269.51688,1.28219
269.27581,1.31106
269.03474,1.32354
268.79367,1.32128
268.55260,1.31588
268.31153,1.31097
268.07046,1.30308
267.82939,1.29295
267.58832,1.28890
267.34725,1.29805
267.10618,1.31839
266.86511,1.33994
266.62404,1.35203
266.38297,1.35163
266.14189,1.34429
265.90082,1.33575
265.65975,1.32824
265.41868,1.32532
265.17761,1.33044
264.93654,1.34143
264.69547,1.35460
264.45440,1.37082
264.21333,1.39105
263.97226,1.41249
263.73119,1.43224
263.49012,1.44848
263.24905,1.45755
263.00798,1.45775
262.76691,1.45689
262.52584,1.46470
262.28477,1.48232
262.04370,1.49864
261.80262,1.50664
261.56155,1.52019
261.32048,1.55274
261.07941,1.59320
260.83834,1.63199
260.59727,1.67943
260.35620,1.72089
260.11513,1.72365
259.87406,1.69521
259.63299,1.67162
259.39192,1.68148
259.15085,1.73616
258.90978,1.82828
258.66871,1.90104
258.42764,1.89372
258.18657,1.87290
257.94550,1.87261
257.70443,1.88945
257.46335,1.92698
257.22228,1.98691
256.98121,2.05240
256.74014,2.07026
256.49907,1.98072
256.25800,1.88173
256.01693,1.83320
255.77586,1.82039
255.53479,1.83398
255.29372,1.87321
255.05265,1.91469
254.81158,1.92467
254.57051,1.90415
254.32944,1.87046
254.08837,1.82611
253.84730,1.78107
253.60623,1.76199
253.36516,1.78734
253.12408,1.85988
252.88301,1.95459
252.64194,2.02562
252.40087,2.03364
252.15980,1.96173
251.91873,1.85235
251.67766,1.78901
251.43659,1.80035
251.19552,1.83933
250.95445,1.86548
250.71338,1.91564
250.47231,1.97388
250.23124,1.98230
249.99017,1.92858
249.74910,1.85639
249.50803,1.80285
249.26696,1.77200
249.02589,1.73907
248.78481,1.68903
248.54374,1.65479
248.30267,1.67222
248.06160,1.72048
247.82053,1.73489
247.57946,1.71032
247.33839,1.71207
247.09732,1.76047
246.85625,1.81118
246.61518,1.82145
246.37411,1.80869
246.13304,1.80311
245.89197,1.81055
245.65090,1.82705
245.40983,1.86159
245.16876,1.95103
244.92769,2.06974
244.68661,2.00696
244.44554,1.95522
244.20447,1.95773
243.96340,1.95879
243.72233,1.98611
243.48126,2.05316
243.24019,2.07364
242.99912,1.98455
242.75805,1.88441
242.51698,1.83274
242.27591,1.79676
242.03484,1.74364
241.79377,1.68805
241.55270,1.64209
241.31163,1.61229
241.07056,1.59765
240.82949,1.58327
240.58842,1.55456
240.34734,1.50817
240.10627,1.44213
239.86520,1.36318
239.62413,1.29036
239.38306,1.23597
239.14199,1.19872
238.90092,1.17246
238.65985,1.15433
238.41878,1.14489
238.17771,1.14336
237.93664,1.14488
237.69557,1.14311
237.45450,1.13677
237.21343,1.12746
236.97236,1.11232
236.73129,1.08931
236.49022,1.06471
236.24915,1.04359
236.00807,1.02563
235.76700,1.01027
235.52593,1.00008
235.28486,0.99709
235.04379,0.99748
234.80272,0.99282
234.56165,0.98104
234.32058,0.97148
234.07951,0.97165
233.83844,0.97607
233.59737,0.97379
233.35630,0.96301
233.11523,0.95188
232.87416,0.94729
232.63309,0.94881
232.39202,0.95308
232.15095,0.95796
231.90988,0.96112
231.66880,0.96025
231.42773,0.95600
231.18666,0.95076
230.94559,0.94592
230.70452,0.94212
230.46345,0.93862
230.22238,0.93157
229.98131,0.91870
229.74024,0.90614
229.49917,0.90213
229.25810,0.90487
229.01703,0.90501
228.77596,0.89910
228.53489,0.89212
228.29382,0.88940
228.05275,0.89327
227.81168,0.90132
227.57061,0.90594
227.32953,0.90330
227.08846,0.90013
226.84739,0.90458
226.60632,0.91318
226.36525,0.91562
226.12418,0.90868
225.88311,0.89564
225.64204,0.87962
225.40097,0.86573
225.15990,0.86092
224.91883,0.86546
224.67776,0.87193
224.43669,0.87600
224.19562,0.87931
223.95455,0.87965
223.71348,0.87275
223.47241,0.86345
223.23134,0.86032
222.99026,0.86533
222.74919,0.87640
222.50812,0.89361
222.26705,0.91508
222.02598,0.93321
221.78491,0.94351
221.54384,0.94894
221.30277,0.95173
221.06170,0.95161
220.82063,0.95016
220.57956,0.95078
220.33849,0.95661
220.09742,0.96921
219.85635,0.98666
219.61528,1.00318
219.37421,1.01070
219.13314,1.00451
218.89207,0.99360
218.65099,0.99277
218.40992,1.00414
218.16885,1.01995
217.92778,1.03759
217.68671,1.06024
217.44564,1.08346
217.20457,1.09428
216.96350,1.08859
216.72243,1.07470
216.48136,1.06400
216.24029,1.06788
215.99922,1.09136
215.75815,1.12865
215.51708,1.16822
215.27601,1.19515
215.03494,1.19705
214.79387,1.18039
214.55280,1.16405
214.31172,1.16271
214.07065,1.17886
213.82958,1.20499
213.58851,1.23080
213.34744,1.24854
213.10637,1.25382
212.86530,1.24811
212.62423,1.24037
212.38316,1.24304
212.14209,1.26674
211.90102,1.31070
211.65995,1.35182
211.41888,1.35379
211.17781,1.31179
210.93674,1.25682
210.69567,1.21200
210.45460,1.19142
210.21353,1.20423
209.97245,1.24779
209.73138,1.28989
209.49031,1.27741
209.24924,1.22616
209.00817,1.18806
208.76710,1.18630
208.52603,1.22370
208.28496,1.27657
208.04389,1.29547
207.80282,1.26640
207.56175,1.23001
207.32068,1.21547
207.07961,1.22652
206.83854,1.24729
206.59747,1.24721
206.35640,1.21429
206.11533,1.17134
205.87426,1.14402
205.63318,1.14061
205.39211,1.15289
205.15104,1.16327
204.90997,1.15616
204.66890,1.13143
204.42783,1.10128
204.18676,1.07715
203.94569,1.06496
203.70462,1.06133
203.46355,1.05703
203.22248,1.04823
202.98141,1.03693
202.74034,1.02456
202.49927,1.01122
202.25820,0.99743
202.01713,0.98438
201.77606,0.97313
201.53499,0.96302
201.29391,0.95140
201.05284,0.93610
200.81177,0.91663
200.57070,0.89518
200.32963,0.87721
200.08856,0.86780
199.84749,0.86695
199.60642,0.86755
199.36535,0.85999
199.12428,0.84289
198.88321,0.82601
198.64214,0.81793
198.40107,0.81614
198.16000,0.81005
197.91893,0.79448
197.67786,0.77887
197.43679,0.77512
197.19572,0.78175
196.95464,0.78400
196.71357,0.77074
196.47250,0.75107
196.23143,0.74141
195.99036,0.74459
195.74929,0.74727
195.50822,0.73429
195.26715,0.71054
195.02608,0.69543
194.78501,0.69807
194.54394,0.70777
194.30287,0.70621
194.06180,0.69390
193.82073,0.68628
193.57966,0.68889
193.33859,0.69319
193.09752,0.69012
192.85645,0.68307
192.61537,0.67855
192.37430,0.67398
192.13323,0.66417
191.89216,0.65272
191.65109,0.64708
191.41002,0.64518
191.16895,0.63843
190.92788,0.62792
190.68681,0.62355
190.44574,0.62645
190.20467,0.62684
189.96360,0.62112
189.72253,0.61685
189.48146,0.61822
189.24039,0.62099
188.99932,0.62226
188.75825,0.62495
188.51718,0.62894
188.27610,0.62906
188.03503,0.62399
187.79396,0.61864
187.55289,0.61622
187.31182,0.61438
187.07075,0.61066
186.82968,0.60750
186.58861,0.60817
186.34754,0.61047
186.10647,0.60928
185.86540,0.60462
185.62433,0.60064
185.38326,0.59875
185.14219,0.59807
184.90112,0.59961
184.66005,0.60347
184.41898,0.60599
184.17791,0.60601
183.93683,0.60805
183.69576,0.61286
183.45469,0.61377
183.21362,0.60973
182.97255,0.60941
182.73148,0.61565
182.49041,0.62073
182.24934,0.61941
182.00827,0.61490
181.76720,0.61115
181.52613,0.61009
181.28506,0.61387
181.04399,0.62191
180.80292,0.62895
180.56185,0.63184
180.32078,0.63404
180.07971,0.63749
179.83864,0.63830
179.59756,0.63563
179.35649,0.63269
179.11542,0.63000
178.87435,0.62784
178.63328,0.63016
178.39221,0.63961
178.15114,0.65493
177.91007,0.67524
177.66900,0.69900
177.42793,0.71819
177.18686,0.72656
176.94579,0.73146
176.70472,0.74135
176.46365,0.75251
176.22258,0.75974
175.98151,0.76776
175.74044,0.78358
175.49937,0.80678
175.25829,0.83035
175.01722,0.84939
174.77615,0.86788
174.53508,0.89085
174.29401,0.91345
174.05294,0.92823
173.81187,0.93691
173.57080,0.94313
173.32973,0.94661
173.08866,0.94846
172.84759,0.94972
172.60652,0.94908
172.36545,0.94898
172.12438,0.95613
171.88331,0.97098
171.64224,0.98433
171.40117,0.98851
171.16010,0.98519
170.91902,0.97914
170.67795,0.97214
170.43688,0.96376
170.19581,0.95545
169.95474,0.95065
169.71367,0.94940
169.47260,0.94737
169.23153,0.94299
168.99046,0.93911
168.74939,0.93473
168.50832,0.92494
168.26725,0.90995
168.02618,0.89773
167.78511,0.89651
167.54404,0.90655
167.30297,0.91959
167.06190,0.92742
166.82083,0.92771
166.57975,0.92243
166.33868,0.91728
166.09761,0.91723
165.85654,0.92338
165.61547,0.93600
165.37440,0.95467
165.13333,0.97599
164.89226,0.99473
164.65119,1.00560
164.41012,1.00258
164.16905,0.98512
163.92798,0.96341
163.68691,0.94964
163.44584,0.94937
163.20477,0.96364
162.96370,0.99220
162.72263,1.02985
162.48156,1.06352
162.24048,1.07761
161.99941,1.06670
161.75834,1.04413
161.51727,1.02776
161.27620,1.02189
161.03513,1.02015
160.79406,1.01854
160.55299,1.01918
160.31192,1.02401
160.07085,1.02843
159.82978,1.02460
159.58871,1.01307
159.34764,1.00490
159.10657,1.01463
158.86550,1.04778
158.62443,1.08518
158.38336,1.08521
158.14229,1.03695
157.90121,0.98182
157.66014,0.95297
157.41907,0.95761
157.17800,0.98678
156.93693,1.01694
156.69586,1.01831
156.45479,0.98852
156.21372,0.95178
155.97265,0.92809
155.73158,0.92653
155.49051,0.94416
155.24944,0.95960
155.00837,0.94823
154.76730,0.91591
154.52623,0.88561
154.28516,0.87138
154.04409,0.87283
153.80302,0.87598
153.56194,0.86503
153.32087,0.84078
153.07980,0.81662
152.83873,0.80110
152.59766,0.79338
152.35659,0.78774
152.11552,0.77865
151.87445,0.76479
151.63338,0.74890
151.39231,0.73419
151.15124,0.72188
150.91017,0.70952
150.66910,0.69254
150.42803,0.67096
150.18696,0.65213
149.94589,0.64315
149.70482,0.64212
149.46375,0.63937
149.22267,0.62914
148.98160,0.61642
148.74053,0.60909
148.49946,0.60786
148.25839,0.60490
148.01732,0.59481
147.77625,0.58346
147.53518,0.57916
147.29411,0.58203
147.05304,0.58372
146.81197,0.57805
146.57090,0.57192
146.32983,0.57569
146.08876,0.58822
145.84769,0.59705
145.60662,0.59392
145.36555,0.58697
145.12448,0.58869
144.88340,0.59949
144.64233,0.60905
144.40126,0.61177
144.16019,0.61215
143.91912,0.61396
143.67805,0.61543
143.43698,0.61454
143.19591,0.61167
142.95484,0.60725
142.71377,0.60139
142.47270,0.59521
142.23163,0.58972
141.99056,0.58392
141.74949,0.57535
141.50842,0.56325
141.26735,0.55072
141.02628,0.54151
140.78521,0.53622
140.54413,0.53389
140.30306,0.53489
140.06199,0.53864
139.82092,0.54109
139.57985,0.53935
139.33878,0.53615
139.09771,0.53611
138.85664,0.54030
138.61557,0.54778
138.37450,0.55859
138.13343,0.57135
137.89236,0.58206
137.65129,0.58947
137.41022,0.59766
137.16915,0.61043
136.92808,0.62684
136.68701,0.64384
136.44594,0.66004
136.20486,0.67561
135.96379,0.69281
135.72272,0.71559
135.48165,0.74422
135.24058,0.77353
134.99951,0.80064
134.75844,0.82856
134.51737,0.85788
134.27630,0.88609
134.03523,0.91666
133.79416,0.95279
133.55309,0.98655
133.31202,1.01050
133.07095,1.02667
132.82988,1.03536
132.58881,1.03900
132.34774,1.05189
132.10667,1.08236
131.86559,1.11539
131.62452,1.13182
131.38345,1.13488
131.14238,1.13764
130.90131,1.14173
130.66024,1.14060
130.41917,1.13168
130.17810,1.11748
129.93703,1.09651
129.69596,1.06387
129.45489,1.02272
129.21382,0.97967
128.97275,0.93368
128.73168,0.88488
128.49061,0.84247
128.24954,0.81248
128.00847,0.78871
127.76740,0.76238
127.52632,0.73424
127.28525,0.71104
127.04418,0.69439
126.80311,0.67937
126.56204,0.66242
126.32097,0.64534
126.07990,0.63060
125.83883,0.61712
125.59776,0.60236
125.35669,0.58671
125.11562,0.57340
124.87455,0.56403
124.63348,0.55639
124.39241,0.54699
124.15134,0.53506
123.91027,0.52290
123.66920,0.51231
123.42812,0.50302
123.18705,0.49497
122.94598,0.48971
122.70491,0.48841
122.46384,0.48995
122.22277,0.49232
121.98170,0.49532
121.74063,0.49945
121.49956,0.50238
121.25849,0.50080
121.01742,0.49565
120.77635,0.49109
120.53528,0.48900
120.29421,0.48864
120.05314,0.49028
119.81207,0.49628
119.57100,0.50897
119.32993,0.52943
119.08885,0.55871
118.84778,0.59762
118.60671,0.64393
118.36564,0.69205
118.12457,0.73688
117.88350,0.77437
117.64243,0.79805
117.40136,0.80446
117.16029,0.79955
116.91922,0.79208
116.67815,0.78598
116.43708,0.78271
116.19601,0.78617
115.95494,0.79773
115.71387,0.80736
115.47280,0.79893
115.23173,0.76928
114.99066,0.73340
114.74958,0.70630
114.50851,0.68985
114.26744,0.67760
114.02637,0.66592
113.78530,0.65813
113.54423,0.65932
113.30316,0.67114
113.06209,0.69051
112.82102,0.70815
112.57995,0.71162
112.33888,0.69728
112.09781,0.67564
111.85674,0.66019
111.61567,0.65836
111.37460,0.67251
111.13353,0.70273
110.89246,0.74245
110.65139,0.76846
110.41031,0.75569
110.16924,0.71576
109.92817,0.67748
109.68710,0.65284
109.44603,0.64174
109.20496,0.64376
108.96389,0.65944
108.72282,0.68578
108.48175,0.70755
108.24068,0.69591
107.99961,0.64185
107.75854,0.57583
107.51747,0.52850
107.27640,0.50995
107.03533,0.51292
106.79426,0.52541
106.55319,0.53730
106.31212,0.52965
106.07104,0.49092
105.82997,0.44402
105.58890,0.41295
105.34783,0.40555
105.10676,0.41839
104.86569,0.43664
104.62462,0.43631
104.38355,0.40871
104.14248,0.37468
103.90141,0.35562
103.66034,0.35731
103.41927,0.37252
103.17820,0.38351
102.93713,0.37271
102.69606,0.34357
102.45499,0.31669
102.21392,0.30592
101.97285,0.31147
101.73177,0.32304
101.49070,0.32577
101.24963,0.31459
101.00856,0.30079
100.76749,0.29743
100.52642,0.30591
100.28535,0.31426
100.04428,0.30881
99.80321,0.29206
99.56214,0.27845
99.32107,0.27808
99.08000,0.28790
98.83893,0.29166
98.59786,0.27931
98.35679,0.26547
98.11572,0.26884
97.87465,0.28610
97.63358,0.29109
97.39250,0.27141
97.15143,0.25274
96.91036,0.25899
96.66929,0.28295
96.42822,0.29457
96.18715,0.28626
95.94608,0.28215
95.70501,0.29433
95.46394,0.31031
95.22287,0.31595
94.98180,0.31849
94.74073,0.32817
94.49966,0.33712
94.25859,0.33481
94.01752,0.33063
93.77645,0.33646
93.53538,0.34447
93.29431,0.34327
93.05323,0.34206
92.81216,0.35183
92.57109,0.36153
92.33002,0.35456
92.08895,0.34135
91.84788,0.34005
91.60681,0.34732
91.36574,0.35279
91.12467,0.36188
90.88360,0.38169
90.64253,0.40401
90.40146,0.42243
90.16039,0.44470
89.91932,0.47099
89.67825,0.49524
89.43718,0.52856
89.19611,0.57592
88.95504,0.61983
88.71396,0.65861
88.47289,0.70436
88.23182,0.73671
87.99075,0.73681
87.74968,0.72333
87.50861,0.70366
87.26754,0.67076
87.02647,0.62947
86.78540,0.59025
86.54433,0.55563
86.30326,0.52501
86.06219,0.49714
85.82112,0.46792
85.58005,0.43479
85.33898,0.40012
85.09791,0.36701
84.85684,0.33810
84.61577,0.31564
84.37469,0.29788
84.13362,0.28203
83.89255,0.26923
83.65148,0.25947
83.41041,0.24952
83.16934,0.24010
82.92827,0.23609
82.68720,0.23749
82.44613,0.23890
82.20506,0.23707
81.96399,0.23216
81.72292,0.22514
81.48185,0.21839
81.24078,0.21585
80.99971,0.21909
80.75864,0.22532
80.51757,0.22996
80.27650,0.22994
80.03542,0.22434
79.79435,0.21469
79.55328,0.20509
79.31221,0.20005
79.07114,0.20110
78.83007,0.20616
78.58900,0.21073
78.34793,0.20959
78.10686,0.20071
77.86579,0.18808
77.62472,0.17807
77.38365,0.17335
77.14258,0.17172
76.90151,0.16927
76.66044,0.16446
76.41937,0.15992
76.17830,0.15952
75.93723,0.16364
75.69615,0.16880
75.45508,0.17116
75.21401,0.16917
74.97294,0.16415
74.73187,0.15876
74.49080,0.15584
74.24973,0.15745
74.00866,0.16258
73.76759,0.16676
73.52652,0.16634
73.28545,0.16325
73.04438,0.16263
72.80331,0.16679
72.56224,0.17457
72.32117,0.18327
72.08010,0.18847
71.83903,0.18607
71.59796,0.17715
71.35688,0.16682
71.11581,0.15805
70.87474,0.15200
70.63367,0.15317
70.39260,0.16751
70.15153,0.19590
69.91046,0.23406
69.66939,0.27656
69.42832,0.31526
69.18725,0.33732
68.94618,0.33251
68.70511,0.30291
68.46404,0.26168
68.22297,0.22309
67.98190,0.19584
67.74083,0.18030
67.49976,0.16943
67.25869,0.15664
67.01761,0.14257
66.77654,0.13157
66.53547,0.12530
66.29440,0.12186
66.05333,0.11973
65.81226,0.12082
65.57119,0.12809
65.33012,0.14181
65.08905,0.15990
64.84798,0.17942
64.60691,0.19568
64.36584,0.20368
64.12477,0.20367
63.88370,0.20108
63.64263,0.19834
63.40156,0.19240
63.16049,0.18181
62.91942,0.17153
62.67834,0.16928
62.43727,0.17871
62.19620,0.19796
61.95513,0.22239
61.71406,0.24058
61.47299,0.23322
61.23192,0.19680
60.99085,0.15023
60.74978,0.11049
60.50871,0.08156
60.26764,0.05907
60.02657,0.03953
59.78550,0.02552
59.54443,0.02159
59.30336,0.02853
59.06229,0.04489
58.82122,0.07275
58.58015,0.11922
58.33907,0.19567
58.09800,0.29438
57.85693,0.31487
57.61586,0.23548
57.37479,0.16637
57.13372,0.12097
56.89265,0.09683
56.65158,0.09715
56.41051,0.12116
56.16944,0.16286
55.92837,0.20900
55.68730,0.22800
55.44623,0.19290
55.20516,0.13234
54.96409,0.07731
54.72302,0.03876
54.48195,0.02350
54.24088,0.04143
53.99980,0.10410
53.75873,0.22770
53.51766,0.33889
53.27659,0.19687
53.03552,0.07423
52.79445,0.01911
52.55338,0.01196
52.31231,0.05131
52.07124,0.15707
51.83017,0.30707
51.58910,0.22675
51.34803,0.08380
51.10696,0.01792
50.86589,0.02618
50.62482,0.10945
50.38375,0.21877
50.14268,0.16752
49.90161,0.05814
49.66053,0.01509
49.41946,0.06021
49.17839,0.18170
48.93732,0.22771
48.69625,0.11812
48.45518,0.06391
48.21411,0.11213
47.97304,0.21402
47.73197,0.15423
47.49090,0.05018
47.24983,0.04736
47.00876,0.12491
46.76769,0.15562
46.52662,0.09669
46.28555,0.06773
46.04448,0.07356
45.80341,0.05321
45.56234,0.03193
45.32126,0.05062
45.08019,0.06439
44.83912,0.04050
44.59805,0.03519
44.35698,0.07064
44.11591,0.10587
43.87484,0.11520
43.63377,0.12209
43.39270,0.11610
43.15163,0.08918
42.91056,0.07283
42.66949,0.07474
42.42842,0.07159
42.18735,0.06405
41.94628,0.06088
41.70521,0.05604
41.46414,0.04831
41.22307,0.04301
40.98199,0.03971
40.74092,0.03747
40.49985,0.03962
40.25878,0.05146
40.01771,0.07714
39.77664,0.10709
39.53557,0.12195
39.29450,0.12641
39.05343,0.14062
38.81236,0.16105
38.57129,0.17169
38.33022,0.16891
38.08915,0.15563
37.84808,0.13792
37.60701,0.13253
37.36594,0.14686
37.12487,0.16472
36.88380,0.16504
36.64272,0.15088
36.40165,0.14043
36.16058,0.13714
35.91951,0.13049
35.67844,0.12507
35.43737,0.13770
35.19630,0.15388
34.95523,0.14484
34.71416,0.11575
34.47309,0.09526
34.23202,0.09722
33.99095,0.11317
33.74988,0.13315
33.50881,0.15203
33.26774,0.16149
33.02667,0.15169
32.78560,0.12958
32.54453,0.10790
32.30345,0.08358
32.06238,0.05580
31.82131,0.04194
31.58024,0.05231
31.33917,0.06691
31.09810,0.06112
30.85703,0.03956
30.61596,0.02662
30.37489,0.02854
30.13382,0.02428
29.89275,0.00461
29.65168,-0.00863
29.41061,0.01182
29.16954,0.06256
28.92847,0.10801
28.68740,0.11749
28.44633,0.08747
28.20526,0.03922
27.96418,0.00710
27.72311,0.02407
27.48204,0.06718
27.24097,0.07370
26.99990,0.03937
26.75883,-0.00079
26.51776,-0.02540
26.27669,-0.05231
26.03562,-0.11173
25.79455,-0.19557
25.55348,-0.26363
25.31241,-0.29977
25.07134,-0.31732
24.83027,-0.30573
24.58920,-0.27431
24.34813,-0.20237
24.10706,-0.14582
23.86599,-0.12933
23.62491,-0.12829
23.38384,-0.11616
23.14277,-0.10977
22.90170,-0.07472
22.66063,-0.00079
22.41956,0.03202
22.17849,0.01356
21.93742,-0.03236
21.69635,-0.06315
21.45528,-0.06229
21.21421,-0.07194
20.97314,-0.07249
20.73207,-0.02910
20.49100,0.00113
20.24993,0.00107
20.00886,-0.01550
19.76779,-0.03188
19.52672,-0.04080
19.28564,-0.03866
19.04457,-0.03117
18.80350,-0.04741
18.56243,-0.10483
18.32136,-0.15931
18.08029,-0.17589
17.83922,-0.16839
17.59815,-0.14600
17.35708,-0.10779
17.11601,-0.05754
16.87494,-0.00486
16.63387,0.02941
16.39280,0.02279
16.15173,-0.01697
15.91066,-0.05034
15.66959,-0.06807
15.42852,-0.09007
15.18745,-0.11850
14.94637,-0.13388
14.70530,-0.12482
14.46423,-0.10850
14.22316,-0.10586
13.98209,-0.11218
13.74102,-0.10356
13.49995,-0.07299
13.25888,-0.04994
13.01781,-0.06526
12.77674,-0.10438
12.53567,-0.11767
12.29460,-0.06748
12.05353,0.01312
11.81246,0.06055
11.57139,0.05778
11.33032,0.02473
11.08925,-0.01381
10.84818,-0.04394
10.60710,-0.06604
10.36603,-0.07687
10.12496,-0.05632
9.88389,-0.00141
9.64282,0.05754
9.40175,0.08349
9.16068,0.06323
8.91961,0.01421
8.67854,-0.04604
8.43747,-0.08559
8.19640,-0.08928
7.95533,-0.06215
7.71426,-0.00859
7.47319,0.04302
7.23212,0.05999
6.99105,0.01884
6.74998,-0.07029
6.50891,-0.14769
6.26783,-0.18498
6.02676,-0.17676
5.78569,-0.13858
5.54462,-0.06856
5.30355,-0.01252
5.06248,0.01924
4.82141,0.03540
4.58034,0.03523
4.33927,0.02354
4.09820,0.00340
3.85713,-0.02754
3.61606,-0.05345
3.37499,-0.05963
3.13392,-0.06457
2.89285,-0.07362
2.65178,-0.07799
2.41071,-0.08138
2.16964,-0.08438
1.92856,-0.08108
1.68749,-0.06993
1.44642,-0.06656
1.20535,-0.08183
0.96428,-0.11383
0.72321,-0.18301
0.48214,-0.30172
0.24107,-0.28241
-0.00000,-0.04886
