399.69498,1.49831
399.45391,1.50358
399.21284,1.50663
398.97177,1.50727
398.73070,1.50617
398.48963,1.50482
398.24856,1.50411
398.00749,1.50439
397.76642,1.50582
397.52535,1.50566
397.28428,1.50055
397.04321,1.49286
396.80214,1.48859
396.56107,1.49127
396.32000,1.50111
396.07892,1.51406
395.83785,1.52099
395.59678,1.51498
395.35571,1.50092
395.11464,1.48936
394.87357,1.48355
394.63250,1.47994
394.39143,1.47704
394.15036,1.47528
393.90929,1.47273
393.66822,1.46907
393.42715,1.46871
393.18608,1.47561
392.94501,1.48683
392.70394,1.49593
392.46287,1.50010
392.22180,1.49995
391.98073,1.49413
391.73965,1.48138
391.49858,1.46793
391.25751,1.46389
391.01644,1.47366
390.77537,1.49366
390.53430,1.51213
390.29323,1.51244
390.05216,1.49195
389.81109,1.46744
389.57002,1.45288
389.32895,1.44755
389.08788,1.44370
388.84681,1.43524
388.60574,1.42130
388.36467,1.40736
388.12360,1.40209
387.88253,1.40923
387.64146,1.42170
387.40038,1.42667
387.15931,1.41725
386.91824,1.39876
386.67717,1.38506
386.43610,1.38520
386.19503,1.39304
385.95396,1.39642
385.71289,1.39339
385.47182,1.38747
385.23075,1.37590
384.98968,1.35684
384.74861,1.33820
384.50754,1.32857
384.26647,1.32885
384.02540,1.33308
383.78433,1.33540
383.54326,1.33565
383.30219,1.33572
383.06111,1.33252
382.82004,1.32091
382.57897,1.30263
382.33790,1.28548
382.09683,1.27650
381.85576,1.27741
381.61469,1.28055
381.37362,1.27400
381.13255,1.25841
380.89148,1.24550
380.65041,1.24025
380.40934,1.23861
380.16827,1.23660
379.92720,1.23551
379.68613,1.24052
379.44506,1.25379
379.20399,1.26690
378.96292,1.26759
378.72184,1.25847
378.48077,1.25715
378.23970,1.27293
377.99863,1.29429
377.75756,1.30601
377.51649,1.30807
377.27542,1.30823
377.03435,1.30896
376.79328,1.31164
376.55221,1.32371
376.31114,1.34911
376.07007,1.37758
375.82900,1.39413
375.58793,1.39575
375.34686,1.39119
375.10579,1.38932
374.86472,1.39142
374.62365,1.39321
374.38257,1.39101
374.14150,1.38561
373.90043,1.38066
373.65936,1.37760
373.41829,1.37428
373.17722,1.36858
372.93615,1.36280
372.69508,1.36223
372.45401,1.36637
372.21294,1.36728
371.97187,1.36063
371.73080,1.35294
371.48973,1.35305
371.24866,1.36064
371.00759,1.36588
370.76652,1.36059
370.52545,1.34730
370.28437,1.33368
370.04330,1.32267
369.80223,1.31300
369.56116,1.30558
369.32009,1.30394
369.07902,1.30921
368.83795,1.31739
368.59688,1.32270
368.35581,1.32337
368.11474,1.32326
367.87367,1.32517
367.63260,1.32491
367.39153,1.31866
367.15046,1.31008
366.90939,1.30322
366.66832,1.29643
366.42725,1.28748
366.18618,1.28053
365.94510,1.28127
365.70403,1.28779
365.46296,1.29261
365.22189,1.29222
364.98082,1.28941
364.73975,1.28630
364.49868,1.28135
364.25761,1.27382
364.01654,1.26671
363.77547,1.26411
363.53440,1.26594
363.29333,1.26701
363.05226,1.26258
362.81119,1.25356
362.57012,1.24496
362.32905,1.24147
362.08798,1.24374
361.84691,1.24705
361.60583,1.24668
361.36476,1.24296
361.12369,1.23912
360.88262,1.23791
360.64155,1.24140
360.40048,1.24951
360.15941,1.25827
359.91834,1.26216
359.67727,1.25854
359.43620,1.25009
359.19513,1.24274
358.95406,1.23982
358.71299,1.23912
358.47192,1.23667
358.23085,1.23250
357.98978,1.23039
357.74871,1.23163
357.50764,1.23250
357.26656,1.22939
357.02549,1.22393
356.78442,1.22004
356.54335,1.21808
356.30228,1.21562
356.06121,1.21204
355.82014,1.20960
355.57907,1.21067
355.33800,1.21434
355.09693,1.21682
354.85586,1.21674
354.61479,1.21846
354.37372,1.22608
354.13265,1.23579
353.89158,1.23923
353.65051,1.23455
353.40944,1.22807
353.16837,1.22511
352.92729,1.22428
352.68622,1.22029
352.44515,1.21171
352.20408,1.20362
351.96301,1.20088
351.72194,1.20303
351.48087,1.20730
351.23980,1.21202
350.99873,1.21521
350.75766,1.21536
350.51659,1.21443
350.27552,1.21489
350.03445,1.21606
349.79338,1.21702
349.55231,1.21981
349.31124,1.22645
349.07017,1.23542
348.82910,1.24293
348.58802,1.24598
348.34695,1.24526
348.10588,1.24481
347.86481,1.24709
347.62374,1.24983
347.38267,1.24912
347.14160,1.24471
346.90053,1.23976
346.65946,1.23630
346.41839,1.23442
346.17732,1.23473
345.93625,1.23816
345.69518,1.24361
345.45411,1.24875
345.21304,1.25344
344.97197,1.25896
344.73090,1.26427
344.48983,1.26747
344.24875,1.26909
344.00768,1.27028
343.76661,1.27069
343.52554,1.27022
343.28447,1.27094
343.04340,1.27581
342.80233,1.28556
342.56126,1.29851
342.32019,1.31312
342.07912,1.32700
341.83805,1.33468
341.59698,1.33179
341.35591,1.32192
341.11484,1.31473
340.87377,1.31577
340.63270,1.32245
340.39163,1.32807
340.15056,1.32794
339.90948,1.32482
339.66841,1.32621
339.42734,1.33679
339.18627,1.35318
338.94520,1.36658
338.70413,1.37308
338.46306,1.37750
338.22199,1.38446
337.98092,1.38999
337.73985,1.38636
337.49878,1.37318
337.25771,1.35821
337.01664,1.34838
336.77557,1.34524
336.53450,1.34778
336.29343,1.35480
336.05236,1.36422
335.81129,1.37130
335.57021,1.37193
335.32914,1.36945
335.08807,1.37011
334.84700,1.37122
334.60593,1.36527
334.36486,1.35228
334.12379,1.33619
333.88272,1.31994
333.64165,1.30912
333.40058,1.31039
333.15951,1.32292
332.91844,1.33575
332.67737,1.33754
332.43630,1.32578
332.19523,1.30607
331.95416,1.28907
331.71309,1.28382
331.47202,1.28869
331.23094,1.29185
330.98987,1.28498
330.74880,1.27322
330.50773,1.26669
330.26666,1.26837
330.02559,1.27437
329.78452,1.28081
329.54345,1.28468
329.30238,1.28426
329.06131,1.28419
328.82024,1.29035
328.57917,1.29603
328.33810,1.28688
328.09703,1.26432
327.85596,1.24624
327.61489,1.24285
327.37382,1.24534
327.13275,1.24278
326.89167,1.23837
326.65060,1.23953
326.40953,1.24437
326.16846,1.24713
325.92739,1.24838
325.68632,1.25153
325.44525,1.25526
325.20418,1.25685
324.96311,1.25779
324.72204,1.26030
324.48097,1.26365
324.23990,1.26489
323.99883,1.26088
323.75776,1.25320
323.51669,1.25106
323.27562,1.26296
323.03455,1.28334
322.79348,1.29628
322.55240,1.29729
322.31133,1.29661
322.07026,1.29868
321.82919,1.29775
321.58812,1.29278
321.34705,1.29167
321.10598,1.29698
320.86491,1.29960
320.62384,1.29501
320.38277,1.29172
320.14170,1.29335
319.90063,1.29198
319.65956,1.28426
319.41849,1.27805
319.17742,1.27809
318.93635,1.27756
318.69528,1.27001
318.45421,1.25984
318.21313,1.25390
317.97206,1.25336
317.73099,1.25605
317.48992,1.25912
317.24885,1.26004
317.00778,1.25868
316.76671,1.25888
316.52564,1.26663
316.28457,1.28384
316.04350,1.30347
315.80243,1.31328
315.56136,1.30843
315.32029,1.29812
315.07922,1.29418
314.83815,1.30091
314.59708,1.31760
314.35601,1.34099
314.11494,1.36284
313.87386,1.37279
313.63279,1.36716
313.39172,1.35108
313.15065,1.33207
312.90958,1.31619
312.66851,1.31014
312.42744,1.31972
312.18637,1.34147
311.94530,1.36048
311.70423,1.36365
311.46316,1.35295
311.22209,1.33945
310.98102,1.33156
310.73995,1.33369
310.49888,1.34606
310.25781,1.36206
310.01674,1.37172
309.77567,1.37000
309.53459,1.36120
309.29352,1.35620
309.05245,1.36306
308.81138,1.37841
308.57031,1.38983
308.32924,1.38962
308.08817,1.38121
307.84710,1.36875
307.60603,1.35454
307.36496,1.34572
307.12389,1.34793
306.88282,1.35530
306.64175,1.35491
306.40068,1.34200
306.15961,1.32586
305.91854,1.31934
305.67747,1.32679
305.43640,1.34058
305.19532,1.34770
304.95425,1.34379
304.71318,1.33692
304.47211,1.33547
304.23104,1.33964
303.98997,1.34442
303.74890,1.34562
303.50783,1.34203
303.26676,1.33402
303.02569,1.32283
302.78462,1.31025
302.54355,1.29835
302.30248,1.28899
302.06141,1.28246
301.82034,1.27729
301.57927,1.27135
301.33820,1.26415
301.09713,1.25764
300.85605,1.25260
300.61498,1.24729
300.37391,1.24179
300.13284,1.23850
299.89177,1.23741
299.65070,1.23645
299.40963,1.23595
299.16856,1.23743
298.92749,1.24036
298.68642,1.24246
298.44535,1.24051
298.20428,1.23271
297.96321,1.22212
297.72214,1.21363
297.48107,1.20780
297.24000,1.20246
296.99893,1.19759
296.75786,1.19348
296.51678,1.18851
296.27571,1.18265
296.03464,1.17849
295.79357,1.17725
295.55250,1.17753
295.31143,1.17798
295.07036,1.17779
294.82929,1.17556
294.58822,1.17135
294.34715,1.16885
294.10608,1.17077
293.86501,1.17286
293.62394,1.16789
293.38287,1.15629
293.14180,1.14696
292.90073,1.14586
292.65966,1.14906
292.41859,1.14902
292.17751,1.14491
291.93644,1.14194
291.69537,1.14188
291.45430,1.14055
291.21323,1.13477
290.97216,1.12665
290.73109,1.12025
290.49002,1.11768
290.24895,1.11825
290.00788,1.11945
289.76681,1.11924
289.52574,1.11806
289.28467,1.11758
289.04360,1.11828
288.80253,1.11922
288.56146,1.11948
288.32039,1.11842
288.07932,1.11557
287.83824,1.11165
287.59717,1.10863
287.35610,1.10737
287.11503,1.10660
286.87396,1.10532
286.63289,1.10448
286.39182,1.10468
286.15075,1.10453
285.90968,1.10259
285.66861,1.09928
285.42754,1.09608
285.18647,1.09385
284.94540,1.09201
284.70433,1.08939
284.46326,1.08540
284.22219,1.08057
283.98112,1.07682
283.74005,1.07638
283.49897,1.07983
283.25790,1.08532
283.01683,1.08963
282.77576,1.09162
282.53469,1.09373
282.29362,1.09768
282.05255,1.10029
281.81148,1.09694
281.57041,1.08849
281.32934,1.08117
281.08827,1.07986
280.84720,1.08383
280.60613,1.08843
280.36506,1.08973
280.12399,1.08748
279.88292,1.08456
279.64185,1.08387
279.40078,1.08584
279.15970,1.08861
278.91863,1.09078
278.67756,1.09296
278.43649,1.09569
278.19542,1.09745
277.95435,1.09714
277.71328,1.09652
277.47221,1.09758
277.23114,1.09886
276.99007,1.09683
276.74900,1.09119
276.50793,1.08639
276.26686,1.08691
276.02579,1.09267
275.78472,1.09938
275.54365,1.10232
275.30258,1.09991
275.06151,1.09463
274.82043,1.09044
274.57936,1.08914
274.33829,1.08942
274.09722,1.08954
273.85615,1.09032
273.61508,1.09388
273.37401,1.09969
273.13294,1.10398
272.89187,1.10449
272.65080,1.10344
272.40973,1.10376
272.16866,1.10545
271.92759,1.10748
271.68652,1.10965
271.44545,1.11144
271.20438,1.11205
270.96331,1.11224
270.72224,1.11390
270.48116,1.11775
270.24009,1.12254
269.99902,1.12671
269.75795,1.13033
269.51688,1.13435
269.27581,1.13827
269.03474,1.14067
268.79367,1.14188
268.55260,1.14368
268.31153,1.14684
268.07046,1.15098
267.82939,1.15589
267.58832,1.16140
267.34725,1.16733
267.10618,1.17388
266.86511,1.18091
266.62404,1.18706
266.38297,1.19161
266.14189,1.19641
265.90082,1.20348
265.65975,1.21203
265.41868,1.21994
265.17761,1.22698
264.93654,1.23471
264.69547,1.24401
264.45440,1.25401
264.21333,1.26382
263.97226,1.27459
263.73119,1.28838
263.49012,1.30428
263.24905,1.31774
263.00798,1.32694
262.76691,1.33631
262.52584,1.34976
262.28477,1.36441
262.04370,1.37613
261.80262,1.38725
261.56155,1.40249
261.32048,1.42080
261.07941,1.43738
260.83834,1.45139
260.59727,1.46635
260.35620,1.48416
260.11513,1.50404
259.87406,1.52534
259.63299,1.54760
259.39192,1.57100
259.15085,1.59922
258.90978,1.63637
258.66871,1.67782
258.42764,1.71154
258.18657,1.73633
257.94550,1.76719
257.70443,1.81054
257.46335,1.84928
257.22228,1.86559
256.98121,1.86523
256.74014,1.86965
256.49907,1.88958
256.25800,1.90120
256.01693,1.87458
255.77586,1.82381
255.53479,1.78283
255.29372,1.76299
255.05265,1.75124
254.81158,1.73410
254.57051,1.71409
254.32944,1.69792
254.08837,1.68433
253.84730,1.66914
253.60623,1.65329
253.36516,1.64222
253.12408,1.63917
252.88301,1.63993
252.64194,1.63936
252.40087,1.63829
252.15980,1.63828
251.91873,1.63710
251.67766,1.62988
251.43659,1.61398
251.19552,1.59462
250.95445,1.58188
250.71338,1.57918
250.47231,1.58059
250.23124,1.58324
249.99017,1.58644
249.74910,1.58190
249.50803,1.56679
249.26696,1.55399
249.02589,1.55584
248.78481,1.56615
248.54374,1.56467
248.30267,1.54325
248.06160,1.51973
247.82053,1.51631
247.57946,1.53528
247.33839,1.56101
247.09732,1.57771
246.85625,1.58037
246.61518,1.57486
246.37411,1.57223
246.13304,1.57960
245.89197,1.59288
245.65090,1.60116
245.40983,1.60455
245.16876,1.61749
244.92769,1.65205
244.68661,1.70281
244.44554,1.74880
244.20447,1.77681
243.96340,1.79688
243.72233,1.82871
243.48126,1.87495
243.24019,1.90260
242.99912,1.88319
242.75805,1.84554
242.51698,1.80740
242.27591,1.75536
242.03484,1.69007
241.79377,1.62642
241.55270,1.57199
241.31163,1.52314
241.07056,1.47346
240.82949,1.42260
240.58842,1.37620
240.34734,1.33686
240.10627,1.30038
239.86520,1.26281
239.62413,1.22640
239.38306,1.19510
239.14199,1.16824
238.90092,1.14196
238.65985,1.11484
238.41878,1.08953
238.17771,1.06946
237.93664,1.05531
237.69557,1.04449
237.45450,1.03333
237.21343,1.01988
236.97236,1.00486
236.73129,0.98966
236.49022,0.97469
236.24915,0.96084
236.00807,0.95015
235.76700,0.94250
235.52593,0.93444
235.28486,0.92396
235.04379,0.91409
234.80272,0.90903
234.56165,0.90860
234.32058,0.90756
234.07951,0.90095
233.83844,0.89016
233.59737,0.88149
233.35630,0.87854
233.11523,0.87895
232.87416,0.87929
232.63309,0.87962
232.39202,0.88060
232.15095,0.87968
231.90988,0.87386
231.66880,0.86487
231.42773,0.85779
231.18666,0.85474
230.94559,0.85272
230.70452,0.84863
230.46345,0.84394
230.22238,0.84198
229.98131,0.84225
229.74024,0.84096
229.49917,0.83687
229.25810,0.83256
229.01703,0.82972
228.77596,0.82752
228.53489,0.82655
228.29382,0.82945
228.05275,0.83577
227.81168,0.84049
227.57061,0.84013
227.32953,0.83661
227.08846,0.83303
226.84739,0.82978
226.60632,0.82553
226.36525,0.81930
226.12418,0.81172
225.88311,0.80520
225.64204,0.80160
225.40097,0.80036
225.15990,0.80055
224.91883,0.80326
224.67776,0.80899
224.43669,0.81461
224.19562,0.81646
223.95455,0.81541
223.71348,0.81486
223.47241,0.81572
223.23134,0.81647
222.99026,0.81679
222.74919,0.81795
222.50812,0.82100
222.26705,0.82612
222.02598,0.83211
221.78491,0.83693
221.54384,0.84019
221.30277,0.84369
221.06170,0.84880
220.82063,0.85524
220.57956,0.86258
220.33849,0.87066
220.09742,0.87869
219.85635,0.88553
219.61528,0.89114
219.37421,0.89706
219.13314,0.90454
218.89207,0.91299
218.65099,0.92125
218.40992,0.92987
218.16885,0.94051
217.92778,0.95423
217.68671,0.97105
217.44564,0.98913
217.20457,1.00380
216.96350,1.01136
216.72243,1.01436
216.48136,1.01937
216.24029,1.02991
215.99922,1.04393
215.75815,1.05696
215.51708,1.06668
215.27601,1.07520
215.03494,1.08618
214.79387,1.10002
214.55280,1.11349
214.31172,1.12401
214.07065,1.13202
213.82958,1.13947
213.58851,1.14818
213.34744,1.15930
213.10637,1.17204
212.86530,1.18321
212.62423,1.19004
212.38316,1.19345
212.14209,1.19543
211.90102,1.19478
211.65995,1.18940
211.41888,1.18189
211.17781,1.17841
210.93674,1.18212
210.69567,1.19104
210.45460,1.20115
210.21353,1.20939
209.97245,1.21457
209.73138,1.21653
209.49031,1.21512
209.24924,1.21181
209.00817,1.21037
208.76710,1.21217
208.52603,1.21221
208.28496,1.20503
208.04389,1.19284
207.80282,1.18093
207.56175,1.16984
207.32068,1.15782
207.07961,1.14558
206.83854,1.13437
206.59747,1.12379
206.35640,1.11439
206.11533,1.10767
205.87426,1.10305
205.63318,1.09849
205.39211,1.09188
205.15104,1.08100
204.90997,1.06585
204.66890,1.04986
204.42783,1.03591
204.18676,1.02370
203.94569,1.01193
203.70462,1.00064
203.46355,0.99044
203.22248,0.98080
202.98141,0.97003
202.74034,0.95675
202.49927,0.94142
202.25820,0.92641
202.01713,0.91381
201.77606,0.90325
201.53499,0.89183
201.29391,0.87716
201.05284,0.86076
200.81177,0.84648
200.57070,0.83618
200.32963,0.82850
200.08856,0.82088
199.84749,0.81157
199.60642,0.80027
199.36535,0.78828
199.12428,0.77782
198.88321,0.77028
198.64214,0.76479
198.40107,0.75830
198.16000,0.74820
197.91893,0.73585
197.67786,0.72545
197.43679,0.71897
197.19572,0.71420
196.95464,0.70810
196.71357,0.70035
196.47250,0.69268
196.23143,0.68620
195.99036,0.68053
195.74929,0.67439
195.50822,0.66682
195.26715,0.65846
195.02608,0.65135
194.78501,0.64672
194.54394,0.64354
194.30287,0.63985
194.06180,0.63482
193.82073,0.62912
193.57966,0.62396
193.33859,0.62015
193.09752,0.61734
192.85645,0.61400
192.61537,0.60880
192.37430,0.60235
192.13323,0.59678
191.89216,0.59339
191.65109,0.59122
191.41002,0.58830
191.16895,0.58384
190.92788,0.57880
190.68681,0.57462
190.44574,0.57217
190.20467,0.57151
189.96360,0.57154
189.72253,0.57054
189.48146,0.56802
189.24039,0.56550
188.99932,0.56430
188.75825,0.56356
188.51718,0.56213
188.27610,0.56077
188.03503,0.56047
187.79396,0.55999
187.55289,0.55730
187.31182,0.55310
187.07075,0.55057
186.82968,0.55140
186.58861,0.55325
186.34754,0.55220
186.10647,0.54756
185.86540,0.54284
185.62433,0.54133
185.38326,0.54260
185.14219,0.54425
184.90112,0.54547
184.66005,0.54759
184.41898,0.55122
184.17791,0.55473
183.93683,0.55675
183.69576,0.55834
183.45469,0.56067
183.21362,0.56271
182.97255,0.56348
182.73148,0.56382
182.49041,0.56403
182.24934,0.56300
182.00827,0.56114
181.76720,0.56077
181.52613,0.56238
181.28506,0.56386
181.04399,0.56424
180.80292,0.56490
180.56185,0.56658
180.32078,0.56837
180.07971,0.57029
179.83864,0.57376
179.59756,0.57911
179.35649,0.58529
179.11542,0.59166
178.87435,0.59827
178.63328,0.60495
178.39221,0.61157
178.15114,0.61863
177.91007,0.62690
177.66900,0.63692
177.42793,0.64814
177.18686,0.65893
176.94579,0.66900
176.70472,0.68061
176.46365,0.69556
176.22258,0.71261
175.98151,0.72915
175.74044,0.74387
175.49937,0.75703
175.25829,0.76988
175.01722,0.78404
174.77615,0.80009
174.53508,0.81674
174.29401,0.83219
174.05294,0.84598
173.81187,0.85917
173.57080,0.87300
173.32973,0.88718
173.08866,0.89996
172.84759,0.91034
172.60652,0.91936
172.36545,0.92803
172.12438,0.93537
171.88331,0.94040
171.64224,0.94422
171.40117,0.94760
171.16010,0.94842
170.91902,0.94412
170.67795,0.93584
170.43688,0.92718
170.19581,0.91971
169.95474,0.91238
169.71367,0.90428
169.47260,0.89557
169.23153,0.88668
168.99046,0.87866
168.74939,0.87346
168.50832,0.87266
168.26725,0.87595
168.02618,0.88075
167.78511,0.88353
167.54404,0.88286
167.30297,0.88093
167.06190,0.88027
166.82083,0.88003
166.57975,0.87818
166.33868,0.87580
166.09761,0.87603
165.85654,0.87994
165.61547,0.88610
165.37440,0.89321
165.13333,0.90102
164.89226,0.90940
164.65119,0.91792
164.41012,0.92612
164.16905,0.93356
163.92798,0.94005
163.68691,0.94602
163.44584,0.95228
163.20477,0.95945
162.96370,0.96775
162.72263,0.97712
162.48156,0.98682
162.24048,0.99455
161.99941,0.99796
161.75834,0.99813
161.51727,0.99909
161.27620,1.00204
161.03513,1.00283
160.79406,0.99742
160.55299,0.98816
160.31192,0.98147
160.07085,0.98084
159.82978,0.98473
159.58871,0.98964
159.34764,0.99254
159.10657,0.99049
158.86550,0.98131
158.62443,0.96657
158.38336,0.95195
158.14229,0.94250
157.90121,0.93811
157.66014,0.93532
157.41907,0.93296
157.17800,0.93295
156.93693,0.93558
156.69586,0.93752
156.45479,0.93475
156.21372,0.92593
155.97265,0.91321
155.73158,0.90070
155.49051,0.89126
155.24944,0.88438
155.00837,0.87753
154.76730,0.86871
154.52623,0.85746
154.28516,0.84496
154.04409,0.83320
153.80302,0.82284
153.56194,0.81244
153.32087,0.80080
153.07980,0.78873
152.83873,0.77694
152.59766,0.76421
152.35659,0.74899
152.11552,0.73156
151.87445,0.71391
151.63338,0.69825
151.39231,0.68600
151.15124,0.67714
150.91017,0.66983
150.66910,0.66083
150.42803,0.64753
150.18696,0.63072
149.94589,0.61442
149.70482,0.60209
149.46375,0.59369
149.22267,0.58632
148.98160,0.57782
148.74053,0.56902
148.49946,0.56204
148.25839,0.55772
148.01732,0.55535
147.77625,0.55353
147.53518,0.55074
147.29411,0.54654
147.05304,0.54263
146.81197,0.54139
146.57090,0.54307
146.32983,0.54540
146.08876,0.54664
145.84769,0.54778
145.60662,0.55111
145.36555,0.55739
145.12448,0.56506
144.88340,0.57188
144.64233,0.57650
144.40126,0.57884
144.16019,0.57986
143.91912,0.58091
143.67805,0.58217
143.43698,0.58215
143.19591,0.57948
142.95484,0.57454
142.71377,0.56839
142.47270,0.56120
142.23163,0.55264
141.99056,0.54296
141.74949,0.53317
141.50842,0.52461
141.26735,0.51804
141.02628,0.51296
140.78521,0.50839
140.54413,0.50433
140.30306,0.50183
140.06199,0.50144
139.82092,0.50241
139.57985,0.50394
139.33878,0.50659
139.09771,0.51105
138.85664,0.51620
138.61557,0.52025
138.37450,0.52365
138.13343,0.52884
137.89236,0.53716
137.65129,0.54816
137.41022,0.56120
137.16915,0.57577
136.92808,0.59099
136.68701,0.60675
136.44594,0.62414
136.20486,0.64330
135.96379,0.66269
135.72272,0.68190
135.48165,0.70310
135.24058,0.72800
134.99951,0.75577
134.75844,0.78525
134.51737,0.81649
134.27630,0.84889
134.03523,0.88076
133.79416,0.91161
133.55309,0.94190
133.31202,0.97087
133.07095,0.99779
132.82988,1.02336
132.58881,1.04747
132.34774,1.06885
132.10667,1.08777
131.86559,1.10520
131.62452,1.11975
131.38345,1.12835
131.14238,1.12900
130.90131,1.12196
130.66024,1.10957
130.41917,1.09424
130.17810,1.07588
129.93703,1.05358
129.69596,1.02798
129.45489,0.99981
129.21382,0.96854
128.97275,0.93401
128.73168,0.89741
128.49061,0.86036
128.24954,0.82460
128.00847,0.79181
127.76740,0.76272
127.52632,0.73686
127.28525,0.71299
127.04418,0.68970
126.80311,0.66628
126.56204,0.64335
126.32097,0.62217
126.07990,0.60328
125.83883,0.58635
125.59776,0.57098
125.35669,0.55701
125.11562,0.54426
124.87455,0.53240
124.63348,0.52148
124.39241,0.51183
124.15134,0.50314
123.91027,0.49443
123.66920,0.48570
123.42812,0.47820
123.18705,0.47238
122.94598,0.46707
122.70491,0.46174
122.46384,0.45747
122.22277,0.45469
121.98170,0.45234
121.74063,0.44994
121.49956,0.44838
121.25849,0.44828
121.01742,0.44967
120.77635,0.45319
120.53528,0.45997
120.29421,0.47029
120.05314,0.48306
119.81207,0.49702
119.57100,0.51233
119.32993,0.53055
119.08885,0.55267
118.84778,0.57792
118.60671,0.60507
118.36564,0.63389
118.12457,0.66453
117.88350,0.69588
117.64243,0.72493
117.40136,0.74874
117.16029,0.76670
116.91922,0.77971
116.67815,0.78785
116.43708,0.79049
116.19601,0.78748
115.95494,0.77883
115.71387,0.76504
115.47280,0.74874
115.23173,0.73357
114.99066,0.72113
114.74958,0.71011
114.50851,0.69894
114.26744,0.68867
114.02637,0.68250
113.78530,0.68180
113.54423,0.68327
113.30316,0.68184
113.06209,0.67652
112.82102,0.67114
112.57995,0.66891
112.33888,0.66887
112.09781,0.66882
111.85674,0.66916
111.61567,0.67163
111.37460,0.67624
111.13353,0.68165
110.89246,0.68754
110.65139,0.69445
110.41031,0.70133
110.16924,0.70524
109.92817,0.70386
109.68710,0.69731
109.44603,0.68639
109.20496,0.67039
108.96389,0.64852
108.72282,0.62263
108.48175,0.59704
108.24068,0.57596
107.99961,0.56123
107.75854,0.55141
107.51747,0.54273
107.27640,0.53198
107.03533,0.51863
106.79426,0.50358
106.55319,0.48709
106.31212,0.46954
106.07104,0.45307
105.82997,0.43990
105.58890,0.42961
105.34783,0.42069
105.10676,0.41348
104.86569,0.40857
104.62462,0.40382
104.38355,0.39571
104.14248,0.38325
103.90141,0.36863
103.66034,0.35518
103.41927,0.34569
103.17820,0.34146
102.93713,0.34127
102.69606,0.34169
102.45499,0.33934
102.21392,0.33304
101.97285,0.32406
101.73177,0.31470
101.49070,0.30710
101.24963,0.30279
101.00856,0.30171
100.76749,0.30116
100.52642,0.29741
100.28535,0.28958
100.04428,0.28071
99.80321,0.27470
99.56214,0.27318
99.32107,0.27465
99.08000,0.27548
98.83893,0.27312
98.59786,0.26886
98.35679,0.26597
98.11572,0.26585
97.87465,0.26760
97.63358,0.26975
97.39250,0.27108
97.15143,0.27118
96.91036,0.27164
96.66929,0.27498
96.42822,0.28151
96.18715,0.28795
95.94608,0.29086
95.70501,0.29143
95.46394,0.29492
95.22287,0.30441
94.98180,0.31594
94.74073,0.32186
94.49966,0.32020
94.25859,0.31724
94.01752,0.31951
93.77645,0.32604
93.53538,0.33011
93.29431,0.32882
93.05323,0.32726
92.81216,0.32968
92.57109,0.33187
92.33002,0.32798
92.08895,0.32210
91.84788,0.32286
91.60681,0.33064
91.36574,0.33818
91.12467,0.34332
90.88360,0.35245
90.64253,0.36969
90.40146,0.39308
90.16039,0.42191
89.91932,0.45772
89.67825,0.49797
89.43718,0.53861
89.19611,0.58102
88.95504,0.62615
88.71396,0.66735
88.47289,0.69666
88.23182,0.71020
87.99075,0.70570
87.74968,0.68541
87.50861,0.65595
87.26754,0.62115
87.02647,0.58230
86.78540,0.54257
86.54433,0.50550
86.30326,0.47252
86.06219,0.44352
85.82112,0.41770
85.58005,0.39382
85.33898,0.37096
85.09791,0.34873
84.85684,0.32739
84.61577,0.30811
84.37469,0.29248
84.13362,0.28127
83.89255,0.27369
83.65148,0.26757
83.41041,0.26090
83.16934,0.25361
82.92827,0.24679
82.68720,0.24084
82.44613,0.23558
82.20506,0.23130
81.96399,0.22799
81.72292,0.22448
81.48185,0.21967
81.24078,0.21394
80.99971,0.20898
80.75864,0.20610
80.51757,0.20483
80.27650,0.20324
80.03542,0.20003
79.79435,0.19597
79.55328,0.19296
79.31221,0.19214
79.07114,0.19291
78.83007,0.19369
78.58900,0.19366
78.34793,0.19332
78.10686,0.19288
77.86579,0.19126
77.62472,0.18805
77.38365,0.18459
77.14258,0.18203
76.90151,0.17991
76.66044,0.17756
76.41937,0.17538
76.17830,0.17388
75.93723,0.17297
75.69615,0.17238
75.45508,0.17131
75.21401,0.16805
74.97294,0.16208
74.73187,0.15615
74.49080,0.15435
74.24973,0.15796
74.00866,0.16403
73.76759,0.16816
73.52652,0.16798
73.28545,0.16397
73.04438,0.15855
72.80331,0.15512
72.56224,0.15659
72.32117,0.16313
72.08010,0.17134
71.83903,0.17685
71.59796,0.17778
71.35688,0.17539
71.11581,0.17188
70.87474,0.16887
70.63367,0.16799
70.39260,0.17110
70.15153,0.17931
69.91046,0.19244
69.66939,0.20942
69.42832,0.22810
69.18725,0.24455
68.94618,0.25386
68.70511,0.25276
68.46404,0.24209
68.22297,0.22605
67.98190,0.20907
67.74083,0.19401
67.49976,0.18220
67.25869,0.17392
67.01761,0.16837
66.77654,0.16405
66.53547,0.15959
66.29440,0.15452
66.05333,0.14957
65.81226,0.14624
65.57119,0.14586
65.33012,0.14898
65.08905,0.15555
64.84798,0.16516
64.60691,0.17673
64.36584,0.18812
64.12477,0.19704
63.88370,0.20265
63.64263,0.20559
63.40156,0.20564
63.16049,0.20131
62.91942,0.19237
62.67834,0.18112
62.43727,0.17046
62.19620,0.16176
61.95513,0.15464
61.71406,0.14782
61.47299,0.14028
61.23192,0.13206
60.99085,0.12422
60.74978,0.11850
60.50871,0.11656
60.26764,0.11838
60.02657,0.12160
59.78550,0.12366
59.54443,0.12442
59.30336,0.12566
59.06229,0.12854
58.82122,0.13294
58.58015,0.13899
58.33907,0.14744
58.09800,0.15835
57.85693,0.17044
57.61586,0.18172
57.37479,0.18991
57.13372,0.19238
56.89265,0.18680
56.65158,0.17297
56.41051,0.15428
56.16944,0.13627
55.92837,0.12301
55.68730,0.11573
55.44623,0.11425
55.20516,0.11792
54.96409,0.12589
54.72302,0.13783
54.48195,0.15377
54.24088,0.17129
53.99980,0.18415
53.75873,0.18564
53.51766,0.17391
53.27659,0.15446
53.03552,0.13668
52.79445,0.12631
52.55338,0.12412
52.31231,0.13210
52.07124,0.15421
51.83017,0.18519
51.58910,0.20129
51.34803,0.18161
51.10696,0.14032
50.86589,0.10464
50.62482,0.09042
50.38375,0.10255
50.14268,0.13736
49.90161,0.17622
49.66053,0.18541
49.41946,0.15757
49.17839,0.12571
48.93732,0.11681
48.69625,0.13676
48.45518,0.16906
48.21411,0.17663
47.97304,0.14911
47.73197,0.12348
47.49090,0.12787
47.24983,0.15674
47.00876,0.16617
46.76769,0.13301
46.52662,0.10416
46.28555,0.11127
46.04448,0.13505
45.80341,0.13168
45.56234,0.10913
45.32126,0.10625
45.08019,0.12132
44.83912,0.12610
44.59805,0.11881
44.35698,0.11893
44.11591,0.12641
43.87484,0.13098
43.63377,0.13387
43.39270,0.13709
43.15163,0.13809
42.91056,0.13920
42.66949,0.14399
42.42842,0.15145
42.18735,0.15826
41.94628,0.15882
41.70521,0.15076
41.46414,0.14142
41.22307,0.13781
40.98199,0.13842
40.74092,0.14068
40.49985,0.14614
40.25878,0.15436
40.01771,0.16036
39.77664,0.15943
39.53557,0.15131
39.29450,0.14215
39.05343,0.14099
38.81236,0.15263
38.57129,0.17490
38.33022,0.19892
38.08915,0.21321
37.84808,0.21595
37.60701,0.21591
37.36594,0.21580
37.12487,0.21011
36.88380,0.19962
36.64272,0.19100
36.40165,0.18542
36.16058,0.17862
35.91951,0.16969
35.67844,0.16466
35.43737,0.16940
35.19630,0.18226
34.95523,0.19414
34.71416,0.19502
34.47309,0.18256
34.23202,0.16319
33.99095,0.14684
33.74988,0.14233
33.50881,0.15247
33.26774,0.16745
33.02667,0.17215
32.78560,0.16504
32.54453,0.15638
32.30345,0.15157
32.06238,0.14860
31.82131,0.14503
31.58024,0.14029
31.33917,0.13588
31.09810,0.13385
30.85703,0.13151
30.61596,0.12300
30.37489,0.10881
30.13382,0.09318
29.89275,0.07457
29.65168,0.05211
29.41061,0.03179
29.16954,0.01818
28.92847,0.00687
28.68740,-0.01097
28.44633,-0.03500
28.20526,-0.05116
27.96418,-0.04877
27.72311,-0.03652
27.48204,-0.03091
27.24097,-0.03812
26.99990,-0.05289
26.75883,-0.06693
26.51776,-0.07817
26.27669,-0.09178
26.03562,-0.10921
25.79455,-0.12192
25.55348,-0.12359
25.31241,-0.11939
25.07134,-0.11745
24.83027,-0.12074
24.58920,-0.12743
24.34813,-0.13820
24.10706,-0.16159
23.86599,-0.19918
23.62491,-0.23336
23.38384,-0.24784
23.14277,-0.24806
22.90170,-0.24661
22.66063,-0.24344
22.41956,-0.23170
22.17849,-0.21193
21.93742,-0.19332
21.69635,-0.18735
21.45528,-0.19958
21.21421,-0.22152
20.97314,-0.24144
20.73207,-0.25306
20.49100,-0.25214
20.24993,-0.24921
20.00886,-0.25731
19.76779,-0.27049
19.52672,-0.27346
19.28564,-0.26286
19.04457,-0.25321
18.80350,-0.26096
18.56243,-0.28815
18.32136,-0.32229
18.08029,-0.34955
17.83922,-0.36228
17.59815,-0.35501
17.35708,-0.33733
17.11601,-0.33062
16.87494,-0.31661
16.63387,-0.28008
16.39280,-0.25400
16.15173,-0.25886
15.91066,-0.28566
15.66959,-0.31989
15.42852,-0.34892
15.18745,-0.35416
14.94637,-0.32692
14.70530,-0.29100
14.46423,-0.27447
14.22316,-0.27942
13.98209,-0.28753
13.74102,-0.29201
13.49995,-0.30345
13.25888,-0.32473
13.01781,-0.35041
12.77674,-0.37938
12.53567,-0.40064
12.29460,-0.39092
12.05353,-0.36003
11.81246,-0.33132
11.57139,-0.31772
11.33032,-0.31684
11.08925,-0.31909
10.84818,-0.32089
10.60710,-0.32704
10.36603,-0.34012
10.12496,-0.35498
9.88389,-0.36562
9.64282,-0.36389
9.40175,-0.34039
9.16068,-0.31193
8.91961,-0.30618
8.67854,-0.33676
8.43747,-0.38924
8.19640,-0.41436
7.95533,-0.42093
7.71426,-0.40948
7.47319,-0.38679
7.23212,-0.37051
6.99105,-0.35710
6.74998,-0.34540
6.50891,-0.34098
6.26783,-0.34840
6.02676,-0.36690
5.78569,-0.37960
5.54462,-0.36862
5.30355,-0.33711
5.06248,-0.30816
4.82141,-0.30047
4.58034,-0.31398
4.33927,-0.33308
4.09820,-0.34002
3.85713,-0.33783
3.61606,-0.33895
3.37499,-0.33591
3.13392,-0.32306
2.89285,-0.31513
2.65178,-0.31852
2.41071,-0.32868
2.16964,-0.34279
1.92856,-0.35444
1.68749,-0.35922
1.44642,-0.36450
1.20535,-0.36706
0.96428,-0.36585
0.72321,-0.38459
0.48214,-0.40681
0.24107,-0.39378
-0.00000,-0.28970
