399.69498,1.90204
399.45391,1.92739
399.21284,1.96618
398.97177,2.03095
398.73070,2.08437
398.48963,2.10814
398.24856,2.11162
398.00749,2.10655
397.76642,2.14582
397.52535,2.22529
397.28428,2.21107
397.04321,2.19460
396.80214,2.14360
396.56107,2.08661
396.32000,2.09230
396.07892,2.10674
395.83785,2.04534
395.59678,1.99029
395.35571,1.97756
395.11464,2.02726
394.87357,2.04924
394.63250,1.97789
394.39143,1.93301
394.15036,1.97054
393.90929,2.05793
393.66822,2.13688
393.42715,2.24018
393.18608,2.22812
392.94501,2.16856
392.70394,2.29324
392.46287,2.33232
392.22180,2.30554
391.98073,2.28225
391.73965,2.25124
391.49858,2.32560
391.25751,2.54556
391.01644,2.48256
390.77537,2.22300
390.53430,2.07828
390.29323,2.07323
390.05216,2.12930
389.81109,2.18104
389.57002,2.32997
389.32895,2.59576
389.08788,2.41015
388.84681,2.28870
388.60574,2.19371
388.36467,2.04432
388.12360,2.02777
387.88253,2.11170
387.64146,2.01149
387.40038,1.90016
387.15931,1.89896
386.91824,1.97390
386.67717,2.00032
386.43610,1.94829
386.19503,1.90094
385.95396,1.91649
385.71289,1.95873
385.47182,2.06180
385.23075,2.17741
384.98968,2.11921
384.74861,2.02617
384.50754,2.02518
384.26647,2.26448
384.02540,2.77549
383.78433,2.10610
383.54326,1.82175
383.30219,1.82248
383.06111,1.91226
382.82004,1.98155
382.57897,1.94033
382.33790,1.89118
382.09683,1.87339
381.85576,1.83937
381.61469,1.83859
381.37362,1.86088
381.13255,1.85005
380.89148,1.81687
380.65041,1.79436
380.40934,1.86938
380.16827,2.04537
379.92720,2.05339
379.68613,1.97716
379.44506,1.87260
379.20399,1.87130
378.96292,2.02224
378.72184,2.09942
378.48077,1.99901
378.23970,1.93800
377.99863,1.97932
377.75756,1.99462
377.51649,1.88649
377.27542,1.86933
377.03435,1.95727
376.79328,2.10030
376.55221,1.99146
376.31114,1.87490
376.07007,1.88844
375.82900,1.97537
375.58793,2.09040
375.34686,2.16183
375.10579,2.10140
374.86472,1.96223
374.62365,1.91014
374.38257,1.98469
374.14150,2.16968
373.90043,2.16413
373.65936,1.99413
373.41829,1.94531
373.17722,1.92911
372.93615,1.81580
372.69508,1.75178
372.45401,1.79055
372.21294,1.89255
371.97187,1.98887
371.73080,2.00372
371.48973,1.93896
371.24866,1.86151
371.00759,1.78249
370.76652,1.71597
370.52545,1.67840
370.28437,1.64364
370.04330,1.60903
369.80223,1.61976
369.56116,1.68436
369.32009,1.74030
369.07902,1.73859
368.83795,1.70070
368.59688,1.67299
368.35581,1.67383
368.11474,1.69632
367.87367,1.73147
367.63260,1.75416
367.39153,1.75034
367.15046,1.75294
366.90939,1.76004
366.66832,1.73355
366.42725,1.67578
366.18618,1.61931
365.94510,1.59352
365.70403,1.59126
365.46296,1.58222
365.22189,1.56078
364.98082,1.54820
364.73975,1.55382
364.49868,1.56849
364.25761,1.58303
364.01654,1.59450
363.77547,1.59266
363.53440,1.57303
363.29333,1.55584
363.05226,1.56089
362.81119,1.57894
362.57012,1.58052
362.32905,1.56037
362.08798,1.54713
361.84691,1.56123
361.60583,1.59828
361.36476,1.63458
361.12369,1.64254
360.88262,1.61628
360.64155,1.57055
360.40048,1.52274
360.15941,1.48796
359.91834,1.48276
359.67727,1.50964
359.43620,1.54719
359.19513,1.57074
358.95406,1.56901
358.71299,1.54957
358.47192,1.53898
358.23085,1.55346
357.98978,1.58776
357.74871,1.62498
357.50764,1.64780
357.26656,1.64966
357.02549,1.62899
356.78442,1.58594
356.54335,1.54007
356.30228,1.51502
356.06121,1.51145
355.82014,1.51744
355.57907,1.52849
355.33800,1.54201
355.09693,1.54684
354.85586,1.54279
354.61479,1.53247
354.37372,1.50185
354.13265,1.45475
353.89158,1.42183
353.65051,1.42059
353.40944,1.43848
353.16837,1.46135
352.92729,1.49380
352.68622,1.53578
352.44515,1.57407
352.20408,1.59614
351.96301,1.59029
351.72194,1.55722
351.48087,1.50908
351.23980,1.47120
350.99873,1.46506
350.75766,1.48742
350.51659,1.51810
350.27552,1.54073
350.03445,1.54700
349.79338,1.54137
349.55231,1.53455
349.31124,1.53193
349.07017,1.53632
348.82910,1.54245
348.58802,1.53808
348.34695,1.51850
348.10588,1.50230
347.86481,1.51248
347.62374,1.55138
347.38267,1.60092
347.14160,1.63110
346.90053,1.62201
346.65946,1.59735
346.41839,1.58274
346.17732,1.57304
345.93625,1.56917
345.69518,1.58034
345.45411,1.59619
345.21304,1.59496
344.97197,1.58425
344.73090,1.57845
344.48983,1.57362
344.24875,1.56498
344.00768,1.55400
343.76661,1.55768
343.52554,1.60035
343.28447,1.67023
343.04340,1.70520
342.80233,1.69083
342.56126,1.66218
342.32019,1.63465
342.07912,1.61745
341.83805,1.59488
341.59698,1.55914
341.35591,1.53556
341.11484,1.55341
340.87377,1.62255
340.63270,1.71700
340.39163,1.76190
340.15056,1.73118
339.90948,1.69322
339.66841,1.67036
339.42734,1.66339
339.18627,1.68341
338.94520,1.72767
338.70413,1.77407
338.46306,1.80535
338.22199,1.83302
337.98092,1.85894
337.73985,1.87492
337.49878,1.90163
337.25771,1.94290
337.01664,1.97246
336.77557,1.97973
336.53450,2.01086
336.29343,2.05512
336.05236,2.15525
335.81129,2.21921
335.57021,2.04617
335.32914,1.88336
335.08807,1.79590
334.84700,1.75157
334.60593,1.73816
334.36486,1.75735
334.12379,1.77740
333.88272,1.78768
333.64165,1.83055
333.40058,1.86363
333.15951,1.80769
332.91844,1.74171
332.67737,1.72621
332.43630,1.76249
332.19523,1.80345
331.95416,1.76656
331.71309,1.70041
331.47202,1.68437
331.23094,1.70315
330.98987,1.68901
330.74880,1.64192
330.50773,1.61182
330.26666,1.59885
330.02559,1.58895
329.78452,1.58392
329.54345,1.56965
329.30238,1.54618
329.06131,1.53184
328.82024,1.53523
328.57917,1.55687
328.33810,1.58808
328.09703,1.62991
327.85596,1.69957
327.61489,1.79617
327.37382,1.86410
327.13275,1.85470
326.89167,1.81036
326.65060,1.76949
326.40953,1.72994
326.16846,1.68989
325.92739,1.67733
325.68632,1.71704
325.44525,1.78061
325.20418,1.78983
324.96311,1.75090
324.72204,1.75065
324.48097,1.80829
324.23990,1.85115
323.99883,1.82424
323.75776,1.75262
323.51669,1.66941
323.27562,1.60912
323.03455,1.57674
322.79348,1.57633
322.55240,1.62312
322.31133,1.72304
322.07026,1.86661
321.82919,1.97622
321.58812,2.00908
321.34705,1.99185
321.10598,2.00419
320.86491,1.94058
320.62384,1.81649
320.38277,1.77794
320.14170,1.85833
319.90063,2.05960
319.65956,2.30109
319.41849,2.23534
319.17742,2.02774
318.93635,1.88787
318.69528,1.87165
318.45421,1.93457
318.21313,1.91500
317.97206,1.94433
317.73099,2.06549
317.48992,1.91670
317.24885,1.79602
317.00778,1.78986
316.76671,1.85376
316.52564,1.92152
316.28457,1.94575
316.04350,1.91893
315.80243,1.87476
315.56136,1.87432
315.32029,1.90874
315.07922,1.93669
314.83815,1.97526
314.59708,1.98363
314.35601,1.94975
314.11494,1.81487
313.87386,1.77848
313.63279,1.89144
313.39172,2.07893
313.15065,2.12761
312.90958,2.02711
312.66851,1.92492
312.42744,1.86821
312.18637,1.85928
311.94530,1.89077
311.70423,1.95717
311.46316,2.03449
311.22209,2.07148
310.98102,2.24703
310.73995,2.38400
310.49888,2.14625
310.25781,1.94232
310.01674,1.89966
309.77567,1.96560
309.53459,2.03664
309.29352,2.01676
309.05245,2.02521
308.81138,2.14764
308.57031,2.18964
308.32924,2.00930
308.08817,1.84144
307.84710,1.73781
307.60603,1.68430
307.36496,1.67178
307.12389,1.69641
306.88282,1.77165
306.64175,1.86934
306.40068,1.88412
306.15961,1.79259
305.91854,1.69631
305.67747,1.66033
305.43640,1.66289
305.19532,1.65934
304.95425,1.63429
304.71318,1.59550
304.47211,1.56142
304.23104,1.54352
303.98997,1.54190
303.74890,1.54963
303.50783,1.55031
303.26676,1.52899
303.02569,1.49161
302.78462,1.45903
302.54355,1.43944
302.30248,1.42458
302.06141,1.40698
301.82034,1.39136
301.57927,1.39005
301.33820,1.40447
301.09713,1.41886
300.85605,1.41546
300.61498,1.39034
300.37391,1.35809
300.13284,1.33938
299.89177,1.33928
299.65070,1.34289
299.40963,1.33291
299.16856,1.31118
298.92749,1.29793
298.68642,1.30338
298.44535,1.31666
298.20428,1.32678
297.96321,1.33341
297.72214,1.33531
297.48107,1.32602
297.24000,1.30212
296.99893,1.26954
296.75786,1.23903
296.51678,1.21482
296.27571,1.19938
296.03464,1.19891
295.79357,1.21379
295.55250,1.23396
295.31143,1.24818
295.07036,1.24986
294.82929,1.24069
294.58822,1.22924
294.34715,1.22191
294.10608,1.22042
293.86501,1.22206
293.62394,1.21956
293.38287,1.20828
293.14180,1.19480
292.90073,1.19008
292.65966,1.19392
292.41859,1.19214
292.17751,1.17693
291.93644,1.15983
291.69537,1.15328
291.45430,1.15305
291.21323,1.14823
290.97216,1.13868
290.73109,1.13224
290.49002,1.13193
290.24895,1.13376
290.00788,1.13353
289.76681,1.13233
289.52574,1.13371
289.28467,1.13597
289.04360,1.13260
288.80253,1.12327
288.56146,1.11760
288.32039,1.12411
288.07932,1.13918
287.83824,1.14891
287.59717,1.14397
287.35610,1.12935
287.11503,1.11484
286.87396,1.10421
286.63289,1.09731
286.39182,1.09499
286.15075,1.09792
285.90968,1.10426
285.66861,1.11111
285.42754,1.11509
285.18647,1.11337
284.94540,1.10822
284.70433,1.10537
284.46326,1.10652
284.22219,1.10806
283.98112,1.10715
283.74005,1.10494
283.49897,1.10302
283.25790,1.10150
283.01683,1.10009
282.77576,1.09656
282.53469,1.08863
282.29362,1.08062
282.05255,1.07933
281.81148,1.08363
281.57041,1.08637
281.32934,1.08491
281.08827,1.08387
280.84720,1.08606
280.60613,1.08783
280.36506,1.08608
280.12399,1.08418
279.88292,1.08774
279.64185,1.09685
279.40078,1.10379
279.15970,1.09994
278.91863,1.08688
278.67756,1.07528
278.43649,1.07187
278.19542,1.07292
277.95435,1.07155
277.71328,1.06706
277.47221,1.06334
277.23114,1.06222
276.99007,1.06205
276.74900,1.06088
276.50793,1.05957
276.26686,1.06145
276.02579,1.06706
275.78472,1.07119
275.54365,1.06894
275.30258,1.06352
275.06151,1.06295
274.82043,1.07080
274.57936,1.08178
274.33829,1.08643
274.09722,1.08009
273.85615,1.06731
273.61508,1.05629
273.37401,1.05100
273.13294,1.05041
272.89187,1.05273
272.65080,1.05714
272.40973,1.06206
272.16866,1.06631
271.92759,1.06952
271.68652,1.07042
271.44545,1.06811
271.20438,1.06614
270.96331,1.07093
270.72224,1.08356
270.48116,1.09491
270.24009,1.09429
269.99902,1.08443
269.75795,1.07829
269.51688,1.08200
269.27581,1.08983
269.03474,1.09414
268.79367,1.09428
268.55260,1.09430
268.31153,1.09829
268.07046,1.10885
267.82939,1.12381
267.58832,1.13581
267.34725,1.13988
267.10618,1.13761
266.86511,1.13225
266.62404,1.12616
266.38297,1.12214
266.14189,1.12187
265.90082,1.12478
265.65975,1.13067
265.41868,1.13909
265.17761,1.14676
264.93654,1.14992
264.69547,1.14847
264.45440,1.14694
264.21333,1.15225
263.97226,1.16808
263.73119,1.18859
263.49012,1.20026
263.24905,1.19725
263.00798,1.19063
262.76691,1.19483
262.52584,1.21347
262.28477,1.23937
262.04370,1.26339
261.80262,1.28039
261.56155,1.28926
261.32048,1.29348
261.07941,1.29790
260.83834,1.30431
260.59727,1.31109
260.35620,1.31694
260.11513,1.32738
259.87406,1.35361
259.63299,1.39419
259.39192,1.42323
259.15085,1.41718
258.90978,1.39555
258.66871,1.39909
258.42764,1.44044
258.18657,1.49761
257.94550,1.54043
257.70443,1.55606
257.46335,1.54971
257.22228,1.53627
256.98121,1.53182
256.74014,1.54436
256.49907,1.57521
256.25800,1.62800
256.01693,1.70669
255.77586,1.79937
255.53479,1.87637
255.29372,1.92385
255.05265,1.96249
254.81158,2.00933
254.57051,2.03744
254.32944,2.01097
254.08837,1.95024
253.84730,1.91628
253.60623,1.97644
253.36516,2.18217
253.12408,2.40398
252.88301,2.24811
252.64194,2.08248
252.40087,2.08568
252.15980,2.17398
251.91873,2.18673
251.67766,2.16224
251.43659,2.18767
251.19552,2.16964
250.95445,2.14567
250.71338,2.24636
250.47231,2.41669
250.23124,2.36544
249.99017,2.21159
249.74910,2.06729
249.50803,1.98532
249.26696,1.99448
249.02589,2.11197
248.78481,2.29946
248.54374,2.34959
248.30267,2.23251
248.06160,2.10914
247.82053,2.10191
247.57946,2.15935
247.33839,2.14353
247.09732,2.10349
246.85625,2.08952
246.61518,2.09900
246.37411,2.14157
246.13304,2.19742
245.89197,2.20545
245.65090,2.14288
245.40983,2.04913
245.16876,1.95707
244.92769,1.88462
244.68661,1.81843
244.44554,1.77923
244.20447,1.79432
243.96340,1.83280
243.72233,1.81687
243.48126,1.72272
243.24019,1.60388
242.99912,1.50559
242.75805,1.44008
242.51698,1.40165
242.27591,1.37597
242.03484,1.34804
241.79377,1.31397
241.55270,1.28196
241.31163,1.25914
241.07056,1.24188
240.82949,1.22012
240.58842,1.18896
240.34734,1.15298
240.10627,1.12162
239.86520,1.10041
239.62413,1.08518
239.38306,1.06797
239.14199,1.04611
238.90092,1.02093
238.65985,0.99380
238.41878,0.96868
238.17771,0.95196
237.93664,0.94533
237.69557,0.94326
237.45450,0.93807
237.21343,0.92502
236.97236,0.90571
236.73129,0.88797
236.49022,0.87829
236.24915,0.87509
236.00807,0.87252
235.76700,0.86739
235.52593,0.85928
235.28486,0.84899
235.04379,0.83932
234.80272,0.83253
234.56165,0.82730
234.32058,0.82130
234.07951,0.81499
233.83844,0.80991
233.59737,0.80653
233.35630,0.80531
233.11523,0.80658
232.87416,0.80915
232.63309,0.81146
232.39202,0.81273
232.15095,0.81144
231.90988,0.80502
231.66880,0.79336
231.42773,0.78005
231.18666,0.76899
230.94559,0.76150
230.70452,0.75678
230.46345,0.75368
230.22238,0.75180
229.98131,0.75140
229.74024,0.75215
229.49917,0.75322
229.25810,0.75479
229.01703,0.75714
228.77596,0.75904
228.53489,0.75898
228.29382,0.75670
228.05275,0.75307
227.81168,0.75023
227.57061,0.75046
227.32953,0.75265
227.08846,0.75240
226.84739,0.74847
226.60632,0.74460
226.36525,0.74327
226.12418,0.74229
225.88311,0.73979
225.64204,0.73777
225.40097,0.73834
225.15990,0.74046
224.91883,0.74205
224.67776,0.74290
224.43669,0.74390
224.19562,0.74519
223.95455,0.74624
223.71348,0.74656
223.47241,0.74566
223.23134,0.74350
222.99026,0.74145
222.74919,0.74177
222.50812,0.74480
222.26705,0.74841
222.02598,0.75170
221.78491,0.75704
221.54384,0.76602
221.30277,0.77588
221.06170,0.78272
220.82063,0.78629
220.57956,0.78963
220.33849,0.79578
220.09742,0.80524
219.85635,0.81584
219.61528,0.82460
219.37421,0.83021
219.13314,0.83425
218.89207,0.83955
218.65099,0.84678
218.40992,0.85319
218.16885,0.85639
217.92778,0.85883
217.68671,0.86550
217.44564,0.87784
217.20457,0.89302
216.96350,0.90716
216.72243,0.91691
216.48136,0.92034
216.24029,0.91903
215.99922,0.91696
215.75815,0.91824
215.51708,0.92656
215.27601,0.94301
215.03494,0.96280
214.79387,0.97761
214.55280,0.98370
214.31172,0.98475
214.07065,0.98674
213.82958,0.99319
213.58851,1.00256
213.34744,1.00922
213.10637,1.01064
212.86530,1.01197
212.62423,1.01998
212.38316,1.03463
212.14209,1.04864
211.90102,1.05526
211.65995,1.05482
211.41888,1.05208
211.17781,1.04978
210.93674,1.04749
210.69567,1.04459
210.45460,1.04226
210.21353,1.04173
209.97245,1.04220
209.73138,1.04213
209.49031,1.04052
209.24924,1.03722
209.00817,1.03418
208.76710,1.03503
208.52603,1.04044
208.28496,1.04515
208.04389,1.04302
207.80282,1.03455
207.56175,1.02583
207.32068,1.02127
207.07961,1.01967
206.83854,1.01621
206.59747,1.00794
206.35640,0.99580
206.11533,0.98242
205.87426,0.97109
205.63318,0.96412
205.39211,0.96079
205.15104,0.95716
204.90997,0.94886
204.66890,0.93537
204.42783,0.92049
204.18676,0.90802
203.94569,0.89906
203.70462,0.89279
203.46355,0.88725
203.22248,0.87926
202.98141,0.86624
202.74034,0.85000
202.49927,0.83528
202.25820,0.82366
202.01713,0.81336
201.77606,0.80439
201.53499,0.79798
201.29391,0.79215
201.05284,0.78408
200.81177,0.77520
200.57070,0.76779
200.32963,0.75983
200.08856,0.74872
199.84749,0.73596
199.60642,0.72484
199.36535,0.71695
199.12428,0.71184
198.88321,0.70724
198.64214,0.70104
198.40107,0.69398
198.16000,0.68802
197.91893,0.68254
197.67786,0.67540
197.43679,0.66647
197.19572,0.65710
196.95464,0.64767
196.71357,0.63857
196.47250,0.63176
196.23143,0.62812
195.99036,0.62491
195.74929,0.61882
195.50822,0.61115
195.26715,0.60639
195.02608,0.60600
194.78501,0.60644
194.54394,0.60297
194.30287,0.59414
194.06180,0.58298
193.82073,0.57433
193.57966,0.57023
193.33859,0.56809
193.09752,0.56398
192.85645,0.55729
192.61537,0.55097
192.37430,0.54788
192.13323,0.54786
191.89216,0.54812
191.65109,0.54608
191.41002,0.54129
191.16895,0.53498
190.92788,0.52885
190.68681,0.52421
190.44574,0.52176
190.20467,0.52138
189.96360,0.52211
189.72253,0.52259
189.48146,0.52218
189.24039,0.52140
188.99932,0.52090
188.75825,0.52028
188.51718,0.51838
188.27610,0.51438
188.03503,0.50913
187.79396,0.50507
187.55289,0.50385
187.31182,0.50428
187.07075,0.50336
186.82968,0.49950
186.58861,0.49424
186.34754,0.49037
186.10647,0.48886
185.86540,0.48873
185.62433,0.48905
185.38326,0.48921
185.14219,0.48815
184.90112,0.48607
184.66005,0.48594
184.41898,0.49038
184.17791,0.49751
183.93683,0.50265
183.69576,0.50396
183.45469,0.50402
183.21362,0.50513
182.97255,0.50627
182.73148,0.50613
182.49041,0.50597
182.24934,0.50745
182.00827,0.50948
181.76720,0.50941
181.52613,0.50664
181.28506,0.50394
181.04399,0.50468
180.80292,0.50903
180.56185,0.51406
180.32078,0.51755
180.07971,0.52002
179.83864,0.52269
179.59756,0.52549
179.35649,0.52834
179.11542,0.53209
178.87435,0.53700
178.63328,0.54222
178.39221,0.54805
178.15114,0.55616
177.91007,0.56626
177.66900,0.57508
177.42793,0.58069
177.18686,0.58494
176.94579,0.59024
176.70472,0.59709
176.46365,0.60596
176.22258,0.61816
175.98151,0.63333
175.74044,0.64877
175.49937,0.66306
175.25829,0.67803
175.01722,0.69578
174.77615,0.71545
174.53508,0.73406
174.29401,0.74971
174.05294,0.76380
173.81187,0.77921
173.57080,0.79539
173.32973,0.80747
173.08866,0.81244
172.84759,0.81300
172.60652,0.81294
172.36545,0.81345
172.12438,0.81531
171.88331,0.81938
171.64224,0.82385
171.40117,0.82509
171.16010,0.82220
170.91902,0.81807
170.67795,0.81530
170.43688,0.81326
170.19581,0.81020
169.95474,0.80588
169.71367,0.80036
169.47260,0.79352
169.23153,0.78689
168.99046,0.78308
168.74939,0.78230
168.50832,0.78169
168.26725,0.77890
168.02618,0.77527
167.78511,0.77433
167.54404,0.77748
167.30297,0.78171
167.06190,0.78293
166.82083,0.78091
166.57975,0.77867
166.33868,0.77834
166.09761,0.77995
165.85654,0.78265
165.61547,0.78626
165.37440,0.79145
165.13333,0.79752
164.89226,0.80280
164.65119,0.80784
164.41012,0.81474
164.16905,0.82297
163.92798,0.82905
163.68691,0.83150
163.44584,0.83290
163.20477,0.83604
162.96370,0.84116
162.72263,0.84757
162.48156,0.85483
162.24048,0.86137
161.99941,0.86482
161.75834,0.86500
161.51727,0.86364
161.27620,0.86056
161.03513,0.85533
160.79406,0.85177
160.55299,0.85439
160.31192,0.86135
160.07085,0.86560
159.82978,0.86321
159.58871,0.85706
159.34764,0.85194
159.10657,0.84909
158.86550,0.84589
158.62443,0.84002
158.38336,0.83322
158.14229,0.82886
157.90121,0.82616
157.66014,0.82085
157.41907,0.81206
157.17800,0.80356
156.93693,0.79805
156.69586,0.79487
156.45479,0.79289
156.21372,0.79195
155.97265,0.79204
155.73158,0.79265
155.49051,0.79266
155.24944,0.78983
155.00837,0.78242
154.76730,0.77181
154.52623,0.76074
154.28516,0.75010
154.04409,0.73987
153.80302,0.73023
153.56194,0.71997
153.32087,0.70673
153.07980,0.69098
152.83873,0.67684
152.59766,0.66677
152.35659,0.65796
152.11552,0.64603
151.87445,0.63048
151.63338,0.61466
151.39231,0.60192
151.15124,0.59333
150.91017,0.58741
150.66910,0.58102
150.42803,0.57177
150.18696,0.55973
149.94589,0.54646
149.70482,0.53373
149.46375,0.52335
149.22267,0.51599
148.98160,0.51045
148.74053,0.50510
148.49946,0.49971
148.25839,0.49457
148.01732,0.48879
147.77625,0.48156
147.53518,0.47461
147.29411,0.47122
147.05304,0.47201
146.81197,0.47387
146.57090,0.47472
146.32983,0.47672
146.08876,0.48236
145.84769,0.49016
145.60662,0.49654
145.36555,0.50017
145.12448,0.50226
144.88340,0.50408
144.64233,0.50652
144.40126,0.51094
144.16019,0.51747
143.91912,0.52309
143.67805,0.52426
143.43698,0.52108
143.19591,0.51607
142.95484,0.51001
142.71377,0.50186
142.47270,0.49181
142.23163,0.48197
141.99056,0.47405
141.74949,0.46798
141.50842,0.46283
141.26735,0.45807
141.02628,0.45344
140.78521,0.44835
140.54413,0.44244
140.30306,0.43651
140.06199,0.43262
139.82092,0.43302
139.57985,0.43804
139.33878,0.44488
139.09771,0.45000
138.85664,0.45272
138.61557,0.45482
138.37450,0.45766
138.13343,0.46178
137.89236,0.46783
137.65129,0.47581
137.41022,0.48474
137.16915,0.49436
136.92808,0.50559
136.68701,0.51914
136.44594,0.53554
136.20486,0.55550
135.96379,0.57845
135.72272,0.60157
135.48165,0.62232
135.24058,0.64125
134.99951,0.66074
134.75844,0.68210
134.51737,0.70463
134.27630,0.72665
134.03523,0.74696
133.79416,0.76558
133.55309,0.78361
133.31202,0.80258
133.07095,0.82348
132.82988,0.84545
132.58881,0.86444
132.34774,0.87712
132.10667,0.88776
131.86559,0.90288
131.62452,0.91850
131.38345,0.92248
131.14238,0.91094
130.90131,0.89311
130.66024,0.87942
130.41917,0.87313
130.17810,0.87140
129.93703,0.86736
129.69596,0.85389
129.45489,0.83007
129.21382,0.80142
128.97275,0.77403
128.73168,0.74984
128.49061,0.72722
128.24954,0.70446
128.00847,0.68180
127.76740,0.66012
127.52632,0.63897
127.28525,0.61707
127.04418,0.59430
126.80311,0.57230
126.56204,0.55265
126.32097,0.53506
126.07990,0.51780
125.83883,0.50019
125.59776,0.48347
125.35669,0.46905
125.11562,0.45632
124.87455,0.44344
124.63348,0.43064
124.39241,0.42120
124.15134,0.41737
123.91027,0.41649
123.66920,0.41371
123.42812,0.40756
123.18705,0.40019
122.94598,0.39315
122.70491,0.38616
122.46384,0.37910
122.22277,0.37290
121.98170,0.36877
121.74063,0.36747
121.49956,0.36926
121.25849,0.37384
121.01742,0.37958
120.77635,0.38401
120.53528,0.38681
120.29421,0.39103
120.05314,0.39940
119.81207,0.41123
119.57100,0.42461
119.32993,0.43946
119.08885,0.45713
118.84778,0.47904
118.60671,0.50559
118.36564,0.53447
118.12457,0.56127
117.88350,0.58239
117.64243,0.59686
117.40136,0.60690
117.16029,0.61655
116.91922,0.62779
116.67815,0.63854
116.43708,0.64533
116.19601,0.64684
115.95494,0.64399
115.71387,0.63807
115.47280,0.62874
115.23173,0.61480
114.99066,0.59785
114.74958,0.58214
114.50851,0.56950
114.26744,0.55822
114.02637,0.54738
113.78530,0.53838
113.54423,0.53217
113.30316,0.52813
113.06209,0.52621
112.82102,0.52753
112.57995,0.53261
112.33888,0.54003
112.09781,0.54758
111.85674,0.55333
111.61567,0.55587
111.37460,0.55591
111.13353,0.55676
110.89246,0.56045
110.65139,0.56434
110.41031,0.56344
110.16924,0.55543
109.92817,0.54274
109.68710,0.53049
109.44603,0.52226
109.20496,0.51689
108.96389,0.50993
108.72282,0.49822
108.48175,0.48249
108.24068,0.46586
107.99961,0.45065
107.75854,0.43691
107.51747,0.42404
107.27640,0.41192
107.03533,0.39975
106.79426,0.38613
106.55319,0.37194
106.31212,0.36056
106.07104,0.35380
105.82997,0.34931
105.58890,0.34287
105.34783,0.33251
105.10676,0.31976
104.86569,0.30779
104.62462,0.29875
104.38355,0.29251
104.14248,0.28782
103.90141,0.28375
103.66034,0.27949
103.41927,0.27370
103.17820,0.26567
102.93713,0.25649
102.69606,0.24836
102.45499,0.24282
102.21392,0.23980
101.97285,0.23798
101.73177,0.23561
101.49070,0.23144
101.24963,0.22574
101.00856,0.22034
100.76749,0.21689
100.52642,0.21521
100.28535,0.21394
100.04428,0.21242
99.80321,0.21137
99.56214,0.21126
99.32107,0.21075
99.08000,0.20780
98.83893,0.20269
98.59786,0.19853
98.35679,0.19788
98.11572,0.20057
97.87465,0.20496
97.63358,0.20962
97.39250,0.21351
97.15143,0.21580
96.91036,0.21621
96.66929,0.21549
96.42822,0.21509
96.18715,0.21605
95.94608,0.21842
95.70501,0.22174
95.46394,0.22577
95.22287,0.23036
94.98180,0.23541
94.74073,0.24063
94.49966,0.24501
94.25859,0.24749
94.01752,0.24829
93.77645,0.24818
93.53538,0.24727
93.29431,0.24613
93.05323,0.24605
92.81216,0.24686
92.57109,0.24676
92.33002,0.24532
92.08895,0.24439
91.84788,0.24584
91.60681,0.25045
91.36574,0.25821
91.12467,0.26846
90.88360,0.28057
90.64253,0.29517
90.40146,0.31377
90.16039,0.33727
89.91932,0.36593
89.67825,0.39955
89.43718,0.43654
89.19611,0.47350
88.95504,0.50640
88.71396,0.53161
88.47289,0.54790
88.23182,0.55733
87.99075,0.55965
87.74968,0.54888
87.50861,0.52256
87.26754,0.48910
87.02647,0.45876
86.78540,0.43366
86.54433,0.41050
86.30326,0.38722
86.06219,0.36361
85.82112,0.33897
85.58005,0.31267
85.33898,0.28669
85.09791,0.26515
84.85684,0.25026
84.61577,0.23973
84.37469,0.22937
84.13362,0.21764
83.89255,0.20639
83.65148,0.19763
83.41041,0.19121
83.16934,0.18560
82.92827,0.18001
82.68720,0.17468
82.44613,0.16942
82.20506,0.16355
81.96399,0.15786
81.72292,0.15397
81.48185,0.15159
81.24078,0.14880
80.99971,0.14524
80.75864,0.14236
80.51757,0.14057
80.27650,0.13834
80.03542,0.13456
79.79435,0.13021
79.55328,0.12754
79.31221,0.12766
79.07114,0.12920
78.83007,0.12999
78.58900,0.12971
78.34793,0.12950
78.10686,0.12932
77.86579,0.12796
77.62472,0.12531
77.38365,0.12199
77.14258,0.11757
76.90151,0.11166
76.66044,0.10592
76.41937,0.10292
76.17830,0.10303
75.93723,0.10410
75.69615,0.10431
75.45508,0.10408
75.21401,0.10455
74.97294,0.10553
74.73187,0.10631
74.49080,0.10690
74.24973,0.10695
74.00866,0.10524
73.76759,0.10179
73.52652,0.09886
73.28545,0.09842
73.04438,0.09980
72.80331,0.10055
72.56224,0.09888
72.32117,0.09548
72.08010,0.09316
71.83903,0.09386
71.59796,0.09634
71.35688,0.09839
71.11581,0.10012
70.87474,0.10272
70.63367,0.10560
70.39260,0.10774
70.15153,0.11023
69.91046,0.11514
69.66939,0.12349
69.42832,0.13512
69.18725,0.14766
68.94618,0.15565
68.70511,0.15448
68.46404,0.14533
68.22297,0.13329
67.98190,0.12216
67.74083,0.11271
67.49976,0.10412
67.25869,0.09610
67.01761,0.09009
66.77654,0.08752
66.53547,0.08686
66.29440,0.08431
66.05333,0.07825
65.81226,0.07174
65.57119,0.06969
65.33012,0.07396
65.08905,0.08219
64.84798,0.09115
64.60691,0.09955
64.36584,0.10727
64.12477,0.11343
63.88370,0.11654
63.64263,0.11627
63.40156,0.11392
63.16049,0.11059
62.91942,0.10644
62.67834,0.10189
62.43727,0.09734
62.19620,0.09223
61.95513,0.08639
61.71406,0.08129
61.47299,0.07768
61.23192,0.07392
60.99085,0.06876
60.74978,0.06350
60.50871,0.06025
60.26764,0.05946
60.02657,0.05984
59.78550,0.05990
59.54443,0.05993
59.30336,0.06163
59.06229,0.06487
58.82122,0.06647
58.58015,0.06391
58.33907,0.05855
58.09800,0.05326
57.85693,0.04874
57.61586,0.04386
57.37479,0.03839
57.13372,0.03371
56.89265,0.03096
56.65158,0.02964
56.41051,0.02840
56.16944,0.02681
55.92837,0.02612
55.68730,0.02784
55.44623,0.03182
55.20516,0.03594
54.96409,0.03743
54.72302,0.03513
54.48195,0.03110
54.24088,0.02885
53.99980,0.02970
53.75873,0.03272
53.51766,0.03755
53.27659,0.04386
53.03552,0.04927
52.79445,0.05166
52.55338,0.05245
52.31231,0.05443
52.07124,0.05763
51.83017,0.06014
51.58910,0.06098
51.34803,0.05999
51.10696,0.05650
50.86589,0.04975
50.62482,0.04037
50.38375,0.03079
50.14268,0.02378
49.90161,0.02013
49.66053,0.01804
49.41946,0.01548
49.17839,0.01231
48.93732,0.00949
48.69625,0.00826
48.45518,0.00964
48.21411,0.01278
47.97304,0.01379
47.73197,0.00867
47.49090,-0.00102
47.24983,-0.00952
47.00876,-0.01477
46.76769,-0.01907
46.52662,-0.02274
46.28555,-0.02359
46.04448,-0.02193
45.80341,-0.02116
45.56234,-0.02468
45.32126,-0.03454
45.08019,-0.05061
44.83912,-0.06839
44.59805,-0.07949
44.35698,-0.07833
44.11591,-0.06775
43.87484,-0.05411
43.63377,-0.03903
43.39270,-0.02145
43.15163,-0.00621
42.91056,-0.00272
42.66949,-0.01278
42.42842,-0.02695
42.18735,-0.03661
41.94628,-0.04192
41.70521,-0.04524
41.46414,-0.04694
41.22307,-0.04802
40.98199,-0.04919
40.74092,-0.04776
40.49985,-0.03793
40.25878,-0.01794
40.01771,0.00330
39.77664,0.01284
39.53557,0.00881
39.29450,0.00105
39.05343,-0.00496
38.81236,-0.01390
38.57129,-0.02831
38.33022,-0.04131
38.08915,-0.04864
37.84808,-0.05539
37.60701,-0.06213
37.36594,-0.05910
37.12487,-0.04181
36.88380,-0.01937
36.64272,-0.00322
36.40165,-0.00068
36.16058,-0.01514
35.91951,-0.04026
35.67844,-0.05916
35.43737,-0.05836
35.19630,-0.04679
34.95523,-0.04746
34.71416,-0.06979
34.47309,-0.09900
34.23202,-0.10815
33.99095,-0.08201
33.74988,-0.03402
33.50881,0.00462
33.26774,0.01452
33.02667,0.00466
32.78560,0.00242
32.54453,0.01790
32.30345,0.03276
32.06238,0.03310
31.82131,0.02211
31.58024,0.00658
31.33917,-0.00651
31.09810,-0.00431
30.85703,0.01747
30.61596,0.04351
30.37489,0.05486
30.13382,0.04274
29.89275,0.00863
29.65168,-0.03045
29.41061,-0.05010
29.16954,-0.04485
28.92847,-0.02231
28.68740,0.01824
28.44633,0.06217
28.20526,0.08546
27.96418,0.08670
27.72311,0.07952
27.48204,0.07484
27.24097,0.07527
26.99990,0.06746
26.75883,0.04111
26.51776,0.00783
26.27669,-0.00897
26.03562,-0.00374
25.79455,0.00639
25.55348,0.01750
25.31241,0.05716
25.07134,0.14624
24.83027,0.25616
24.58920,0.32931
24.34813,0.33150
24.10706,0.28136
23.86599,0.23036
23.62491,0.24079
23.38384,0.32424
23.14277,0.39947
22.90170,0.42721
22.66063,0.44624
22.41956,0.43083
22.17849,0.30538
21.93742,0.15771
21.69635,0.08751
21.45528,0.12180
21.21421,0.20186
20.97314,0.24818
20.73207,0.25455
20.49100,0.26454
20.24993,0.29485
20.00886,0.32603
19.76779,0.34730
19.52672,0.37930
19.28564,0.44912
19.04457,0.54480
18.80350,0.55286
18.56243,0.60151
18.32136,0.72586
18.08029,0.80260
17.83922,0.76052
17.59815,0.67207
17.35708,0.56107
17.11601,0.49962
16.87494,0.50808
16.63387,0.53532
16.39280,0.55775
16.15173,0.61594
15.91066,0.66263
15.66959,0.60352
15.42852,0.56971
15.18745,0.57669
14.94637,0.52625
14.70530,0.48276
14.46423,0.43195
14.22316,0.41972
13.98209,0.45046
13.74102,0.48266
13.49995,0.50643
13.25888,0.49922
13.01781,0.48041
12.77674,0.47330
12.53567,0.47363
12.29460,0.50118
12.05353,0.56301
11.81246,0.64443
11.57139,0.70007
11.33032,0.76756
11.08925,0.93513
10.84818,0.96192
10.60710,0.77832
10.36603,0.58974
10.12496,0.53447
9.88389,0.58447
9.64282,0.62224
9.40175,0.60918
9.16068,0.62005
8.91961,0.60376
8.67854,0.55200
8.43747,0.54409
8.19640,0.63105
7.95533,0.79473
7.71426,0.69955
7.47319,0.57818
7.23212,0.59810
6.99105,0.64083
6.74998,0.59178
6.50891,0.59613
6.26783,0.57273
6.02676,0.49754
5.78569,0.54152
5.54462,0.55989
5.30355,0.47345
5.06248,0.48651
4.82141,0.60928
4.58034,0.63019
4.33927,0.67733
4.09820,0.61918
3.85713,0.60591
3.61606,0.78051
3.37499,1.04902
3.13392,1.19084
2.89285,1.06110
2.65178,0.96623
2.41071,0.96127
2.16964,0.99249
1.92856,0.98666
1.68749,0.89761
1.44642,0.80443
1.20535,0.63883
0.96428,0.61098
0.72321,0.74442
0.48214,0.89215
0.24107,0.92559
-0.00000,0.53526
