399.69498,1.84773
399.45391,1.86349
399.21284,1.88774
398.97177,1.91837
398.73070,1.95505
398.48963,1.98757
398.24856,1.98748
398.00749,1.95218
397.76642,1.91937
397.52535,1.92130
397.28428,1.94809
397.04321,1.96215
396.80214,1.95067
396.56107,1.94467
396.32000,1.97606
396.07892,2.03133
395.83785,2.05809
395.59678,2.04599
395.35571,2.03740
395.11464,2.04219
394.87357,2.02056
394.63250,1.95938
394.39143,1.90673
394.15036,1.90051
393.90929,1.92513
393.66822,1.94982
393.42715,1.97425
393.18608,1.99611
392.94501,2.01538
392.70394,2.03063
392.46287,2.06899
392.22180,2.13339
391.98073,2.16174
391.73965,2.11186
391.49858,2.00927
391.25751,1.92097
391.01644,1.88562
390.77537,1.89320
390.53430,1.92633
390.29323,1.99448
390.05216,2.10707
389.81109,2.24987
389.57002,2.36059
389.32895,2.33805
389.08788,2.25090
388.84681,2.24448
388.60574,2.33880
388.36467,2.44824
388.12360,2.45185
387.88253,2.40511
387.64146,2.34898
387.40038,2.31215
387.15931,2.34747
386.91824,2.50425
386.67717,2.60337
386.43610,2.48921
386.19503,2.47328
385.95396,2.52152
385.71289,2.45850
385.47182,2.40680
385.23075,2.42469
384.98968,2.37281
384.74861,2.24060
384.50754,2.11265
384.26647,2.07917
384.02540,2.12873
383.78433,2.10797
383.54326,2.15438
383.30219,2.40039
383.06111,2.66527
382.82004,3.03102
382.57897,2.41874
382.33790,2.12706
382.09683,2.05814
381.85576,1.98961
381.61469,1.90978
381.37362,1.90663
381.13255,2.00527
380.89148,2.13187
380.65041,2.13479
380.40934,2.14015
380.16827,2.17135
379.92720,2.18952
379.68613,2.17288
379.44506,2.15253
379.20399,2.16164
378.96292,2.06798
378.72184,1.91090
378.48077,1.86862
378.23970,1.98662
377.99863,2.14629
377.75756,2.11895
377.51649,1.97844
377.27542,1.88454
377.03435,1.89760
376.79328,2.01580
376.55221,2.25490
376.31114,2.49427
376.07007,2.47770
375.82900,2.38136
375.58793,2.51364
375.34686,2.72003
375.10579,2.50471
374.86472,2.27202
374.62365,2.17746
374.38257,2.12722
374.14150,2.07715
373.90043,2.02797
373.65936,1.99811
373.41829,1.97846
373.17722,1.93843
372.93615,1.88633
372.69508,1.83577
372.45401,1.79082
372.21294,1.76236
371.97187,1.75736
371.73080,1.76401
371.48973,1.77182
371.24866,1.78142
371.00759,1.79405
370.76652,1.80198
370.52545,1.79805
370.28437,1.79289
370.04330,1.78828
369.80223,1.76588
369.56116,1.73657
369.32009,1.72378
369.07902,1.72894
368.83795,1.72705
368.59688,1.69650
368.35581,1.65946
368.11474,1.65233
367.87367,1.67626
367.63260,1.69694
367.39153,1.68794
367.15046,1.66066
366.90939,1.63579
366.66832,1.61750
366.42725,1.59895
366.18618,1.57770
365.94510,1.55782
365.70403,1.54338
365.46296,1.53507
365.22189,1.52652
364.98082,1.51320
364.73975,1.50252
364.49868,1.50135
364.25761,1.50494
364.01654,1.50484
363.77547,1.49994
363.53440,1.49683
363.29333,1.49973
363.05226,1.50085
362.81119,1.49149
362.57012,1.47758
362.32905,1.47053
362.08798,1.47411
361.84691,1.48063
361.60583,1.47981
361.36476,1.47233
361.12369,1.46555
360.88262,1.45883
360.64155,1.44598
360.40048,1.42972
360.15941,1.41970
359.91834,1.41760
359.67727,1.41696
359.43620,1.41451
359.19513,1.41418
358.95406,1.41859
358.71299,1.42417
358.47192,1.42851
358.23085,1.43085
357.98978,1.42762
357.74871,1.41836
357.50764,1.41095
357.26656,1.41262
357.02549,1.41803
356.78442,1.41554
356.54335,1.40808
356.30228,1.41093
356.06121,1.42992
355.82014,1.45482
355.57907,1.46841
355.33800,1.46484
355.09693,1.45402
354.85586,1.44412
354.61479,1.43458
354.37372,1.42566
354.13265,1.42228
353.89158,1.42522
353.65051,1.42778
353.40944,1.42410
353.16837,1.41594
352.92729,1.40917
352.68622,1.40706
352.44515,1.40954
352.20408,1.41685
351.96301,1.42928
351.72194,1.44179
351.48087,1.44525
351.23980,1.44105
350.99873,1.44582
350.75766,1.46891
350.51659,1.49348
350.27552,1.49497
350.03445,1.47774
349.79338,1.46610
349.55231,1.46767
349.31124,1.47158
349.07017,1.46859
348.82910,1.45663
348.58802,1.43706
348.34695,1.41760
348.10588,1.40929
347.86481,1.41540
347.62374,1.43089
347.38267,1.44781
347.14160,1.45872
346.90053,1.46268
346.65946,1.46451
346.41839,1.46636
346.17732,1.46619
345.93625,1.46438
345.69518,1.46558
345.45411,1.47303
345.21304,1.48277
344.97197,1.48700
344.73090,1.48607
344.48983,1.48921
344.24875,1.50164
344.00768,1.51875
343.76661,1.53653
343.52554,1.55908
343.28447,1.58967
343.04340,1.62347
342.80233,1.65331
342.56126,1.67280
342.32019,1.67134
342.07912,1.64279
341.83805,1.60205
341.59698,1.57372
341.35591,1.56818
341.11484,1.58051
340.87377,1.60464
340.63270,1.63629
340.39163,1.66840
340.15056,1.70153
339.90948,1.73656
339.66841,1.75927
339.42734,1.76364
339.18627,1.76587
338.94520,1.77734
338.70413,1.79060
338.46306,1.79712
338.22199,1.80055
337.98092,1.80502
337.73985,1.80631
337.49878,1.80164
337.25771,1.79636
337.01664,1.80015
336.77557,1.81971
336.53450,1.83892
336.29343,1.82843
336.05236,1.81163
335.81129,1.82293
335.57021,1.85047
335.32914,1.87834
335.08807,1.91215
334.84700,1.94742
334.60593,1.95522
334.36486,1.89854
334.12379,1.79214
333.88272,1.71188
333.64165,1.68503
333.40058,1.69880
333.15951,1.73834
332.91844,1.77212
332.67737,1.76226
332.43630,1.71459
332.19523,1.66238
331.95416,1.62615
331.71309,1.61276
331.47202,1.62141
331.23094,1.64062
330.98987,1.65223
330.74880,1.64588
330.50773,1.62447
330.26666,1.59598
330.02559,1.57154
329.78452,1.56165
329.54345,1.56545
329.30238,1.57155
329.06131,1.56710
328.82024,1.55204
328.57917,1.54480
328.33810,1.55873
328.09703,1.58391
327.85596,1.60125
327.61489,1.61250
327.37382,1.63837
327.13275,1.68171
326.89167,1.71164
326.65060,1.69634
326.40953,1.64704
326.16846,1.60005
325.92739,1.58095
325.68632,1.60157
325.44525,1.65626
325.20418,1.71583
324.96311,1.74284
324.72204,1.73453
324.48097,1.72912
324.23990,1.75733
323.99883,1.80171
323.75776,1.80766
323.51669,1.77220
323.27562,1.74630
323.03455,1.75489
322.79348,1.78847
322.55240,1.82976
322.31133,1.88678
322.07026,1.97446
321.82919,2.03761
321.58812,2.00344
321.34705,1.95226
321.10598,1.93978
320.86491,1.94518
320.62384,1.94676
320.38277,1.95104
320.14170,1.96872
319.90063,1.99476
319.65956,2.01860
319.41849,2.00189
319.17742,1.94147
318.93635,1.89428
318.69528,1.88705
318.45421,1.89885
318.21313,1.91346
317.97206,1.92944
317.73099,1.93417
317.48992,1.92204
317.24885,1.88262
317.00778,1.85774
316.76671,1.87926
316.52564,1.90631
316.28457,1.88761
316.04350,1.85275
315.80243,1.86012
315.56136,1.91109
315.32029,1.95984
315.07922,1.97475
314.83815,1.97044
314.59708,1.97248
314.35601,2.00016
314.11494,2.04810
313.87386,2.09683
313.63279,2.13152
313.39172,2.15516
313.15065,2.18790
312.90958,2.23356
312.66851,2.24482
312.42744,2.25674
312.18637,2.23619
311.94530,2.17293
311.70423,2.13213
311.46316,2.13404
311.22209,2.16044
310.98102,2.18571
310.73995,2.22567
310.49888,2.30303
310.25781,2.36464
310.01674,2.29186
309.77567,2.19408
309.53459,2.13569
309.29352,2.07704
309.05245,2.00279
308.81138,1.92532
308.57031,1.85509
308.32924,1.81359
308.08817,1.82003
307.84710,1.85394
307.60603,1.84560
307.36496,1.76597
307.12389,1.68175
306.88282,1.63991
306.64175,1.63046
306.40068,1.62316
306.15961,1.60857
305.91854,1.59746
305.67747,1.59109
305.43640,1.58222
305.19532,1.57439
304.95425,1.56994
304.71318,1.55463
304.47211,1.51895
304.23104,1.48013
303.98997,1.45747
303.74890,1.45101
303.50783,1.45009
303.26676,1.44535
303.02569,1.43189
302.78462,1.41214
302.54355,1.39369
302.30248,1.37938
302.06141,1.36431
301.82034,1.34528
301.57927,1.32783
301.33820,1.31946
301.09713,1.31924
300.85605,1.31744
300.61498,1.30642
300.37391,1.28891
300.13284,1.27111
299.89177,1.25522
299.65070,1.24199
299.40963,1.23317
299.16856,1.22990
298.92749,1.23030
298.68642,1.23112
298.44535,1.23091
298.20428,1.22984
297.96321,1.22745
297.72214,1.22216
297.48107,1.21315
297.24000,1.20269
296.99893,1.19473
296.75786,1.19051
296.51678,1.18704
296.27571,1.18030
296.03464,1.16877
295.79357,1.15484
295.55250,1.14361
295.31143,1.13919
295.07036,1.14132
294.82929,1.14570
294.58822,1.14820
294.34715,1.14745
294.10608,1.14265
293.86501,1.13276
293.62394,1.12015
293.38287,1.11084
293.14180,1.10821
292.90073,1.10979
292.65966,1.11133
292.41859,1.11087
292.17751,1.10754
291.93644,1.10019
291.69537,1.08980
291.45430,1.08071
291.21323,1.07713
290.97216,1.07852
290.73109,1.08055
290.49002,1.08131
290.24895,1.08304
290.00788,1.08598
289.76681,1.08551
289.52574,1.07899
289.28467,1.07056
289.04360,1.06487
288.80253,1.06166
288.56146,1.05932
288.32039,1.05861
288.07932,1.05943
287.83824,1.05813
287.59717,1.05188
287.35610,1.04353
287.11503,1.03808
286.87396,1.03649
286.63289,1.03658
286.39182,1.03696
286.15075,1.03681
285.90968,1.03489
285.66861,1.03128
285.42754,1.02821
285.18647,1.02751
284.94540,1.02888
284.70433,1.03078
284.46326,1.03141
284.22219,1.02886
283.98112,1.02300
283.74005,1.01657
283.49897,1.01234
283.25790,1.01030
283.01683,1.00876
282.77576,1.00682
282.53469,1.00507
282.29362,1.00487
282.05255,1.00698
281.81148,1.00982
281.57041,1.01006
281.32934,1.00684
281.08827,1.00356
280.84720,1.00349
280.60613,1.00606
280.36506,1.00966
280.12399,1.01417
279.88292,1.01770
279.64185,1.01606
279.40078,1.00933
279.15970,1.00414
278.91863,1.00575
278.67756,1.01176
278.43649,1.01622
278.19542,1.01734
277.95435,1.01753
277.71328,1.01710
277.47221,1.01348
277.23114,1.00655
276.99007,1.00035
276.74900,0.99843
276.50793,1.00004
276.26686,1.00155
276.02579,1.00078
275.78472,0.99861
275.54365,0.99674
275.30258,0.99555
275.06151,0.99472
274.82043,0.99411
274.57936,0.99374
274.33829,0.99437
274.09722,0.99754
273.85615,1.00287
273.61508,1.00712
273.37401,1.00807
273.13294,1.00717
272.89187,1.00601
272.65080,1.00356
272.40973,0.99868
272.16866,0.99260
271.92759,0.98820
271.68652,0.98823
271.44545,0.99330
271.20438,1.00036
270.96331,1.00499
270.72224,1.00623
270.48116,1.00725
270.24009,1.01051
269.99902,1.01478
269.75795,1.01741
269.51688,1.01774
269.27581,1.01774
269.03474,1.01961
268.79367,1.02353
268.55260,1.02760
268.31153,1.03035
268.07046,1.03202
267.82939,1.03236
267.58832,1.03032
267.34725,1.02803
267.10618,1.03118
266.86511,1.04200
266.62404,1.05511
266.38297,1.06310
266.14189,1.06458
265.90082,1.06402
265.65975,1.06544
265.41868,1.06868
265.17761,1.07167
264.93654,1.07497
264.69547,1.08216
264.45440,1.09531
264.21333,1.11148
263.97226,1.12502
263.73119,1.13266
263.49012,1.13579
263.24905,1.13757
263.00798,1.13956
262.76691,1.14158
262.52584,1.14306
262.28477,1.14443
262.04370,1.14897
261.80262,1.16200
261.56155,1.18472
261.32048,1.20957
261.07941,1.22678
260.83834,1.23554
260.59727,1.24328
260.35620,1.25613
260.11513,1.27456
259.87406,1.29366
259.63299,1.30561
259.39192,1.30746
259.15085,1.30611
258.90978,1.31119
258.66871,1.32650
258.42764,1.35062
258.18657,1.38079
257.94550,1.41313
257.70443,1.44288
257.46335,1.46767
257.22228,1.48845
256.98121,1.50780
256.74014,1.52838
256.49907,1.55130
256.25800,1.57735
256.01693,1.60949
255.77586,1.64663
255.53479,1.68024
255.29372,1.70306
255.05265,1.71786
254.81158,1.73721
254.57051,1.77054
254.32944,1.81901
254.08837,1.87997
253.84730,1.94077
253.60623,1.98425
253.36516,2.00370
253.12408,2.00847
252.88301,2.01589
252.64194,2.04272
252.40087,2.10149
252.15980,2.17150
251.91873,2.18346
251.67766,2.11120
251.43659,2.03793
251.19552,2.03556
250.95445,2.10473
250.71338,2.18171
250.47231,2.21666
250.23124,2.26810
249.99017,2.38562
249.74910,2.54430
249.50803,2.58704
249.26696,2.45769
249.02589,2.36706
248.78481,2.32645
248.54374,2.32890
248.30267,2.36366
248.06160,2.30419
247.82053,2.22029
247.57946,2.17516
247.33839,2.16911
247.09732,2.19364
246.85625,2.20373
246.61518,2.17983
246.37411,2.12944
246.13304,2.05701
245.89197,1.98079
245.65090,1.91627
245.40983,1.87009
245.16876,1.84546
244.92769,1.83438
244.68661,1.81741
244.44554,1.78329
244.20447,1.73909
243.96340,1.69210
243.72233,1.63519
243.48126,1.56589
243.24019,1.49588
242.99912,1.43674
242.75805,1.39177
242.51698,1.35809
242.27591,1.32938
242.03484,1.29938
241.79377,1.26504
241.55270,1.22688
241.31163,1.18703
241.07056,1.14869
240.82949,1.11570
240.58842,1.08973
240.34734,1.06825
240.10627,1.04665
239.86520,1.02286
239.62413,0.99929
239.38306,0.97944
239.14199,0.96422
238.90092,0.95200
238.65985,0.94021
238.41878,0.92651
238.17771,0.90984
237.93664,0.89181
237.69557,0.87644
237.45450,0.86681
237.21343,0.86124
236.97236,0.85443
236.73129,0.84339
236.49022,0.83070
236.24915,0.82031
236.00807,0.81300
235.76700,0.80790
235.52593,0.80450
235.28486,0.80139
235.04379,0.79674
234.80272,0.79071
234.56165,0.78443
234.32058,0.77743
234.07951,0.76904
233.83844,0.76056
233.59737,0.75373
233.35630,0.74841
233.11523,0.74368
232.87416,0.74010
232.63309,0.73920
232.39202,0.74098
232.15095,0.74307
231.90988,0.74295
231.66880,0.74046
231.42773,0.73728
231.18666,0.73457
230.94559,0.73198
230.70452,0.72843
230.46345,0.72344
230.22238,0.71794
229.98131,0.71349
229.74024,0.71077
229.49917,0.70940
229.25810,0.70865
229.01703,0.70718
228.77596,0.70354
228.53489,0.69872
228.29382,0.69620
228.05275,0.69722
227.81168,0.69844
227.57061,0.69671
227.32953,0.69345
227.08846,0.69160
226.84739,0.69140
226.60632,0.69173
226.36525,0.69269
226.12418,0.69433
225.88311,0.69545
225.64204,0.69548
225.40097,0.69558
225.15990,0.69677
224.91883,0.69818
224.67776,0.69816
224.43669,0.69639
224.19562,0.69429
223.95455,0.69390
223.71348,0.69626
223.47241,0.70058
223.23134,0.70517
222.99026,0.70893
222.74919,0.71126
222.50812,0.71163
222.26705,0.71049
222.02598,0.71005
221.78491,0.71272
221.54384,0.71908
221.30277,0.72748
221.06170,0.73500
220.82063,0.73960
220.57956,0.74219
220.33849,0.74592
220.09742,0.75263
219.85635,0.76101
219.61528,0.76817
219.37421,0.77241
219.13314,0.77485
218.89207,0.77902
218.65099,0.78806
218.40992,0.80169
218.16885,0.81602
217.92778,0.82647
217.68671,0.83170
217.44564,0.83501
217.20457,0.84088
216.96350,0.85023
216.72243,0.86023
216.48136,0.86830
216.24029,0.87435
215.99922,0.87963
215.75815,0.88540
215.51708,0.89219
215.27601,0.89941
215.03494,0.90660
214.79387,0.91491
214.55280,0.92524
214.31172,0.93572
214.07065,0.94394
213.82958,0.95073
213.58851,0.95821
213.34744,0.96499
213.10637,0.96807
212.86530,0.96861
212.62423,0.97101
212.38316,0.97655
212.14209,0.98267
211.90102,0.98791
211.65995,0.99262
211.41888,0.99549
211.17781,0.99455
210.93674,0.99095
210.69567,0.98802
210.45460,0.98772
210.21353,0.99011
209.97245,0.99351
209.73138,0.99465
209.49031,0.99116
209.24924,0.98428
209.00817,0.97790
208.76710,0.97454
208.52603,0.97327
208.28496,0.97200
208.04389,0.97003
207.80282,0.96686
207.56175,0.96116
207.32068,0.95339
207.07961,0.94675
206.83854,0.94305
206.59747,0.94029
206.35640,0.93586
206.11533,0.92923
205.87426,0.92050
205.63318,0.90953
205.39211,0.89766
205.15104,0.88768
204.90997,0.88054
204.66890,0.87411
204.42783,0.86674
204.18676,0.85929
203.94569,0.85222
203.70462,0.84404
203.46355,0.83446
203.22248,0.82514
202.98141,0.81636
202.74034,0.80664
202.49927,0.79597
202.25820,0.78604
202.01713,0.77733
201.77606,0.76865
201.53499,0.75933
201.29391,0.74990
201.05284,0.74075
200.81177,0.73124
200.57070,0.72097
200.32963,0.71123
200.08856,0.70399
199.84749,0.69937
199.60642,0.69520
199.36535,0.68911
199.12428,0.68037
198.88321,0.66983
198.64214,0.65891
198.40107,0.64923
198.16000,0.64204
197.91893,0.63703
197.67786,0.63232
197.43679,0.62626
197.19572,0.61861
196.95464,0.60991
196.71357,0.60128
196.47250,0.59441
196.23143,0.58993
195.99036,0.58613
195.74929,0.58076
195.50822,0.57386
195.26715,0.56722
195.02608,0.56197
194.78501,0.55792
194.54394,0.55471
194.30287,0.55183
194.06180,0.54813
193.82073,0.54279
193.57966,0.53650
193.33859,0.53041
193.09752,0.52479
192.85645,0.51962
192.61537,0.51554
192.37430,0.51297
192.13323,0.51139
191.89216,0.50994
191.65109,0.50828
191.41002,0.50649
191.16895,0.50471
190.92788,0.50313
190.68681,0.50184
190.44574,0.50036
190.20467,0.49787
189.96360,0.49460
189.72253,0.49175
189.48146,0.48972
189.24039,0.48767
188.99932,0.48501
188.75825,0.48177
188.51718,0.47788
188.27610,0.47367
188.03503,0.47036
187.79396,0.46883
187.55289,0.46847
187.31182,0.46805
187.07075,0.46730
186.82968,0.46688
186.58861,0.46729
186.34754,0.46843
186.10647,0.47007
185.86540,0.47168
185.62433,0.47213
185.38326,0.47073
185.14219,0.46837
184.90112,0.46678
184.66005,0.46683
184.41898,0.46825
184.17791,0.47038
183.93683,0.47275
183.69576,0.47505
183.45469,0.47688
183.21362,0.47793
182.97255,0.47853
182.73148,0.47931
182.49041,0.48028
182.24934,0.48101
182.00827,0.48138
181.76720,0.48145
181.52613,0.48114
181.28506,0.48072
181.04399,0.48093
180.80292,0.48239
180.56185,0.48516
180.32078,0.48867
180.07971,0.49206
179.83864,0.49506
179.59756,0.49828
179.35649,0.50212
179.11542,0.50600
178.87435,0.50954
178.63328,0.51359
178.39221,0.51941
178.15114,0.52730
177.91007,0.53666
177.66900,0.54667
177.42793,0.55656
177.18686,0.56595
176.94579,0.57514
176.70472,0.58507
176.46365,0.59638
176.22258,0.60859
175.98151,0.62042
175.74044,0.63142
175.49937,0.64266
175.25829,0.65501
175.01722,0.66778
174.77615,0.68017
174.53508,0.69324
174.29401,0.70866
174.05294,0.72582
173.81187,0.74121
173.57080,0.75153
173.32973,0.75736
173.08866,0.76250
172.84759,0.76949
172.60652,0.77735
172.36545,0.78372
172.12438,0.78764
171.88331,0.78961
171.64224,0.79020
171.40117,0.78972
171.16010,0.78880
170.91902,0.78796
170.67795,0.78634
170.43688,0.78206
170.19581,0.77496
169.95474,0.76747
169.71367,0.76217
169.47260,0.75982
169.23153,0.75932
168.99046,0.75790
168.74939,0.75301
168.50832,0.74535
168.26725,0.73887
168.02618,0.73641
167.78511,0.73721
167.54404,0.73915
167.30297,0.74151
167.06190,0.74449
166.82083,0.74741
166.57975,0.74838
166.33868,0.74642
166.09761,0.74325
165.85654,0.74216
165.61547,0.74481
165.37440,0.75007
165.13333,0.75613
164.89226,0.76273
164.65119,0.77059
164.41012,0.77939
164.16905,0.78722
163.92798,0.79257
163.68691,0.79638
163.44584,0.80095
163.20477,0.80685
162.96370,0.81233
162.72263,0.81594
162.48156,0.81812
162.24048,0.81992
161.99941,0.82162
161.75834,0.82310
161.51727,0.82423
161.27620,0.82443
161.03513,0.82291
160.79406,0.81985
160.55299,0.81708
160.31192,0.81667
160.07085,0.81879
159.82978,0.82088
159.58871,0.82001
159.34764,0.81624
159.10657,0.81189
158.86550,0.80801
158.62443,0.80365
158.38336,0.79832
158.14229,0.79225
157.90121,0.78483
157.66014,0.77616
157.41907,0.76939
157.17800,0.76783
156.93693,0.77012
156.69586,0.77125
156.45479,0.76747
156.21372,0.75922
155.97265,0.74985
155.73158,0.74259
155.49051,0.73797
155.24944,0.73351
155.00837,0.72664
154.76730,0.71764
154.52623,0.70905
154.28516,0.70262
154.04409,0.69734
153.80302,0.69052
153.56194,0.68078
153.32087,0.66937
153.07980,0.65818
152.83873,0.64739
152.59766,0.63622
152.35659,0.62488
152.11552,0.61393
151.87445,0.60257
151.63338,0.58980
151.39231,0.57670
151.15124,0.56535
150.91017,0.55583
150.66910,0.54628
150.42803,0.53569
150.18696,0.52503
149.94589,0.51554
149.70482,0.50745
149.46375,0.50043
149.22267,0.49438
148.98160,0.48929
148.74053,0.48504
148.49946,0.48124
148.25839,0.47735
148.01732,0.47275
147.77625,0.46729
147.53518,0.46174
147.29411,0.45761
147.05304,0.45607
146.81197,0.45691
146.57090,0.45869
146.32983,0.46001
146.08876,0.46085
145.84769,0.46219
145.60662,0.46485
145.36555,0.46918
145.12448,0.47515
144.88340,0.48205
144.64233,0.48844
144.40126,0.49298
144.16019,0.49510
143.91912,0.49519
143.67805,0.49430
143.43698,0.49310
143.19591,0.49115
142.95484,0.48775
142.71377,0.48267
142.47270,0.47570
142.23163,0.46692
141.99056,0.45770
141.74949,0.45003
141.50842,0.44448
141.26735,0.43990
141.02628,0.43503
140.78521,0.42994
140.54413,0.42562
140.30306,0.42297
140.06199,0.42229
139.82092,0.42320
139.57985,0.42475
139.33878,0.42628
139.09771,0.42836
138.85664,0.43209
138.61557,0.43758
138.37450,0.44375
138.13343,0.44946
137.89236,0.45488
137.65129,0.46173
137.41022,0.47161
137.16915,0.48396
136.92808,0.49664
136.68701,0.50877
136.44594,0.52129
136.20486,0.53524
135.96379,0.55092
135.72272,0.56816
135.48165,0.58665
135.24058,0.60618
134.99951,0.62680
134.75844,0.64860
134.51737,0.67183
134.27630,0.69642
134.03523,0.72065
133.79416,0.74208
133.55309,0.76069
133.31202,0.77898
133.07095,0.79845
132.82988,0.81782
132.58881,0.83475
132.34774,0.84827
132.10667,0.85912
131.86559,0.86694
131.62452,0.86949
131.38345,0.86670
131.14238,0.86245
130.90131,0.86018
130.66024,0.85924
130.41917,0.85624
130.17810,0.84846
129.93703,0.83504
129.69596,0.81667
129.45489,0.79500
129.21382,0.77148
128.97275,0.74685
128.73168,0.72168
128.49061,0.69655
128.24954,0.67162
128.00847,0.64709
127.76740,0.62406
127.52632,0.60374
127.28525,0.58539
127.04418,0.56657
126.80311,0.54625
126.56204,0.52632
126.32097,0.50898
126.07990,0.49395
125.83883,0.47955
125.59776,0.46552
125.35669,0.45317
125.11562,0.44330
124.87455,0.43494
124.63348,0.42635
124.39241,0.41670
124.15134,0.40665
123.91027,0.39743
123.66920,0.38960
123.42812,0.38281
123.18705,0.37644
122.94598,0.37035
122.70491,0.36512
122.46384,0.36148
122.22277,0.35966
121.98170,0.35891
121.74063,0.35811
121.49956,0.35704
121.25849,0.35686
121.01742,0.35911
120.77635,0.36438
120.53528,0.37203
120.29421,0.38079
120.05314,0.38950
119.81207,0.39802
119.57100,0.40784
119.32993,0.42117
119.08885,0.43870
118.84778,0.45892
118.60671,0.48009
118.36564,0.50198
118.12457,0.52482
117.88350,0.54749
117.64243,0.56792
117.40136,0.58464
117.16029,0.59720
116.91922,0.60572
116.67815,0.61028
116.43708,0.61071
116.19601,0.60717
115.95494,0.60097
115.71387,0.59388
115.47280,0.58650
115.23173,0.57832
114.99066,0.56880
114.74958,0.55762
114.50851,0.54488
114.26744,0.53236
114.02637,0.52321
113.78530,0.51901
113.54423,0.51800
113.30316,0.51732
113.06209,0.51628
112.82102,0.51681
112.57995,0.52062
112.33888,0.52675
112.09781,0.53224
111.85674,0.53481
111.61567,0.53448
111.37460,0.53320
111.13353,0.53331
110.89246,0.53532
110.65139,0.53697
110.41031,0.53565
110.16924,0.53087
109.92817,0.52318
109.68710,0.51241
109.44603,0.49913
109.20496,0.48571
108.96389,0.47378
108.72282,0.46265
108.48175,0.45167
108.24068,0.44175
107.99961,0.43283
107.75854,0.42262
107.51747,0.40995
107.27640,0.39699
107.03533,0.38611
106.79426,0.37717
106.55319,0.36883
106.31212,0.36023
106.07104,0.35083
105.82997,0.34065
105.58890,0.33091
105.34783,0.32283
105.10676,0.31630
104.86569,0.31020
104.62462,0.30346
104.38355,0.29570
104.14248,0.28743
103.90141,0.27990
103.66034,0.27388
103.41927,0.26901
103.17820,0.26442
102.93713,0.25935
102.69606,0.25330
102.45499,0.24678
102.21392,0.24157
101.97285,0.23890
101.73177,0.23745
101.49070,0.23476
101.24963,0.23041
101.00856,0.22621
100.76749,0.22332
100.52642,0.22090
100.28535,0.21799
100.04428,0.21502
99.80321,0.21279
99.56214,0.21135
99.32107,0.21041
99.08000,0.20933
98.83893,0.20708
98.59786,0.20369
98.35679,0.20136
98.11572,0.20225
97.87465,0.20558
97.63358,0.20863
97.39250,0.21000
97.15143,0.21060
96.91036,0.21163
96.66929,0.21338
96.42822,0.21565
96.18715,0.21849
95.94608,0.22199
95.70501,0.22603
95.46394,0.23031
95.22287,0.23449
94.98180,0.23834
94.74073,0.24179
94.49966,0.24463
94.25859,0.24661
94.01752,0.24798
93.77645,0.24915
93.53538,0.24975
93.29431,0.24906
93.05323,0.24720
92.81216,0.24499
92.57109,0.24309
92.33002,0.24218
92.08895,0.24310
91.84788,0.24622
91.60681,0.25135
91.36574,0.25837
91.12467,0.26743
90.88360,0.27901
90.64253,0.29377
90.40146,0.31217
90.16039,0.33418
89.91932,0.35971
89.67825,0.38887
89.43718,0.42127
89.19611,0.45530
88.95504,0.48775
88.71396,0.51451
88.47289,0.53206
88.23182,0.53872
87.99075,0.53481
87.74968,0.52197
87.50861,0.50228
87.26754,0.47766
87.02647,0.44946
86.78540,0.41901
86.54433,0.38855
86.30326,0.36107
86.06219,0.33846
85.82112,0.31984
85.58005,0.30238
85.33898,0.28407
85.09791,0.26534
84.85684,0.24787
84.61577,0.23301
84.37469,0.22127
84.13362,0.21260
83.89255,0.20651
83.65148,0.20191
83.41041,0.19726
83.16934,0.19137
82.92827,0.18450
82.68720,0.17803
82.44613,0.17264
82.20506,0.16772
81.96399,0.16278
81.72292,0.15860
81.48185,0.15624
81.24078,0.15549
80.99971,0.15475
80.75864,0.15255
80.51757,0.14887
80.27650,0.14491
80.03542,0.14173
79.79435,0.13956
79.55328,0.13803
79.31221,0.13679
79.07114,0.13587
78.83007,0.13563
78.58900,0.13601
78.34793,0.13613
78.10686,0.13498
77.86579,0.13237
77.62472,0.12884
77.38365,0.12515
77.14258,0.12208
76.90151,0.12001
76.66044,0.11851
76.41937,0.11694
76.17830,0.11526
75.93723,0.11357
75.69615,0.11132
75.45508,0.10807
75.21401,0.10469
74.97294,0.10274
74.73187,0.10300
74.49080,0.10508
74.24973,0.10789
74.00866,0.11017
73.76759,0.11117
73.52652,0.11116
73.28545,0.11066
73.04438,0.10959
72.80331,0.10778
72.56224,0.10576
72.32117,0.10429
72.08010,0.10376
71.83903,0.10434
71.59796,0.10610
71.35688,0.10860
71.11581,0.11115
70.87474,0.11354
70.63367,0.11599
70.39260,0.11893
70.15153,0.12330
69.91046,0.13031
69.66939,0.14006
69.42832,0.15082
69.18725,0.15995
68.94618,0.16507
68.70511,0.16504
68.46404,0.16061
68.22297,0.15353
67.98190,0.14483
67.74083,0.13502
67.49976,0.12572
67.25869,0.11892
67.01761,0.11476
66.77654,0.11164
66.53547,0.10830
66.29440,0.10460
66.05333,0.10101
65.81226,0.09834
65.57119,0.09726
65.33012,0.09756
65.08905,0.09887
64.84798,0.10168
64.60691,0.10668
64.36584,0.11317
64.12477,0.11936
63.88370,0.12381
63.64263,0.12548
63.40156,0.12373
63.16049,0.11921
62.91942,0.11369
62.67834,0.10852
62.43727,0.10400
62.19620,0.10000
61.95513,0.09632
61.71406,0.09277
61.47299,0.08927
61.23192,0.08586
60.99085,0.08274
60.74978,0.08027
60.50871,0.07870
60.26764,0.07816
60.02657,0.07901
59.78550,0.08110
59.54443,0.08292
59.30336,0.08258
59.06229,0.07980
58.82122,0.07615
58.58015,0.07376
58.33907,0.07407
58.09800,0.07684
57.85693,0.08011
57.61586,0.08203
57.37479,0.08197
57.13372,0.07996
56.89265,0.07671
56.65158,0.07377
56.41051,0.07218
56.16944,0.07140
55.92837,0.07052
55.68730,0.06959
55.44623,0.06934
55.20516,0.07000
54.96409,0.07062
54.72302,0.06998
54.48195,0.06854
54.24088,0.06841
53.99980,0.07053
53.75873,0.07343
53.51766,0.07558
53.27659,0.07725
53.03552,0.07909
52.79445,0.08024
52.55338,0.07931
52.31231,0.07683
52.07124,0.07475
51.83017,0.07420
51.58910,0.07457
51.34803,0.07425
51.10696,0.07189
50.86589,0.06815
50.62482,0.06562
50.38375,0.06560
50.14268,0.06623
49.90161,0.06498
49.66053,0.06141
49.41946,0.05639
49.17839,0.05117
48.93732,0.04792
48.69625,0.04842
48.45518,0.05188
48.21411,0.05540
47.97304,0.05618
47.73197,0.05320
47.49090,0.04779
47.24983,0.04229
47.00876,0.03749
46.76769,0.03283
46.52662,0.02866
46.28555,0.02678
46.04448,0.02826
45.80341,0.03149
45.56234,0.03346
45.32126,0.03323
45.08019,0.03241
44.83912,0.03177
44.59805,0.03022
44.35698,0.02817
44.11591,0.02796
43.87484,0.02979
43.63377,0.03064
43.39270,0.02830
43.15163,0.02390
42.91056,0.02006
42.66949,0.01843
42.42842,0.01947
42.18735,0.02289
41.94628,0.02761
41.70521,0.03143
41.46414,0.03168
41.22307,0.02783
40.98199,0.02369
40.74092,0.02362
40.49985,0.02630
40.25878,0.02741
40.01771,0.02766
39.77664,0.03151
39.53557,0.03923
39.29450,0.04704
39.05343,0.05282
38.81236,0.05604
38.57129,0.05605
38.33022,0.05415
38.08915,0.05306
37.84808,0.05333
37.60701,0.05432
37.36594,0.05747
37.12487,0.06371
36.88380,0.06899
36.64272,0.06686
36.40165,0.05657
36.16058,0.04490
35.91951,0.03799
35.67844,0.03519
35.43737,0.03391
35.19630,0.03613
34.95523,0.04451
34.71416,0.05627
34.47309,0.06673
34.23202,0.07352
33.99095,0.07492
33.74988,0.07164
33.50881,0.07020
33.26774,0.07601
33.02667,0.08761
32.78560,0.10389
32.54453,0.12476
32.30345,0.14382
32.06238,0.14960
31.82131,0.13640
31.58024,0.11230
31.33917,0.09229
31.09810,0.08614
30.85703,0.09090
30.61596,0.09540
30.37489,0.09524
30.13382,0.09480
29.89275,0.09390
29.65168,0.08757
29.41061,0.07592
29.16954,0.06325
28.92847,0.05280
28.68740,0.04968
28.44633,0.06589
28.20526,0.10746
27.96418,0.15498
27.72311,0.17824
27.48204,0.17249
27.24097,0.15830
26.99990,0.15133
26.75883,0.14711
26.51776,0.12886
26.27669,0.09364
26.03562,0.07332
25.79455,0.10173
25.55348,0.15568
25.31241,0.18706
25.07134,0.19399
24.83027,0.20327
24.58920,0.21637
24.34813,0.21498
24.10706,0.20409
23.86599,0.21553
23.62491,0.27088
23.38384,0.35674
23.14277,0.42627
22.90170,0.43168
22.66063,0.39419
22.41956,0.36049
22.17849,0.33111
21.93742,0.29429
21.69635,0.25778
21.45528,0.23872
21.21421,0.26287
20.97314,0.33034
20.73207,0.38857
20.49100,0.40258
20.24993,0.38727
20.00886,0.37524
19.76779,0.42101
19.52672,0.54897
19.28564,0.67728
19.04457,0.72037
18.80350,0.72809
18.56243,0.76971
18.32136,0.87483
18.08029,0.98102
17.83922,0.99980
17.59815,0.94948
17.35708,0.94354
17.11601,0.95099
16.87494,0.93595
16.63387,0.96015
16.39280,0.97969
16.15173,0.90474
15.91066,0.78165
15.66959,0.81179
15.42852,1.04040
15.18745,1.04130
14.94637,0.88788
14.70530,0.75560
14.46423,0.63543
14.22316,0.54652
13.98209,0.56507
13.74102,0.71809
13.49995,0.86807
13.25888,0.95804
13.01781,0.93699
12.77674,0.82222
12.53567,0.69754
12.29460,0.61216
12.05353,0.60375
11.81246,0.68117
11.57139,0.87623
11.33032,1.14320
11.08925,1.09304
10.84818,0.95490
10.60710,0.95214
10.36603,0.95935
10.12496,0.93873
9.88389,0.87935
9.64282,0.92464
9.40175,1.18244
9.16068,1.34613
8.91961,1.11420
8.67854,0.93598
8.43747,0.87551
8.19640,0.90268
7.95533,1.00150
7.71426,1.07674
7.47319,0.95117
7.23212,0.86722
6.99105,0.92874
6.74998,0.99810
6.50891,1.00172
6.26783,0.95665
6.02676,0.85144
5.78569,0.80416
5.54462,0.78632
5.30355,0.90606
5.06248,1.07010
4.82141,0.89438
4.58034,0.85500
4.33927,1.02558
4.09820,1.25087
3.85713,1.33220
3.61606,1.27326
3.37499,1.20079
3.13392,1.07122
2.89285,0.88923
2.65178,0.88778
2.41071,0.97251
2.16964,1.01528
1.92856,1.04082
1.68749,1.02313
1.44642,0.98092
1.20535,0.92756
0.96428,0.82374
0.72321,0.70779
0.48214,0.60991
0.24107,0.63222
-0.00000,0.67839
