399.69498,1.89724
399.45391,1.83153
399.21284,1.81063
398.97177,1.85198
398.73070,1.93080
398.48963,1.98414
398.24856,1.98082
398.00749,1.97174
397.76642,1.98688
397.52535,2.00141
397.28428,2.00300
397.04321,1.99256
396.80214,1.96913
396.56107,1.93699
396.32000,1.90639
396.07892,1.88131
395.83785,1.86116
395.59678,1.87575
395.35571,1.94813
395.11464,2.06089
394.87357,2.13953
394.63250,2.06891
394.39143,1.90437
394.15036,1.79358
393.90929,1.76863
393.66822,1.81604
393.42715,1.93084
393.18608,2.07747
392.94501,2.13288
392.70394,2.11410
392.46287,2.05436
392.22180,1.99456
391.98073,1.97850
391.73965,2.04894
391.49858,2.13399
391.25751,2.13803
391.01644,2.09346
390.77537,2.02878
390.53430,1.95191
390.29323,1.91796
390.05216,1.90434
389.81109,1.94221
389.57002,2.06765
389.32895,2.23897
389.08788,2.29082
388.84681,2.35724
388.60574,2.43136
388.36467,2.23213
388.12360,2.09726
387.88253,1.97405
387.64146,1.90880
387.40038,1.94401
387.15931,2.04457
386.91824,2.13798
386.67717,2.12513
386.43610,2.03183
386.19503,1.94074
385.95396,1.90568
385.71289,1.96266
385.47182,2.07502
385.23075,1.92518
384.98968,1.76217
384.74861,1.73925
384.50754,1.89245
384.26647,2.16473
384.02540,2.23806
383.78433,2.29232
383.54326,2.02626
383.30219,1.80435
383.06111,1.78659
382.82004,1.75615
382.57897,1.66794
382.33790,1.61720
382.09683,1.64053
381.85576,1.70228
381.61469,1.78349
381.37362,1.92262
381.13255,2.00313
380.89148,1.82470
380.65041,1.70351
380.40934,1.67950
380.16827,1.64511
379.92720,1.69878
379.68613,1.89207
379.44506,1.96030
379.20399,1.86002
378.96292,1.93207
378.72184,2.24282
378.48077,2.27751
378.23970,2.05016
377.99863,1.96821
377.75756,1.92735
377.51649,1.86301
377.27542,1.83581
377.03435,1.85847
376.79328,1.89671
376.55221,1.91063
376.31114,1.94457
376.07007,2.01522
375.82900,2.04553
375.58793,1.96887
375.34686,1.92237
375.10579,1.95325
374.86472,1.97565
374.62365,1.95248
374.38257,1.96038
374.14150,1.98954
373.90043,1.99415
373.65936,1.94971
373.41829,1.87512
373.17722,1.82368
372.93615,1.80214
372.69508,1.79534
372.45401,1.80095
372.21294,1.81015
371.97187,1.82189
371.73080,1.83989
371.48973,1.83739
371.24866,1.79388
371.00759,1.73295
370.76652,1.70206
370.52545,1.73552
370.28437,1.80691
370.04330,1.85237
369.80223,1.84734
369.56116,1.80277
369.32009,1.74704
369.07902,1.69348
368.83795,1.63287
368.59688,1.58417
368.35581,1.57996
368.11474,1.61801
367.87367,1.67247
367.63260,1.71705
367.39153,1.72956
367.15046,1.72122
366.90939,1.71798
366.66832,1.70007
366.42725,1.65814
366.18618,1.61840
365.94510,1.58812
365.70403,1.57264
365.46296,1.57422
365.22189,1.58436
364.98082,1.59709
364.73975,1.61454
364.49868,1.63451
364.25761,1.63919
364.01654,1.61529
363.77547,1.58125
363.53440,1.56668
363.29333,1.58075
363.05226,1.60729
362.81119,1.61389
362.57012,1.58192
362.32905,1.53370
362.08798,1.50156
361.84691,1.49237
361.60583,1.49507
361.36476,1.49925
361.12369,1.49302
360.88262,1.47263
360.64155,1.45381
360.40048,1.44943
360.15941,1.45060
359.91834,1.44659
359.67727,1.45010
359.43620,1.47141
359.19513,1.49165
358.95406,1.49672
358.71299,1.50661
358.47192,1.53854
358.23085,1.57463
357.98978,1.58496
357.74871,1.57747
357.50764,1.57754
357.26656,1.58250
357.02549,1.57726
356.78442,1.56410
356.54335,1.54963
356.30228,1.52998
356.06121,1.50448
355.82014,1.48549
355.57907,1.47836
355.33800,1.46806
355.09693,1.44481
354.85586,1.42428
354.61479,1.42398
354.37372,1.44601
354.13265,1.48250
353.89158,1.52563
353.65051,1.56936
353.40944,1.59937
353.16837,1.59443
352.92729,1.55576
352.68622,1.51499
352.44515,1.49554
352.20408,1.49285
351.96301,1.49212
351.72194,1.48810
351.48087,1.48491
351.23980,1.48604
350.99873,1.49020
350.75766,1.49448
350.51659,1.49425
350.27552,1.48201
350.03445,1.45477
349.79338,1.42370
349.55231,1.40805
349.31124,1.41322
349.07017,1.43164
348.82910,1.46202
348.58802,1.49609
348.34695,1.51343
348.10588,1.50836
347.86481,1.49862
347.62374,1.50266
347.38267,1.51302
347.14160,1.50872
346.90053,1.48704
346.65946,1.46137
346.41839,1.45011
346.17732,1.46516
345.93625,1.50237
345.69518,1.53763
345.45411,1.54625
345.21304,1.53949
344.97197,1.54879
344.73090,1.57908
344.48983,1.60523
344.24875,1.61701
344.00768,1.62605
343.76661,1.63143
343.52554,1.62880
343.28447,1.62366
343.04340,1.61492
342.80233,1.60129
342.56126,1.59675
342.32019,1.59755
342.07912,1.57876
341.83805,1.54822
341.59698,1.55670
341.35591,1.63885
341.11484,1.74433
340.87377,1.76047
340.63270,1.70841
340.39163,1.66781
340.15056,1.66804
339.90948,1.70337
339.66841,1.76225
339.42734,1.81563
339.18627,1.84228
338.94520,1.84976
338.70413,1.81551
338.46306,1.78334
338.22199,1.79636
337.98092,1.81625
337.73985,1.79441
337.49878,1.81091
337.25771,1.90372
337.01664,1.91692
336.77557,1.85739
336.53450,1.82001
336.29343,1.78600
336.05236,1.76865
335.81129,1.77161
335.57021,1.78176
335.32914,1.80839
335.08807,1.85641
334.84700,1.90481
334.60593,1.95261
334.36486,2.00896
334.12379,1.99486
333.88272,1.91009
333.64165,1.83187
333.40058,1.81123
333.15951,1.87998
332.91844,1.99652
332.67737,2.04152
332.43630,1.96897
332.19523,1.88787
331.95416,1.86713
331.71309,1.88644
331.47202,1.92478
331.23094,1.98003
330.98987,2.01489
330.74880,2.04743
330.50773,1.96067
330.26666,1.78292
330.02559,1.67681
329.78452,1.66743
329.54345,1.69550
329.30238,1.69301
329.06131,1.64618
328.82024,1.60194
328.57917,1.60511
328.33810,1.66222
328.09703,1.73834
327.85596,1.78256
327.61489,1.77782
327.37382,1.74535
327.13275,1.72467
326.89167,1.70440
326.65060,1.67666
326.40953,1.69073
326.16846,1.77164
325.92739,1.89036
325.68632,1.96859
325.44525,1.94825
325.20418,1.87885
324.96311,1.80305
324.72204,1.74982
324.48097,1.75098
324.23990,1.78262
323.99883,1.80523
323.75776,1.85272
323.51669,1.91904
323.27562,1.86117
323.03455,1.74047
322.79348,1.69424
322.55240,1.69959
322.31133,1.71808
322.07026,1.75134
321.82919,1.80254
321.58812,1.89391
321.34705,1.99021
321.10598,2.03609
320.86491,2.07322
320.62384,2.13070
320.38277,2.18678
320.14170,2.18853
319.90063,2.02437
319.65956,1.86880
319.41849,1.84881
319.17742,1.93255
318.93635,1.98546
318.69528,2.00147
318.45421,2.17093
318.21313,2.44261
317.97206,2.16467
317.73099,1.89740
317.48992,1.79852
317.24885,1.76682
317.00778,1.69930
316.76671,1.62182
316.52564,1.62252
316.28457,1.73143
316.04350,1.88158
315.80243,1.85063
315.56136,1.76801
315.32029,1.74122
315.07922,1.74984
314.83815,1.77722
314.59708,1.80820
314.35601,1.82482
314.11494,1.85266
313.87386,1.88774
313.63279,1.91341
313.39172,1.93834
313.15065,1.96400
312.90958,1.96070
312.66851,1.88942
312.42744,1.84317
312.18637,1.89070
311.94530,2.03603
311.70423,2.15439
311.46316,2.08016
311.22209,2.03543
310.98102,2.11954
310.73995,2.19754
310.49888,2.06889
310.25781,1.90699
310.01674,1.84284
309.77567,1.90841
309.53459,2.06229
309.29352,2.06439
309.05245,1.94660
308.81138,1.88603
308.57031,1.86693
308.32924,1.82596
308.08817,1.76727
307.84710,1.73037
307.60603,1.72174
307.36496,1.73515
307.12389,1.74317
306.88282,1.71347
306.64175,1.65927
306.40068,1.62744
306.15961,1.64764
305.91854,1.68312
305.67747,1.66852
305.43640,1.62107
305.19532,1.59201
304.95425,1.58117
304.71318,1.57654
304.47211,1.57592
304.23104,1.55664
303.98997,1.51294
303.74890,1.48278
303.50783,1.49053
303.26676,1.51590
303.02569,1.51704
302.78462,1.48595
302.54355,1.45834
302.30248,1.45356
302.06141,1.45946
301.82034,1.46028
301.57927,1.45302
301.33820,1.44302
301.09713,1.44117
300.85605,1.45133
300.61498,1.45271
300.37391,1.42030
300.13284,1.36578
299.89177,1.32347
299.65070,1.31140
299.40963,1.32018
299.16856,1.32698
298.92749,1.32052
298.68642,1.30944
298.44535,1.30554
298.20428,1.30652
297.96321,1.29848
297.72214,1.27447
297.48107,1.24431
297.24000,1.22271
296.99893,1.21370
296.75786,1.20849
296.51678,1.19813
296.27571,1.18783
296.03464,1.19096
295.79357,1.20873
295.55250,1.22372
295.31143,1.22005
295.07036,1.20379
294.82929,1.18964
294.58822,1.17980
294.34715,1.16944
294.10608,1.16093
293.86501,1.15945
293.62394,1.16301
293.38287,1.16598
293.14180,1.16601
292.90073,1.16497
292.65966,1.16718
292.41859,1.17572
292.17751,1.18751
291.93644,1.19410
291.69537,1.19118
291.45430,1.18387
291.21323,1.17879
290.97216,1.17652
290.73109,1.17297
290.49002,1.16399
290.24895,1.14976
290.00788,1.13782
289.76681,1.13763
289.52574,1.14717
289.28467,1.15028
289.04360,1.13666
288.80253,1.11722
288.56146,1.10779
288.32039,1.10956
288.07932,1.11490
287.83824,1.11958
287.59717,1.12089
287.35610,1.11594
287.11503,1.10749
286.87396,1.10314
286.63289,1.10878
286.39182,1.12093
286.15075,1.12738
285.90968,1.12096
285.66861,1.10750
285.42754,1.09697
285.18647,1.09389
284.94540,1.09732
284.70433,1.10291
284.46326,1.10374
284.22219,1.09554
283.98112,1.08168
283.74005,1.06942
283.49897,1.06398
283.25790,1.06647
283.01683,1.07314
282.77576,1.07733
282.53469,1.07627
282.29362,1.07359
282.05255,1.07309
281.81148,1.07453
281.57041,1.07640
281.32934,1.07837
281.08827,1.07788
280.84720,1.06962
280.60613,1.05495
280.36506,1.04494
280.12399,1.04705
279.88292,1.05608
279.64185,1.06282
279.40078,1.06507
279.15970,1.06645
278.91863,1.06926
278.67756,1.07212
278.43649,1.07290
278.19542,1.07169
277.95435,1.07034
277.71328,1.06901
277.47221,1.06535
277.23114,1.05933
276.99007,1.05685
276.74900,1.06363
276.50793,1.07590
276.26686,1.08361
276.02579,1.08310
275.78472,1.07860
275.54365,1.07349
275.30258,1.06823
275.06151,1.06394
274.82043,1.06164
274.57936,1.06047
274.33829,1.05962
274.09722,1.06054
273.85615,1.06507
273.61508,1.07243
273.37401,1.07880
273.13294,1.08001
272.89187,1.07613
272.65080,1.07004
272.40973,1.06204
272.16866,1.05172
271.92759,1.04271
271.68652,1.04089
271.44545,1.04829
271.20438,1.05982
270.96331,1.06650
270.72224,1.06392
270.48116,1.05708
270.24009,1.05320
269.99902,1.05372
269.75795,1.05710
269.51688,1.06424
269.27581,1.07573
269.03474,1.08803
268.79367,1.09753
268.55260,1.10597
268.31153,1.11686
268.07046,1.12734
267.82939,1.12850
267.58832,1.11715
267.34725,1.10351
267.10618,1.10018
266.86511,1.10779
266.62404,1.11614
266.38297,1.11707
266.14189,1.11248
265.90082,1.11046
265.65975,1.11695
265.41868,1.13187
265.17761,1.15059
264.93654,1.16565
264.69547,1.17018
264.45440,1.16495
264.21333,1.16066
263.97226,1.16904
263.73119,1.18998
263.49012,1.20955
263.24905,1.21361
263.00798,1.20485
262.76691,1.20169
262.52584,1.21477
262.28477,1.23754
262.04370,1.25882
261.80262,1.27648
261.56155,1.29323
261.32048,1.30356
261.07941,1.29995
260.83834,1.28797
260.59727,1.27975
260.35620,1.27993
260.11513,1.28825
259.87406,1.30599
259.63299,1.33253
259.39192,1.36010
259.15085,1.37936
258.90978,1.39126
258.66871,1.40484
258.42764,1.42511
258.18657,1.45093
257.94550,1.47690
257.70443,1.49894
257.46335,1.52391
257.22228,1.56111
256.98121,1.60714
256.74014,1.64996
256.49907,1.68070
256.25800,1.69804
256.01693,1.70540
255.77586,1.70242
255.53479,1.69733
255.29372,1.70527
255.05265,1.73201
254.81158,1.77901
254.57051,1.84532
254.32944,1.92090
254.08837,1.98037
253.84730,2.00577
253.60623,2.01055
253.36516,2.00303
253.12408,1.98754
252.88301,1.98704
252.64194,2.02023
252.40087,2.08530
252.15980,2.18817
251.91873,2.30179
251.67766,2.34280
251.43659,2.24450
251.19552,2.11584
250.95445,2.08278
250.71338,2.17077
250.47231,2.30077
250.23124,2.32163
249.99017,2.23985
249.74910,2.16715
249.50803,2.15215
249.26696,2.21250
249.02589,2.34853
248.78481,2.48544
248.54374,2.45440
248.30267,2.41891
248.06160,2.43922
247.82053,2.42979
247.57946,2.44568
247.33839,2.22044
247.09732,2.03403
246.85625,1.93965
246.61518,1.94019
246.37411,2.01653
246.13304,2.07116
245.89197,2.02307
245.65090,1.95835
245.40983,1.89824
245.16876,1.85857
244.92769,1.86550
244.68661,1.89442
244.44554,1.87348
244.20447,1.81402
243.96340,1.77647
243.72233,1.76071
243.48126,1.73435
243.24019,1.67260
242.99912,1.58180
242.75805,1.49642
242.51698,1.43563
242.27591,1.39493
242.03484,1.36135
241.79377,1.32831
241.55270,1.29650
241.31163,1.26404
241.07056,1.22574
240.82949,1.18216
240.58842,1.14118
240.34734,1.10874
240.10627,1.08509
239.86520,1.06948
239.62413,1.06094
239.38306,1.05403
239.14199,1.04064
238.90092,1.01855
238.65985,0.99447
238.41878,0.97440
238.17771,0.95736
237.93664,0.94139
237.69557,0.92857
237.45450,0.92093
237.21343,0.91628
236.97236,0.91139
236.73129,0.90528
236.49022,0.89786
236.24915,0.88853
236.00807,0.87800
235.76700,0.86897
235.52593,0.86279
235.28486,0.85703
235.04379,0.84850
234.80272,0.83726
234.56165,0.82639
234.32058,0.81958
234.07951,0.81883
233.83844,0.82168
233.59737,0.82131
233.35630,0.81312
233.11523,0.80122
232.87416,0.79395
232.63309,0.79403
232.39202,0.79715
232.15095,0.79884
231.90988,0.79804
231.66880,0.79383
231.42773,0.78512
231.18666,0.77464
230.94559,0.76751
230.70452,0.76470
230.46345,0.76277
230.22238,0.75996
229.98131,0.75795
229.74024,0.75760
229.49917,0.75663
229.25810,0.75203
229.01703,0.74328
228.77596,0.73331
228.53489,0.72651
228.29382,0.72486
228.05275,0.72639
227.81168,0.72784
227.57061,0.72789
227.32953,0.72756
227.08846,0.72930
226.84739,0.73535
226.60632,0.74420
226.36525,0.74941
226.12418,0.74635
225.88311,0.73904
225.64204,0.73475
225.40097,0.73424
225.15990,0.73325
224.91883,0.73115
224.67776,0.73131
224.43669,0.73406
224.19562,0.73588
223.95455,0.73538
223.71348,0.73506
223.47241,0.73730
223.23134,0.74188
222.99026,0.74669
222.74919,0.74962
222.50812,0.75069
222.26705,0.75196
222.02598,0.75487
221.78491,0.75891
221.54384,0.76291
221.30277,0.76629
221.06170,0.76930
220.82063,0.77317
220.57956,0.77951
220.33849,0.78860
220.09742,0.79800
219.85635,0.80401
219.61528,0.80544
219.37421,0.80568
219.13314,0.80953
218.89207,0.81833
218.65099,0.82942
218.40992,0.84032
218.16885,0.85128
217.92778,0.86344
217.68671,0.87576
217.44564,0.88599
217.20457,0.89428
216.96350,0.90327
216.72243,0.91377
216.48136,0.92286
216.24029,0.92809
215.99922,0.93135
215.75815,0.93605
215.51708,0.94314
215.27601,0.95199
215.03494,0.96261
214.79387,0.97420
214.55280,0.98434
214.31172,0.99223
214.07065,0.99988
213.82958,1.00898
213.58851,1.01897
213.34744,1.02858
213.10637,1.03695
212.86530,1.04198
212.62423,1.03993
212.38316,1.03046
212.14209,1.02052
211.90102,1.01918
211.65995,1.02859
211.41888,1.04125
211.17781,1.04852
210.93674,1.05035
210.69567,1.05179
210.45460,1.05339
210.21353,1.05112
209.97245,1.04326
209.73138,1.03282
209.49031,1.02420
209.24924,1.02071
209.00817,1.02285
208.76710,1.02751
208.52603,1.03005
208.28496,1.02831
208.04389,1.02379
207.80282,1.01845
207.56175,1.01335
207.32068,1.00890
207.07961,1.00487
206.83854,1.00017
206.59747,0.99379
206.35640,0.98637
206.11533,0.97934
205.87426,0.97289
205.63318,0.96643
205.39211,0.95992
205.15104,0.95277
204.90997,0.94298
204.66890,0.93066
204.42783,0.91983
204.18676,0.91297
203.94569,0.90662
203.70462,0.89629
203.46355,0.88309
203.22248,0.87144
202.98141,0.86207
202.74034,0.85148
202.49927,0.83865
202.25820,0.82765
202.01713,0.82098
201.77606,0.81497
201.53499,0.80540
201.29391,0.79436
201.05284,0.78646
200.81177,0.78131
200.57070,0.77443
200.32963,0.76375
200.08856,0.75160
199.84749,0.74124
199.60642,0.73374
199.36535,0.72757
199.12428,0.72013
198.88321,0.71004
198.64214,0.69821
198.40107,0.68679
198.16000,0.67727
197.91893,0.66956
197.67786,0.66271
197.43679,0.65631
197.19572,0.65052
196.95464,0.64481
196.71357,0.63784
196.47250,0.62894
196.23143,0.61902
195.99036,0.60989
195.74929,0.60304
195.50822,0.59878
195.26715,0.59635
195.02608,0.59481
194.78501,0.59327
194.54394,0.59104
194.30287,0.58812
194.06180,0.58455
193.82073,0.57939
193.57966,0.57135
193.33859,0.56120
193.09752,0.55199
192.85645,0.54630
192.61537,0.54465
192.37430,0.54611
192.13323,0.54849
191.89216,0.54809
191.65109,0.54221
191.41002,0.53285
191.16895,0.52517
190.92788,0.52227
190.68681,0.52307
190.44574,0.52437
190.20467,0.52341
189.96360,0.51943
189.72253,0.51413
189.48146,0.51024
189.24039,0.50877
188.99932,0.50828
188.75825,0.50693
188.51718,0.50480
188.27610,0.50337
188.03503,0.50267
187.79396,0.50074
187.55289,0.49707
187.31182,0.49462
187.07075,0.49574
186.82968,0.49785
186.58861,0.49658
186.34754,0.49248
186.10647,0.49042
185.86540,0.49250
185.62433,0.49511
185.38326,0.49448
185.14219,0.49207
184.90112,0.49166
184.66005,0.49375
184.41898,0.49602
184.17791,0.49743
183.93683,0.49885
183.69576,0.50032
183.45469,0.50047
183.21362,0.49868
182.97255,0.49626
182.73148,0.49535
182.49041,0.49719
182.24934,0.50129
182.00827,0.50598
181.76720,0.50973
181.52613,0.51196
181.28506,0.51303
181.04399,0.51376
180.80292,0.51471
180.56185,0.51608
180.32078,0.51771
180.07971,0.51909
179.83864,0.52038
179.59756,0.52309
179.35649,0.52793
179.11542,0.53325
178.87435,0.53759
178.63328,0.54193
178.39221,0.54782
178.15114,0.55560
177.91007,0.56518
177.66900,0.57634
177.42793,0.58798
177.18686,0.59876
176.94579,0.60834
176.70472,0.61730
176.46365,0.62626
176.22258,0.63557
175.98151,0.64575
175.74044,0.65773
175.49937,0.67209
175.25829,0.68792
175.01722,0.70330
174.77615,0.71675
174.53508,0.72797
174.29401,0.73790
174.05294,0.74804
173.81187,0.75892
173.57080,0.76942
173.32973,0.77875
173.08866,0.78798
172.84759,0.79814
172.60652,0.80799
172.36545,0.81560
172.12438,0.82174
171.88331,0.82935
171.64224,0.83863
171.40117,0.84470
171.16010,0.84346
170.91902,0.83749
170.67795,0.83164
170.43688,0.82663
170.19581,0.82059
169.95474,0.81336
169.71367,0.80575
169.47260,0.79662
169.23153,0.78447
168.99046,0.77140
168.74939,0.76206
168.50832,0.75928
168.26725,0.76180
168.02618,0.76606
167.78511,0.76973
167.54404,0.77254
167.30297,0.77442
167.06190,0.77476
166.82083,0.77366
166.57975,0.77207
166.33868,0.77092
166.09761,0.77092
165.85654,0.77280
165.61547,0.77682
165.37440,0.78279
165.13333,0.79090
164.89226,0.80040
164.65119,0.80843
164.41012,0.81361
164.16905,0.81854
163.92798,0.82479
163.68691,0.83001
163.44584,0.83378
163.20477,0.84006
162.96370,0.85024
162.72263,0.86019
162.48156,0.86662
162.24048,0.87049
161.99941,0.87273
161.75834,0.87235
161.51727,0.86941
161.27620,0.86673
161.03513,0.86767
160.79406,0.87269
160.55299,0.87884
160.31192,0.88304
160.07085,0.88405
159.82978,0.88028
159.58871,0.86913
159.34764,0.85146
159.10657,0.83372
158.86550,0.82275
158.62443,0.81974
158.38336,0.82008
158.14229,0.81874
157.90121,0.81542
157.66014,0.81343
157.41907,0.81479
157.17800,0.81822
156.93693,0.82068
156.69586,0.81919
156.45479,0.81194
156.21372,0.79936
155.97265,0.78522
155.73158,0.77502
155.49051,0.77134
155.24944,0.77129
155.00837,0.77004
154.76730,0.76512
154.52623,0.75652
154.28516,0.74552
154.04409,0.73426
153.80302,0.72393
153.56194,0.71294
153.32087,0.69894
153.07980,0.68311
152.83873,0.66936
152.59766,0.65930
152.35659,0.65047
152.11552,0.64020
151.87445,0.62864
151.63338,0.61687
151.39231,0.60463
151.15124,0.59222
150.91017,0.58131
150.66910,0.57216
150.42803,0.56337
150.18696,0.55496
149.94589,0.54793
149.70482,0.54088
149.46375,0.53095
149.22267,0.51845
148.98160,0.50751
148.74053,0.50128
148.49946,0.49885
148.25839,0.49714
148.01732,0.49421
147.77625,0.48994
147.53518,0.48476
147.29411,0.47944
147.05304,0.47548
146.81197,0.47421
146.57090,0.47547
146.32983,0.47791
146.08876,0.48021
145.84769,0.48186
145.60662,0.48359
145.36555,0.48697
145.12448,0.49261
144.88340,0.49923
144.64233,0.50557
144.40126,0.51196
144.16019,0.51821
143.91912,0.52210
143.67805,0.52201
143.43698,0.51856
143.19591,0.51213
142.95484,0.50265
142.71377,0.49246
142.47270,0.48482
142.23163,0.47997
141.99056,0.47563
141.74949,0.47005
141.50842,0.46335
141.26735,0.45714
141.02628,0.45303
140.78521,0.45044
140.54413,0.44741
140.30306,0.44396
140.06199,0.44195
139.82092,0.44183
139.57985,0.44226
139.33878,0.44298
139.09771,0.44548
138.85664,0.45046
138.61557,0.45677
138.37450,0.46328
138.13343,0.46980
137.89236,0.47619
137.65129,0.48294
137.41022,0.49203
137.16915,0.50442
136.92808,0.51761
136.68701,0.52909
136.44594,0.54058
136.20486,0.55551
135.96379,0.57388
135.72272,0.59263
135.48165,0.61050
135.24058,0.62975
134.99951,0.65273
134.75844,0.67866
134.51737,0.70520
134.27630,0.73178
134.03523,0.75836
133.79416,0.78107
133.55309,0.79523
133.31202,0.80325
133.07095,0.81169
132.82988,0.82369
132.58881,0.83886
132.34774,0.85581
132.10667,0.87334
131.86559,0.89193
131.62452,0.91190
131.38345,0.92834
131.14238,0.93324
130.90131,0.92476
130.66024,0.90904
130.41917,0.89220
130.17810,0.87652
129.93703,0.86264
129.69596,0.84925
129.45489,0.83242
129.21382,0.80932
128.97275,0.78132
128.73168,0.75234
128.49061,0.72606
128.24954,0.70351
128.00847,0.68209
127.76740,0.65813
127.52632,0.63131
127.28525,0.60494
127.04418,0.58214
126.80311,0.56382
126.56204,0.54888
126.32097,0.53512
126.07990,0.52116
125.83883,0.50772
125.59776,0.49556
125.35669,0.48328
125.11562,0.46927
124.87455,0.45456
124.63348,0.44128
124.39241,0.42974
124.15134,0.41977
123.91027,0.41253
123.66920,0.40763
123.42812,0.40175
123.18705,0.39361
122.94598,0.38622
122.70491,0.38162
122.46384,0.37807
122.22277,0.37394
121.98170,0.37026
121.74063,0.36826
121.49956,0.36776
121.25849,0.36873
121.01742,0.37189
120.77635,0.37827
120.53528,0.38854
120.29421,0.40125
120.05314,0.41195
119.81207,0.41727
119.57100,0.41998
119.32993,0.42709
119.08885,0.44356
118.84778,0.46850
118.60671,0.49570
118.36564,0.51881
118.12457,0.53819
117.88350,0.55977
117.64243,0.58542
117.40136,0.60853
117.16029,0.62250
116.91922,0.62907
116.67815,0.63388
116.43708,0.63863
116.19601,0.64117
115.95494,0.63848
115.71387,0.62821
115.47280,0.61232
115.23173,0.59817
114.99066,0.59060
114.74958,0.58478
114.50851,0.57266
114.26744,0.55460
114.02637,0.53845
113.78530,0.52925
113.54423,0.52611
113.30316,0.52780
113.06209,0.53493
112.82102,0.54490
112.57995,0.54986
112.33888,0.54540
112.09781,0.53776
111.85674,0.53633
111.61567,0.54311
111.37460,0.55325
111.13353,0.56198
110.89246,0.56733
110.65139,0.56861
110.41031,0.56626
110.16924,0.56255
109.92817,0.55958
109.68710,0.55724
109.44603,0.55370
109.20496,0.54691
108.96389,0.53500
108.72282,0.51723
108.48175,0.49560
108.24068,0.47376
107.99961,0.45397
107.75854,0.43724
107.51747,0.42450
107.27640,0.41436
107.03533,0.40256
106.79426,0.38713
106.55319,0.37124
106.31212,0.35897
106.07104,0.35061
105.82997,0.34339
105.58890,0.33568
105.34783,0.32859
105.10676,0.32269
104.86569,0.31529
104.62462,0.30406
104.38355,0.29151
104.14248,0.28186
103.90141,0.27573
103.66034,0.27097
103.41927,0.26604
103.17820,0.26053
102.93713,0.25453
102.69606,0.24871
102.45499,0.24383
102.21392,0.23992
101.97285,0.23659
101.73177,0.23386
101.49070,0.23192
101.24963,0.23043
101.00856,0.22865
100.76749,0.22616
100.52642,0.22345
100.28535,0.22151
100.04428,0.22053
99.80321,0.21937
99.56214,0.21716
99.32107,0.21492
99.08000,0.21390
98.83893,0.21312
98.59786,0.21091
98.35679,0.20742
98.11572,0.20407
97.87465,0.20207
97.63358,0.20230
97.39250,0.20527
97.15143,0.21043
96.91036,0.21655
96.66929,0.22235
96.42822,0.22668
96.18715,0.22920
95.94608,0.23080
95.70501,0.23254
95.46394,0.23465
95.22287,0.23719
94.98180,0.24090
94.74073,0.24620
94.49966,0.25168
94.25859,0.25440
94.01752,0.25266
93.77645,0.24834
93.53538,0.24511
93.29431,0.24516
93.05323,0.24811
92.81216,0.25198
92.57109,0.25436
92.33002,0.25411
92.08895,0.25267
91.84788,0.25262
91.60681,0.25484
91.36574,0.25843
91.12467,0.26397
90.88360,0.27474
90.64253,0.29316
90.40146,0.31738
90.16039,0.34376
89.91932,0.37141
89.67825,0.40246
89.43718,0.43809
89.19611,0.47572
88.95504,0.50985
88.71396,0.53587
88.47289,0.55295
88.23182,0.56176
87.99075,0.55998
87.74968,0.54419
87.50861,0.51625
87.26754,0.48377
87.02647,0.45334
86.78540,0.42559
86.54433,0.39782
86.30326,0.36994
86.06219,0.34497
85.82112,0.32437
85.58005,0.30648
85.33898,0.28962
85.09791,0.27344
84.85684,0.25754
84.61577,0.24166
84.37469,0.22660
84.13362,0.21354
83.89255,0.20322
83.65148,0.19582
83.41041,0.19032
83.16934,0.18486
82.92827,0.17889
82.68720,0.17353
82.44613,0.16918
82.20506,0.16462
81.96399,0.15953
81.72292,0.15536
81.48185,0.15312
81.24078,0.15167
80.99971,0.14917
80.75864,0.14526
80.51757,0.14124
80.27650,0.13821
80.03542,0.13540
79.79435,0.13147
79.55328,0.12694
79.31221,0.12396
79.07114,0.12392
78.83007,0.12612
78.58900,0.12812
78.34793,0.12745
78.10686,0.12410
77.86579,0.12048
77.62472,0.11825
77.38365,0.11687
77.14258,0.11584
76.90151,0.11579
76.66044,0.11675
76.41937,0.11729
76.17830,0.11613
75.93723,0.11354
75.69615,0.11116
75.45508,0.11056
75.21401,0.11177
74.97294,0.11335
74.73187,0.11356
74.49080,0.11154
74.24973,0.10788
74.00866,0.10445
73.76759,0.10269
73.52652,0.10240
73.28545,0.10260
73.04438,0.10309
72.80331,0.10393
72.56224,0.10453
72.32117,0.10428
72.08010,0.10342
71.83903,0.10255
71.59796,0.10197
71.35688,0.10200
71.11581,0.10328
70.87474,0.10615
70.63367,0.11027
70.39260,0.11512
70.15153,0.12070
69.91046,0.12797
69.66939,0.13823
69.42832,0.15053
69.18725,0.16083
68.94618,0.16528
68.70511,0.16288
68.46404,0.15427
68.22297,0.14100
67.98190,0.12636
67.74083,0.11371
67.49976,0.10426
67.25869,0.09768
67.01761,0.09356
66.77654,0.09096
66.53547,0.08841
66.29440,0.08579
66.05333,0.08470
65.81226,0.08596
65.57119,0.08796
65.33012,0.08893
65.08905,0.08995
64.84798,0.09370
64.60691,0.10055
64.36584,0.10815
64.12477,0.11496
63.88370,0.12110
63.64263,0.12568
63.40156,0.12623
63.16049,0.12170
62.91942,0.11418
62.67834,0.10698
62.43727,0.10196
62.19620,0.09906
61.95513,0.09743
61.71406,0.09635
61.47299,0.09482
61.23192,0.09165
60.99085,0.08683
60.74978,0.08191
60.50871,0.07812
60.26764,0.07546
60.02657,0.07410
59.78550,0.07462
59.54443,0.07651
59.30336,0.07799
59.06229,0.07792
58.82122,0.07650
58.58015,0.07443
58.33907,0.07215
58.09800,0.06961
57.85693,0.06679
57.61586,0.06540
57.37479,0.06785
57.13372,0.07305
56.89265,0.07559
56.65158,0.07127
56.41051,0.06186
56.16944,0.05270
55.92837,0.04743
55.68730,0.04640
55.44623,0.04864
55.20516,0.05259
54.96409,0.05572
54.72302,0.05652
54.48195,0.05687
54.24088,0.06003
53.99980,0.06644
53.75873,0.07312
53.51766,0.07670
53.27659,0.07591
53.03552,0.07208
52.79445,0.06759
52.55338,0.06345
52.31231,0.06006
52.07124,0.05907
51.83017,0.06176
51.58910,0.06594
51.34803,0.06751
51.10696,0.06476
50.86589,0.05950
50.62482,0.05454
50.38375,0.05193
50.14268,0.05328
49.90161,0.05932
49.66053,0.06778
49.41946,0.07403
49.17839,0.07585
48.93732,0.07483
48.69625,0.07203
48.45518,0.06598
48.21411,0.05669
47.97304,0.04859
47.73197,0.04596
47.49090,0.04626
47.24983,0.04306
47.00876,0.03517
46.76769,0.02826
46.52662,0.02733
46.28555,0.03002
46.04448,0.02858
45.80341,0.01928
45.56234,0.00824
45.32126,0.00534
45.08019,0.01165
44.83912,0.01818
44.59805,0.01903
44.35698,0.01849
44.11591,0.02178
43.87484,0.02526
43.63377,0.02094
43.39270,0.00918
43.15163,0.00154
42.91056,0.00850
42.66949,0.02609
42.42842,0.04111
42.18735,0.04646
41.94628,0.04558
41.70521,0.04620
41.46414,0.05254
41.22307,0.06317
40.98199,0.07354
40.74092,0.08001
40.49985,0.08208
40.25878,0.07823
40.01771,0.06430
39.77664,0.04496
39.53557,0.03563
39.29450,0.04333
39.05343,0.05841
38.81236,0.06911
38.57129,0.07470
38.33022,0.08009
38.08915,0.08356
37.84808,0.07973
37.60701,0.07082
37.36594,0.06515
37.12487,0.06717
36.88380,0.07414
36.64272,0.08008
36.40165,0.08073
36.16058,0.07673
35.91951,0.07501
35.67844,0.07920
35.43737,0.07712
35.19630,0.05555
34.95523,0.02534
34.71416,0.00908
34.47309,0.01037
34.23202,0.02098
33.99095,0.04335
33.74988,0.07855
33.50881,0.11073
33.26774,0.12387
33.02667,0.11875
32.78560,0.10556
32.54453,0.09119
32.30345,0.07884
32.06238,0.07283
31.82131,0.07905
31.58024,0.09630
31.33917,0.11178
31.09810,0.11116
30.85703,0.09626
30.61596,0.08369
30.37489,0.07641
30.13382,0.05951
29.89275,0.02991
29.65168,0.01258
29.41061,0.03373
29.16954,0.08372
28.92847,0.12733
28.68740,0.14559
28.44633,0.14933
28.20526,0.15513
27.96418,0.16706
27.72311,0.18117
27.48204,0.19526
27.24097,0.20651
26.99990,0.21387
26.75883,0.22044
26.51776,0.22647
26.27669,0.22773
26.03562,0.22152
25.79455,0.21071
25.55348,0.20052
25.31241,0.19145
25.07134,0.17995
24.83027,0.17282
24.58920,0.18620
24.34813,0.22082
24.10706,0.25892
23.86599,0.29971
23.62491,0.35650
23.38384,0.40191
23.14277,0.39549
22.90170,0.38770
22.66063,0.38992
22.41956,0.36043
22.17849,0.32015
21.93742,0.33302
21.69635,0.41997
21.45528,0.52754
21.21421,0.57667
20.97314,0.58542
20.73207,0.59947
20.49100,0.53134
20.24993,0.35162
20.00886,0.21667
19.76779,0.27303
19.52672,0.41583
19.28564,0.46890
19.04457,0.47566
18.80350,0.48750
18.56243,0.50531
18.32136,0.52481
18.08029,0.54187
17.83922,0.56311
17.59815,0.61477
17.35708,0.76779
17.11601,1.09307
16.87494,1.24294
16.63387,1.11137
16.39280,0.84551
16.15173,0.63113
15.91066,0.55168
15.66959,0.62742
15.42852,0.67302
15.18745,0.60042
14.94637,0.54667
14.70530,0.46022
14.46423,0.39667
14.22316,0.48680
13.98209,0.63712
13.74102,0.65891
13.49995,0.67681
13.25888,0.73333
13.01781,0.83838
12.77674,0.80246
12.53567,0.73986
12.29460,0.83757
12.05353,0.94123
11.81246,0.84795
11.57139,0.91519
11.33032,0.72188
11.08925,0.52344
10.84818,0.51319
10.60710,0.59424
10.36603,0.59633
10.12496,0.61251
9.88389,0.74722
9.64282,0.97328
9.40175,1.08397
9.16068,1.05795
8.91961,0.92086
8.67854,0.72883
8.43747,0.65618
8.19640,0.66239
7.95533,0.74465
7.71426,0.88944
7.47319,1.07878
7.23212,1.12169
6.99105,0.86704
6.74998,0.78229
6.50891,0.90231
6.26783,0.95361
6.02676,0.76978
5.78569,0.68140
5.54462,0.55226
5.30355,0.45951
5.06248,0.49530
4.82141,0.70286
4.58034,1.03709
4.33927,0.99304
4.09820,0.65166
3.85713,0.44006
3.61606,0.39802
3.37499,0.55632
3.13392,0.85963
2.89285,0.74891
2.65178,0.56470
2.41071,0.54440
2.16964,0.60975
1.92856,0.68054
1.68749,0.75305
1.44642,0.80197
1.20535,0.64694
0.96428,0.44436
0.72321,0.35601
0.48214,0.37767
0.24107,0.48174
-0.00000,0.35916
