399.69498,1.93257
399.45391,2.00525
399.21284,2.11345
398.97177,2.07784
398.73070,1.98857
398.48963,1.91267
398.24856,1.88995
398.00749,1.91124
397.76642,1.89536
397.52535,1.85110
397.28428,1.86482
397.04321,1.93544
396.80214,2.01118
396.56107,2.08410
396.32000,2.11409
396.07892,2.07909
395.83785,2.06252
395.59678,2.09361
395.35571,2.13401
395.11464,2.14901
394.87357,2.12263
394.63250,2.09574
394.39143,2.09475
394.15036,2.10024
393.90929,2.06180
393.66822,1.99069
393.42715,1.95361
393.18608,1.96488
392.94501,2.00611
392.70394,2.06635
392.46287,2.14026
392.22180,2.19247
391.98073,2.19758
391.73965,2.13108
391.49858,2.11453
391.25751,2.16304
391.01644,2.13207
390.77537,2.02939
390.53430,1.91936
390.29323,1.79861
390.05216,1.78184
389.81109,1.87648
389.57002,2.01754
389.32895,2.09685
389.08788,2.06754
388.84681,1.97172
388.60574,1.91713
388.36467,1.94412
388.12360,1.98437
387.88253,2.00456
387.64146,2.00689
387.40038,1.95679
387.15931,1.95340
386.91824,2.05661
386.67717,2.15493
386.43610,2.16633
386.19503,2.12421
385.95396,2.08350
385.71289,2.07300
385.47182,2.04644
385.23075,2.08176
384.98968,2.27915
384.74861,2.43197
384.50754,2.20388
384.26647,2.02225
384.02540,2.00816
383.78433,2.04682
383.54326,2.05151
383.30219,2.00767
383.06111,1.88555
382.82004,1.94537
382.57897,2.12390
382.33790,1.94066
382.09683,1.81968
381.85576,1.76117
381.61469,1.74678
381.37362,1.88371
381.13255,2.13815
380.89148,2.10886
380.65041,2.12423
380.40934,2.32626
380.16827,2.45173
379.92720,2.44399
379.68613,2.13693
379.44506,1.90964
379.20399,1.77246
378.96292,1.68173
378.72184,1.68149
378.48077,1.80797
378.23970,2.01945
377.99863,2.08671
377.75756,2.16276
377.51649,2.40922
377.27542,2.36879
377.03435,2.21372
376.79328,2.14835
376.55221,2.13555
376.31114,2.10859
376.07007,2.13315
375.82900,2.10445
375.58793,1.99626
375.34686,1.94537
375.10579,1.97933
374.86472,2.06554
374.62365,2.07230
374.38257,1.99655
374.14150,2.01416
373.90043,2.09162
373.65936,2.24415
373.41829,2.44877
373.17722,2.30492
372.93615,2.01301
372.69508,1.88184
372.45401,1.88417
372.21294,1.98555
371.97187,2.15188
371.73080,2.42772
371.48973,2.46659
371.24866,2.03281
371.00759,1.82956
370.76652,1.76108
370.52545,1.72082
370.28437,1.68933
370.04330,1.65877
369.80223,1.64929
369.56116,1.68159
369.32009,1.73564
369.07902,1.78069
368.83795,1.76556
368.59688,1.70213
368.35581,1.65805
368.11474,1.64260
367.87367,1.62831
367.63260,1.60442
367.39153,1.59416
367.15046,1.61454
366.90939,1.64535
366.66832,1.65469
366.42725,1.64350
366.18618,1.64863
365.94510,1.67696
365.70403,1.68776
365.46296,1.66382
365.22189,1.63751
364.98082,1.62865
364.73975,1.61334
364.49868,1.57142
364.25761,1.52937
364.01654,1.52713
363.77547,1.57216
363.53440,1.62755
363.29333,1.64756
363.05226,1.63401
362.81119,1.61275
362.57012,1.59662
362.32905,1.59020
362.08798,1.59631
361.84691,1.60975
361.60583,1.61635
361.36476,1.60396
361.12369,1.57924
360.88262,1.56091
360.64155,1.55368
360.40048,1.55058
360.15941,1.55034
359.91834,1.55218
359.67727,1.54678
359.43620,1.52634
359.19513,1.50043
358.95406,1.48692
358.71299,1.48901
358.47192,1.49522
358.23085,1.49926
357.98978,1.50079
357.74871,1.49067
357.50764,1.46305
357.26656,1.43439
357.02549,1.42888
356.78442,1.45179
356.54335,1.48370
356.30228,1.50899
356.06121,1.54506
355.82014,1.59081
355.57907,1.60538
355.33800,1.58349
355.09693,1.55386
354.85586,1.53225
354.61479,1.51310
354.37372,1.48952
354.13265,1.47033
353.89158,1.46471
353.65051,1.47170
353.40944,1.48624
353.16837,1.50022
352.92729,1.49923
352.68622,1.47982
352.44515,1.45664
352.20408,1.44544
351.96301,1.45059
351.72194,1.47014
351.48087,1.50253
351.23980,1.54257
350.99873,1.57199
350.75766,1.56611
350.51659,1.53645
350.27552,1.51570
350.03445,1.51672
349.79338,1.53109
349.55231,1.54143
349.31124,1.53976
349.07017,1.53057
348.82910,1.52409
348.58802,1.53006
348.34695,1.54889
348.10588,1.56718
347.86481,1.56999
347.62374,1.55496
347.38267,1.51973
347.14160,1.47712
346.90053,1.45427
346.65946,1.46606
346.41839,1.50507
346.17732,1.54363
345.93625,1.55831
345.69518,1.54758
345.45411,1.51872
345.21304,1.49070
344.97197,1.47505
344.73090,1.47329
344.48983,1.48860
344.24875,1.50890
344.00768,1.51107
343.76661,1.50195
343.52554,1.51211
343.28447,1.54003
343.04340,1.55853
342.80233,1.56320
342.56126,1.57420
342.32019,1.61091
342.07912,1.67470
341.83805,1.73123
341.59698,1.75602
341.35591,1.76750
341.11484,1.74520
340.87377,1.69543
340.63270,1.65979
340.39163,1.66446
340.15056,1.70889
339.90948,1.75970
339.66841,1.78730
339.42734,1.77617
339.18627,1.74946
338.94520,1.74790
338.70413,1.75253
338.46306,1.74148
338.22199,1.73775
337.98092,1.76053
337.73985,1.79581
337.49878,1.80888
337.25771,1.79516
337.01664,1.79939
336.77557,1.85261
336.53450,1.96285
336.29343,2.12842
336.05236,2.24573
335.81129,2.18879
335.57021,2.07423
335.32914,2.04184
335.08807,2.08829
334.84700,2.09829
334.60593,2.03903
334.36486,1.97633
334.12379,1.91738
333.88272,1.86019
333.64165,1.83455
333.40058,1.81611
333.15951,1.77562
332.91844,1.74488
332.67737,1.72758
332.43630,1.71520
332.19523,1.72478
331.95416,1.73973
331.71309,1.73450
331.47202,1.73830
331.23094,1.78695
330.98987,1.86355
330.74880,1.87644
330.50773,1.78517
330.26666,1.68599
330.02559,1.67175
329.78452,1.75228
329.54345,1.84640
329.30238,1.84136
329.06131,1.77229
328.82024,1.68416
328.57917,1.59880
328.33810,1.54612
328.09703,1.54353
327.85596,1.57858
327.61489,1.62135
327.37382,1.66021
327.13275,1.70289
326.89167,1.73310
326.65060,1.72403
326.40953,1.69549
326.16846,1.68417
325.92739,1.68191
325.68632,1.66765
325.44525,1.65551
325.20418,1.67047
324.96311,1.70950
324.72204,1.75117
324.48097,1.78201
324.23990,1.78306
323.99883,1.73764
323.75776,1.69046
323.51669,1.71542
323.27562,1.79152
323.03455,1.79198
322.79348,1.71522
322.55240,1.66750
322.31133,1.68542
322.07026,1.75496
321.82919,1.80606
321.58812,1.78982
321.34705,1.78822
321.10598,1.85961
320.86491,1.94230
320.62384,1.93247
320.38277,1.86757
320.14170,1.84689
319.90063,1.92327
319.65956,2.06155
319.41849,2.14421
319.17742,2.08949
318.93635,1.96607
318.69528,1.86978
318.45421,1.82657
318.21313,1.80629
317.97206,1.82116
317.73099,1.87299
317.48992,1.90610
317.24885,1.93195
317.00778,2.01256
316.76671,2.06003
316.52564,1.94990
316.28457,1.93909
316.04350,2.07697
315.80243,2.06412
315.56136,1.98327
315.32029,1.97113
315.07922,1.99697
314.83815,2.05813
314.59708,2.14823
314.35601,2.20668
314.11494,2.18168
313.87386,2.14138
313.63279,2.11791
313.39172,2.11810
313.15065,2.09722
312.90958,2.03852
312.66851,1.99243
312.42744,2.03336
312.18637,2.10011
311.94530,2.07747
311.70423,2.09111
311.46316,2.20482
311.22209,2.19617
310.98102,2.01944
310.73995,2.00159
310.49888,2.14388
310.25781,2.20964
310.01674,2.14866
309.77567,2.09950
309.53459,2.10137
309.29352,2.17603
309.05245,2.24245
308.81138,2.16968
308.57031,2.00546
308.32924,1.87215
308.08817,1.81602
307.84710,1.83434
307.60603,1.86372
307.36496,1.82556
307.12389,1.76974
306.88282,1.74107
306.64175,1.74566
306.40068,1.73881
306.15961,1.65884
305.91854,1.54268
305.67747,1.47279
305.43640,1.47827
305.19532,1.53521
304.95425,1.59020
304.71318,1.59783
304.47211,1.56407
304.23104,1.52913
303.98997,1.51080
303.74890,1.49689
303.50783,1.48510
303.26676,1.48628
303.02569,1.49415
302.78462,1.49059
302.54355,1.47058
302.30248,1.45237
302.06141,1.44986
301.82034,1.45827
301.57927,1.46401
301.33820,1.45589
301.09713,1.43364
300.85605,1.40469
300.61498,1.37981
300.37391,1.37012
300.13284,1.37649
299.89177,1.38530
299.65070,1.38259
299.40963,1.37216
299.16856,1.36759
298.92749,1.36689
298.68642,1.35349
298.44535,1.32432
298.20428,1.29506
297.96321,1.27682
297.72214,1.26919
297.48107,1.26737
297.24000,1.26678
296.99893,1.26383
296.75786,1.25598
296.51678,1.24460
296.27571,1.23362
296.03464,1.22793
295.79357,1.23311
295.55250,1.25003
295.31143,1.27020
295.07036,1.28140
294.82929,1.27708
294.58822,1.26074
294.34715,1.24272
294.10608,1.22848
293.86501,1.21536
293.62394,1.20256
293.38287,1.19428
293.14180,1.19027
292.90073,1.18311
292.65966,1.17036
292.41859,1.16115
292.17751,1.16346
291.93644,1.17109
291.69537,1.17038
291.45430,1.15880
291.21323,1.14743
290.97216,1.14453
290.73109,1.14682
290.49002,1.14779
290.24895,1.14743
290.00788,1.14906
289.76681,1.15125
289.52574,1.14782
289.28467,1.13643
289.04360,1.12372
288.80253,1.11755
288.56146,1.11764
288.32039,1.11748
288.07932,1.11386
287.83824,1.10976
287.59717,1.10748
287.35610,1.10663
287.11503,1.10861
286.87396,1.11514
286.63289,1.12164
286.39182,1.12061
286.15075,1.11316
285.90968,1.10755
285.66861,1.10680
285.42754,1.10790
285.18647,1.11047
284.94540,1.11555
284.70433,1.11815
284.46326,1.11250
284.22219,1.10358
283.98112,1.10161
283.74005,1.10680
283.49897,1.10903
283.25790,1.10195
283.01683,1.09047
282.77576,1.08345
282.53469,1.08459
282.29362,1.09074
282.05255,1.09576
281.81148,1.09515
281.57041,1.08803
281.32934,1.07789
281.08827,1.07164
280.84720,1.07297
280.60613,1.07772
280.36506,1.07991
280.12399,1.07990
279.88292,1.08130
279.64185,1.08420
279.40078,1.08559
279.15970,1.08264
278.91863,1.07378
278.67756,1.06089
278.43649,1.05068
278.19542,1.04894
277.95435,1.05454
277.71328,1.06246
277.47221,1.07058
277.23114,1.07889
276.99007,1.08378
276.74900,1.08032
276.50793,1.07049
276.26686,1.06154
276.02579,1.05747
275.78472,1.05742
275.54365,1.06018
275.30258,1.06626
275.06151,1.07471
274.82043,1.08136
274.57936,1.08315
274.33829,1.08157
274.09722,1.07932
273.85615,1.07611
273.61508,1.07070
273.37401,1.06447
273.13294,1.05921
272.89187,1.05442
272.65080,1.04910
272.40973,1.04309
272.16866,1.03676
271.92759,1.03140
271.68652,1.02943
271.44545,1.03315
271.20438,1.04249
270.96331,1.05384
270.72224,1.06223
270.48116,1.06666
270.24009,1.07089
269.99902,1.07778
269.75795,1.08547
269.51688,1.09124
269.27581,1.09511
269.03474,1.09675
268.79367,1.09426
268.55260,1.08913
268.31153,1.08718
268.07046,1.09096
267.82939,1.09573
267.58832,1.09542
267.34725,1.09178
267.10618,1.09383
266.86511,1.10619
266.62404,1.12124
266.38297,1.12671
266.14189,1.12178
265.90082,1.11871
265.65975,1.12581
265.41868,1.13696
265.17761,1.14180
264.93654,1.13964
264.69547,1.13723
264.45440,1.13755
264.21333,1.13807
263.97226,1.14117
263.73119,1.15776
263.49012,1.19170
263.24905,1.22562
263.00798,1.23598
262.76691,1.22428
262.52584,1.21220
262.28477,1.21239
262.04370,1.22174
261.80262,1.23389
261.56155,1.24583
261.32048,1.25649
261.07941,1.26904
260.83834,1.28893
260.59727,1.31527
260.35620,1.33948
260.11513,1.35284
259.87406,1.35373
259.63299,1.34615
259.39192,1.33673
259.15085,1.33437
258.90978,1.34764
258.66871,1.37607
258.42764,1.40541
258.18657,1.42395
257.94550,1.43732
257.70443,1.45348
257.46335,1.47115
257.22228,1.49088
256.98121,1.51639
256.74014,1.55087
256.49907,1.60033
256.25800,1.66088
256.01693,1.71013
255.77586,1.74382
255.53479,1.79874
255.29372,1.90831
255.05265,2.02975
254.81158,2.08192
254.57051,2.10613
254.32944,2.12888
254.08837,2.11018
253.84730,2.06082
253.60623,2.01059
253.36516,1.95234
253.12408,1.92998
252.88301,1.99490
252.64194,2.09674
252.40087,2.13183
252.15980,2.11320
251.91873,2.09767
251.67766,2.12135
251.43659,2.18980
251.19552,2.24789
250.95445,2.21100
250.71338,2.10785
250.47231,2.03539
250.23124,2.01932
249.99017,2.03787
249.74910,2.08012
249.50803,2.16471
249.26696,2.24874
249.02589,2.18405
248.78481,2.03078
248.54374,1.98881
248.30267,2.08723
248.06160,2.18875
247.82053,2.15261
247.57946,2.12681
247.33839,2.17161
247.09732,2.19954
246.85625,2.17539
246.61518,2.07158
246.37411,1.96686
246.13304,1.92491
245.89197,1.93811
245.65090,2.01440
245.40983,2.12316
245.16876,2.11154
244.92769,1.94323
244.68661,1.78937
244.44554,1.71232
244.20447,1.69490
243.96340,1.69715
243.72233,1.67454
243.48126,1.61711
243.24019,1.56713
242.99912,1.54821
242.75805,1.54762
242.51698,1.54154
242.27591,1.50972
242.03484,1.44583
241.79377,1.36329
241.55270,1.28535
241.31163,1.22735
241.07056,1.19029
240.82949,1.16521
240.58842,1.14254
240.34734,1.12096
240.10627,1.10617
239.86520,1.09886
239.62413,1.08938
239.38306,1.07025
239.14199,1.04701
238.90092,1.02831
238.65985,1.01321
238.41878,0.99535
238.17771,0.97418
237.93664,0.95550
237.69557,0.94252
237.45450,0.93277
237.21343,0.92402
236.97236,0.91666
236.73129,0.90962
236.49022,0.89992
236.24915,0.88684
236.00807,0.87232
235.76700,0.85844
235.52593,0.84759
235.28486,0.84165
235.04379,0.83883
234.80272,0.83485
234.56165,0.82820
234.32058,0.82163
234.07951,0.81804
233.83844,0.81733
233.59737,0.81666
233.35630,0.81264
233.11523,0.80378
232.87416,0.79174
232.63309,0.78043
232.39202,0.77380
232.15095,0.77392
231.90988,0.77956
231.66880,0.78537
231.42773,0.78466
231.18666,0.77607
230.94559,0.76608
230.70452,0.76181
230.46345,0.76291
230.22238,0.76321
229.98131,0.75882
229.74024,0.75205
229.49917,0.74803
229.25810,0.74918
229.01703,0.75279
228.77596,0.75399
228.53489,0.75123
228.29382,0.74686
228.05275,0.74291
227.81168,0.74015
227.57061,0.73928
227.32953,0.73913
227.08846,0.73617
226.84739,0.72960
226.60632,0.72422
226.36525,0.72465
226.12418,0.72946
225.88311,0.73320
225.64204,0.73305
225.40097,0.73145
225.15990,0.73184
224.91883,0.73456
224.67776,0.73705
224.43669,0.73671
224.19562,0.73429
223.95455,0.73407
223.71348,0.73910
223.47241,0.74673
223.23134,0.75177
222.99026,0.75359
222.74919,0.75620
222.50812,0.76183
222.26705,0.76806
222.02598,0.77198
221.78491,0.77393
221.54384,0.77585
221.30277,0.77884
221.06170,0.78298
220.82063,0.78800
220.57956,0.79320
220.33849,0.79710
220.09742,0.79824
219.85635,0.79737
219.61528,0.79841
219.37421,0.80535
219.13314,0.81867
218.89207,0.83588
218.65099,0.85278
218.40992,0.86439
218.16885,0.86807
217.92778,0.86621
217.68671,0.86442
217.44564,0.86772
217.20457,0.87730
216.96350,0.89041
216.72243,0.90361
216.48136,0.91490
216.24029,0.92388
215.99922,0.93143
215.75815,0.93845
215.51708,0.94448
215.27601,0.94916
215.03494,0.95431
214.79387,0.96236
214.55280,0.97310
214.31172,0.98370
214.07065,0.99171
213.82958,0.99676
213.58851,1.00049
213.34744,1.00577
213.10637,1.01318
212.86530,1.02064
212.62423,1.02675
212.38316,1.03029
212.14209,1.02906
211.90102,1.02365
211.65995,1.01932
211.41888,1.01962
211.17781,1.02198
210.93674,1.02246
210.69567,1.02175
210.45460,1.02362
210.21353,1.03037
209.97245,1.04033
209.73138,1.04871
209.49031,1.05219
209.24924,1.05230
209.00817,1.05062
208.76710,1.04330
208.52603,1.02607
208.28496,1.00307
208.04389,0.98482
207.80282,0.97742
207.56175,0.97838
207.32068,0.98135
207.07961,0.98175
206.83854,0.97820
206.59747,0.97031
206.35640,0.95868
206.11533,0.94712
205.87426,0.94059
205.63318,0.93993
205.39211,0.94070
205.15104,0.93840
204.90997,0.93276
204.66890,0.92593
204.42783,0.91929
204.18676,0.91307
203.94569,0.90689
203.70462,0.89858
203.46355,0.88684
203.22248,0.87533
202.98141,0.86831
202.74034,0.86254
202.49927,0.85075
202.25820,0.83399
202.01713,0.82099
201.77606,0.81520
201.53499,0.81090
201.29391,0.80247
201.05284,0.79092
200.81177,0.77906
200.57070,0.76679
200.32963,0.75439
200.08856,0.74492
199.84749,0.73931
199.60642,0.73351
199.36535,0.72401
199.12428,0.71292
198.88321,0.70440
198.64214,0.69947
198.40107,0.69619
198.16000,0.69171
197.91893,0.68359
197.67786,0.67165
197.43679,0.65855
197.19572,0.64747
196.95464,0.63995
196.71357,0.63499
196.47250,0.62954
196.23143,0.62167
195.99036,0.61363
195.74929,0.60892
195.50822,0.60691
195.26715,0.60357
195.02608,0.59715
194.78501,0.58984
194.54394,0.58415
194.30287,0.57985
194.06180,0.57508
193.82073,0.56918
193.57966,0.56326
193.33859,0.55826
193.09752,0.55369
192.85645,0.54864
192.61537,0.54341
192.37430,0.53918
192.13323,0.53662
191.89216,0.53569
191.65109,0.53639
191.41002,0.53850
191.16895,0.54050
190.92788,0.53991
190.68681,0.53531
190.44574,0.52789
190.20467,0.52112
189.96360,0.51831
189.72253,0.51932
189.48146,0.52041
189.24039,0.51841
188.99932,0.51390
188.75825,0.50927
188.51718,0.50537
188.27610,0.50156
188.03503,0.49802
187.79396,0.49666
187.55289,0.49891
187.31182,0.50322
187.07075,0.50630
186.82968,0.50635
186.58861,0.50386
186.34754,0.50011
186.10647,0.49649
185.86540,0.49378
185.62433,0.49161
185.38326,0.49008
185.14219,0.49077
184.90112,0.49421
184.66005,0.49830
184.41898,0.50088
184.17791,0.50200
183.93683,0.50237
183.69576,0.50183
183.45469,0.50047
183.21362,0.49974
182.97255,0.50083
182.73148,0.50239
182.49041,0.50161
182.24934,0.49841
182.00827,0.49629
181.76720,0.49821
181.52613,0.50342
181.28506,0.50910
181.04399,0.51357
180.80292,0.51664
180.56185,0.51858
180.32078,0.51961
180.07971,0.51980
179.83864,0.51948
179.59756,0.51982
179.35649,0.52204
179.11542,0.52618
178.87435,0.53171
178.63328,0.53888
178.39221,0.54758
178.15114,0.55627
177.91007,0.56365
177.66900,0.57023
177.42793,0.57751
177.18686,0.58691
176.94579,0.59939
176.70472,0.61436
176.46365,0.62939
176.22258,0.64216
175.98151,0.65170
175.74044,0.65833
175.49937,0.66443
175.25829,0.67404
175.01722,0.68934
174.77615,0.70854
174.53508,0.72813
174.29401,0.74529
174.05294,0.75789
173.81187,0.76483
173.57080,0.76737
173.32973,0.76878
173.08866,0.77294
172.84759,0.78302
172.60652,0.79912
172.36545,0.81638
172.12438,0.82806
171.88331,0.83212
171.64224,0.83195
171.40117,0.83084
171.16010,0.82918
170.91902,0.82669
170.67795,0.82390
170.43688,0.81998
170.19581,0.81264
169.95474,0.80251
169.71367,0.79391
169.47260,0.78960
169.23153,0.78737
168.99046,0.78310
168.74939,0.77591
168.50832,0.76827
168.26725,0.76247
168.02618,0.75962
167.78511,0.76043
167.54404,0.76402
167.30297,0.76709
167.06190,0.76714
166.82083,0.76558
166.57975,0.76588
166.33868,0.76956
166.09761,0.77513
165.85654,0.78006
165.61547,0.78364
165.37440,0.78684
165.13333,0.79013
164.89226,0.79338
164.65119,0.79759
164.41012,0.80379
164.16905,0.81064
163.92798,0.81591
163.68691,0.81992
163.44584,0.82523
163.20477,0.83306
162.96370,0.84193
162.72263,0.85015
162.48156,0.85705
162.24048,0.86222
161.99941,0.86556
161.75834,0.86713
161.51727,0.86751
161.27620,0.86803
161.03513,0.86981
160.79406,0.87102
160.55299,0.86579
160.31192,0.85080
160.07085,0.83203
159.82978,0.82007
159.58871,0.82024
159.34764,0.82937
159.10657,0.83938
158.86550,0.84304
158.62443,0.83907
158.38336,0.83290
158.14229,0.83057
157.90121,0.83268
157.66014,0.83542
157.41907,0.83548
157.17800,0.83160
156.93693,0.82366
156.69586,0.81347
156.45479,0.80419
156.21372,0.79723
155.97265,0.79125
155.73158,0.78498
155.49051,0.77866
155.24944,0.77250
155.00837,0.76621
154.76730,0.75950
154.52623,0.75095
154.28516,0.73765
154.04409,0.71942
153.80302,0.70198
153.56194,0.69235
153.32087,0.69124
153.07980,0.69156
152.83873,0.68561
152.59766,0.67226
152.35659,0.65562
152.11552,0.63891
151.87445,0.62279
151.63338,0.60762
151.39231,0.59425
151.15124,0.58337
150.91017,0.57548
150.66910,0.56983
150.42803,0.56304
150.18696,0.55165
149.94589,0.53700
149.70482,0.52436
149.46375,0.51680
149.22267,0.51229
148.98160,0.50671
148.74053,0.49823
148.49946,0.48831
148.25839,0.47979
148.01732,0.47484
147.77625,0.47376
147.53518,0.47492
147.29411,0.47618
147.05304,0.47652
146.81197,0.47588
146.57090,0.47433
146.32983,0.47271
146.08876,0.47289
145.84769,0.47582
145.60662,0.48032
145.36555,0.48483
145.12448,0.48936
144.88340,0.49450
144.64233,0.50004
144.40126,0.50548
144.16019,0.51048
143.91912,0.51419
143.67805,0.51522
143.43698,0.51313
143.19591,0.50911
142.95484,0.50450
142.71377,0.49917
142.47270,0.49202
142.23163,0.48277
141.99056,0.47295
141.74949,0.46462
141.50842,0.45822
141.26735,0.45278
141.02628,0.44784
140.78521,0.44352
140.54413,0.43932
140.30306,0.43505
140.06199,0.43237
139.82092,0.43293
139.57985,0.43598
139.33878,0.43992
139.09771,0.44479
138.85664,0.45109
138.61557,0.45750
138.37450,0.46169
138.13343,0.46330
137.89236,0.46488
137.65129,0.46917
137.41022,0.47659
137.16915,0.48620
136.92808,0.49819
136.68701,0.51335
136.44594,0.53090
136.20486,0.54849
135.96379,0.56492
135.72272,0.58167
135.48165,0.60115
135.24058,0.62410
134.99951,0.64929
134.75844,0.67539
134.51737,0.70192
134.27630,0.72784
134.03523,0.75146
133.79416,0.77259
133.55309,0.79376
133.31202,0.81774
133.07095,0.84222
132.82988,0.86055
132.58881,0.86957
132.34774,0.87412
132.10667,0.88170
131.86559,0.89428
131.62452,0.90632
131.38345,0.91127
131.14238,0.90905
130.90131,0.90375
130.66024,0.89584
130.41917,0.88219
130.17810,0.86320
129.93703,0.84396
129.69596,0.82699
129.45489,0.81001
129.21382,0.79180
128.97275,0.77428
128.73168,0.75673
128.49061,0.73311
128.24954,0.69947
128.00847,0.66060
127.76740,0.62506
127.52632,0.59770
127.28525,0.57844
127.04418,0.56398
126.80311,0.54974
126.56204,0.53355
126.32097,0.51731
126.07990,0.50326
125.83883,0.49075
125.59776,0.47818
125.35669,0.46548
125.11562,0.45335
124.87455,0.44189
124.63348,0.43113
124.39241,0.42131
124.15134,0.41258
123.91027,0.40505
123.66920,0.39895
123.42812,0.39405
123.18705,0.38940
122.94598,0.38453
122.70491,0.38033
122.46384,0.37732
122.22277,0.37408
121.98170,0.36964
121.74063,0.36575
121.49956,0.36466
121.25849,0.36642
121.01742,0.36988
120.77635,0.37446
120.53528,0.37992
120.29421,0.38651
120.05314,0.39628
119.81207,0.41135
119.57100,0.42995
119.32993,0.44706
119.08885,0.46058
118.84778,0.47435
118.60671,0.49343
118.36564,0.51839
118.12457,0.54483
117.88350,0.56718
117.64243,0.58317
117.40136,0.59513
117.16029,0.60586
116.91922,0.61440
116.67815,0.61802
116.43708,0.61663
116.19601,0.61276
115.95494,0.60822
115.71387,0.60272
115.47280,0.59590
115.23173,0.58884
114.99066,0.58235
114.74958,0.57541
114.50851,0.56647
114.26744,0.55584
114.02637,0.54542
113.78530,0.53687
113.54423,0.53004
113.30316,0.52334
113.06209,0.51647
112.82102,0.51182
112.57995,0.51180
112.33888,0.51616
112.09781,0.52278
111.85674,0.52970
111.61567,0.53662
111.37460,0.54514
111.13353,0.55598
110.89246,0.56583
110.65139,0.56967
110.41031,0.56559
110.16924,0.55536
109.92817,0.54310
109.68710,0.53352
109.44603,0.52777
109.20496,0.52107
108.96389,0.50780
108.72282,0.48835
108.48175,0.46853
108.24068,0.45285
107.99961,0.44027
107.75854,0.42654
107.51747,0.40997
107.27640,0.39344
107.03533,0.38044
106.79426,0.37091
106.55319,0.36219
106.31212,0.35315
106.07104,0.34535
105.82997,0.33965
105.58890,0.33398
105.34783,0.32641
105.10676,0.31801
104.86569,0.31039
104.62462,0.30286
104.38355,0.29423
104.14248,0.28515
103.90141,0.27719
103.66034,0.27107
103.41927,0.26658
103.17820,0.26287
102.93713,0.25852
102.69606,0.25275
102.45499,0.24662
102.21392,0.24193
101.97285,0.23899
101.73177,0.23637
101.49070,0.23257
101.24963,0.22733
101.00856,0.22133
100.76749,0.21553
100.52642,0.21085
100.28535,0.20765
100.04428,0.20522
99.80321,0.20295
99.56214,0.20147
99.32107,0.20176
99.08000,0.20369
98.83893,0.20616
98.59786,0.20786
98.35679,0.20773
98.11572,0.20578
97.87465,0.20328
97.63358,0.20140
97.39250,0.20047
97.15143,0.20070
96.91036,0.20254
96.66929,0.20624
96.42822,0.21190
96.18715,0.21866
95.94608,0.22412
95.70501,0.22690
95.46394,0.22942
95.22287,0.23503
94.98180,0.24300
94.74073,0.24950
94.49966,0.25266
94.25859,0.25385
94.01752,0.25436
93.77645,0.25365
93.53538,0.25049
93.29431,0.24479
93.05323,0.23886
92.81216,0.23601
92.57109,0.23720
92.33002,0.23992
92.08895,0.24115
91.84788,0.24020
91.60681,0.23912
91.36574,0.24140
91.12467,0.24940
90.88360,0.26277
90.64253,0.28067
90.40146,0.30420
90.16039,0.33430
89.91932,0.36862
89.67825,0.40309
89.43718,0.43600
89.19611,0.46813
88.95504,0.49949
88.71396,0.52749
88.47289,0.54752
88.23182,0.55453
87.99075,0.54604
87.74968,0.52496
87.50861,0.49823
87.26754,0.47225
87.02647,0.44885
86.78540,0.42489
86.54433,0.39750
86.30326,0.36917
86.06219,0.34511
85.82112,0.32701
85.58005,0.31184
85.33898,0.29596
85.09791,0.27857
84.85684,0.26084
84.61577,0.24405
84.37469,0.22935
84.13362,0.21775
83.89255,0.20920
83.65148,0.20231
83.41041,0.19588
83.16934,0.19011
82.92827,0.18530
82.68720,0.18028
82.44613,0.17376
82.20506,0.16652
81.96399,0.16057
81.72292,0.15644
81.48185,0.15251
81.24078,0.14721
80.99971,0.14145
80.75864,0.13761
80.51757,0.13632
80.27650,0.13571
80.03542,0.13415
79.79435,0.13160
79.55328,0.12852
79.31221,0.12529
79.07114,0.12291
78.83007,0.12200
78.58900,0.12173
78.34793,0.12089
78.10686,0.11940
77.86579,0.11808
77.62472,0.11749
77.38365,0.11721
77.14258,0.11628
76.90151,0.11477
76.66044,0.11378
76.41937,0.11353
76.17830,0.11296
75.93723,0.11164
75.69615,0.11011
75.45508,0.10855
75.21401,0.10638
74.97294,0.10319
74.73187,0.09958
74.49080,0.09698
74.24973,0.09643
74.00866,0.09783
73.76759,0.10034
73.52652,0.10291
73.28545,0.10413
73.04438,0.10320
72.80331,0.10104
72.56224,0.09897
72.32117,0.09685
72.08010,0.09406
71.83903,0.09186
71.59796,0.09273
71.35688,0.09712
71.11581,0.10246
70.87474,0.10613
70.63367,0.10853
70.39260,0.11234
70.15153,0.11944
69.91046,0.12957
69.66939,0.14016
69.42832,0.14715
69.18725,0.14786
68.94618,0.14357
68.70511,0.13786
68.46404,0.13288
68.22297,0.12842
67.98190,0.12351
67.74083,0.11741
67.49976,0.11007
67.25869,0.10220
67.01761,0.09430
66.77654,0.08646
66.53547,0.07934
66.29440,0.07452
66.05333,0.07323
65.81226,0.07540
65.57119,0.07983
65.33012,0.08501
65.08905,0.08969
64.84798,0.09348
64.60691,0.09736
64.36584,0.10266
64.12477,0.10879
63.88370,0.11274
63.64263,0.11256
63.40156,0.10974
63.16049,0.10638
62.91942,0.10233
62.67834,0.09708
62.43727,0.09176
62.19620,0.08778
61.95513,0.08537
61.71406,0.08378
61.47299,0.08150
61.23192,0.07745
60.99085,0.07280
60.74978,0.06977
60.50871,0.06843
60.26764,0.06734
60.02657,0.06697
59.78550,0.06905
59.54443,0.07268
59.30336,0.07475
59.06229,0.07384
58.82122,0.07088
58.58015,0.06693
58.33907,0.06327
58.09800,0.06171
57.85693,0.06193
57.61586,0.06059
57.37479,0.05569
57.13372,0.04978
56.89265,0.04629
56.65158,0.04422
56.41051,0.03981
56.16944,0.03269
55.92837,0.02701
55.68730,0.02646
55.44623,0.03000
55.20516,0.03362
54.96409,0.03478
54.72302,0.03402
54.48195,0.03339
54.24088,0.03488
53.99980,0.03990
53.75873,0.04800
53.51766,0.05563
53.27659,0.05805
53.03552,0.05410
52.79445,0.04891
52.55338,0.04959
52.31231,0.05800
52.07124,0.06906
51.83017,0.07597
51.58910,0.07684
51.34803,0.07524
51.10696,0.07428
50.86589,0.07192
50.62482,0.06408
50.38375,0.05118
50.14268,0.03954
49.90161,0.03553
49.66053,0.03921
49.41946,0.04387
49.17839,0.04286
48.93732,0.03717
48.69625,0.03375
48.45518,0.03614
48.21411,0.03947
47.97304,0.03578
47.73197,0.02348
47.49090,0.00909
47.24983,-0.00160
47.00876,-0.00993
46.76769,-0.01847
46.52662,-0.02392
46.28555,-0.02189
46.04448,-0.01458
45.80341,-0.00798
45.56234,-0.00525
45.32126,-0.00684
45.08019,-0.01230
44.83912,-0.01902
44.59805,-0.02399
44.35698,-0.02768
44.11591,-0.03102
43.87484,-0.03130
43.63377,-0.02727
43.39270,-0.02306
43.15163,-0.02213
42.91056,-0.02292
42.66949,-0.02231
42.42842,-0.01801
42.18735,-0.00927
41.94628,0.00076
41.70521,0.00704
41.46414,0.00850
41.22307,0.00760
40.98199,0.00551
40.74092,0.00301
40.49985,0.00245
40.25878,0.00442
40.01771,0.00629
39.77664,0.00602
39.53557,0.00469
39.29450,0.00469
39.05343,0.00911
38.81236,0.02048
38.57129,0.03523
38.33022,0.04466
38.08915,0.04259
37.84808,0.02838
37.60701,0.00631
37.36594,-0.01700
37.12487,-0.03447
36.88380,-0.03993
36.64272,-0.03484
36.40165,-0.02924
36.16058,-0.02907
35.91951,-0.03066
35.67844,-0.03230
35.43737,-0.03885
35.19630,-0.04719
34.95523,-0.04397
34.71416,-0.02822
34.47309,-0.01825
34.23202,-0.02631
33.99095,-0.04107
33.74988,-0.04063
33.50881,-0.01821
33.26774,0.01299
33.02667,0.03310
32.78560,0.03715
32.54453,0.04508
32.30345,0.06373
32.06238,0.07400
31.82131,0.06306
31.58024,0.03690
31.33917,0.00814
31.09810,-0.01592
30.85703,-0.03354
30.61596,-0.04323
30.37489,-0.04348
30.13382,-0.03522
29.89275,-0.02246
29.65168,-0.01016
29.41061,-0.00080
29.16954,0.00253
28.92847,-0.00750
28.68740,-0.02674
28.44633,-0.03391
28.20526,-0.01200
27.96418,0.03093
27.72311,0.07270
27.48204,0.10119
27.24097,0.12262
26.99990,0.14610
26.75883,0.16833
26.51776,0.18515
26.27669,0.19787
26.03562,0.19977
25.79455,0.19160
25.55348,0.17808
25.31241,0.16050
25.07134,0.14551
24.83027,0.13247
24.58920,0.10475
24.34813,0.06912
24.10706,0.06853
23.86599,0.14002
23.62491,0.25984
23.38384,0.33690
23.14277,0.32162
22.90170,0.27955
22.66063,0.28074
22.41956,0.33667
22.17849,0.38104
21.93742,0.35700
21.69635,0.31813
21.45528,0.33064
21.21421,0.39031
20.97314,0.43337
20.73207,0.45846
20.49100,0.48833
20.24993,0.50281
20.00886,0.44599
19.76779,0.38781
19.52672,0.44691
19.28564,0.59873
19.04457,0.68811
18.80350,0.60627
18.56243,0.52459
18.32136,0.54392
18.08029,0.61287
17.83922,0.59205
17.59815,0.48495
17.35708,0.45006
17.11601,0.52900
16.87494,0.64871
16.63387,0.69257
16.39280,0.65874
16.15173,0.65472
15.91066,0.62201
15.66959,0.62874
15.42852,0.64382
15.18745,0.62772
14.94637,0.54335
14.70530,0.39365
14.46423,0.25760
14.22316,0.26058
13.98209,0.37647
13.74102,0.30837
13.49995,0.32786
13.25888,0.42221
13.01781,0.53078
12.77674,0.62240
12.53567,0.64845
12.29460,0.64817
12.05353,0.60975
11.81246,0.58039
11.57139,0.61677
11.33032,0.65430
11.08925,0.64804
10.84818,0.61383
10.60710,0.65238
10.36603,0.79013
10.12496,0.65835
9.88389,0.48241
9.64282,0.49697
9.40175,0.61685
9.16068,0.67031
8.91961,0.59225
8.67854,0.50750
8.43747,0.45775
8.19640,0.42781
7.95533,0.43155
7.71426,0.52256
7.47319,0.61410
7.23212,0.60798
6.99105,0.62579
6.74998,0.64393
6.50891,0.52347
6.26783,0.42533
6.02676,0.38592
5.78569,0.41864
5.54462,0.51775
5.30355,0.52280
5.06248,0.55205
4.82141,0.75351
4.58034,1.01289
4.33927,0.98199
4.09820,0.64490
3.85713,0.52483
3.61606,0.64317
3.37499,0.93849
3.13392,0.97219
2.89285,0.80199
2.65178,0.64337
2.41071,0.64585
2.16964,0.73855
1.92856,0.61299
1.68749,0.53291
1.44642,0.62465
1.20535,0.80361
0.96428,0.71604
0.72321,0.54507
0.48214,0.48707
0.24107,0.50804
-0.00000,0.42256
