399.69498,1.77679
399.45391,1.81382
399.21284,1.81251
398.97177,1.77040
398.73070,1.72392
398.48963,1.71972
398.24856,1.78280
398.00749,1.89757
397.76642,1.98209
397.52535,1.97149
397.28428,1.91555
397.04321,1.86604
396.80214,1.84822
396.56107,1.86893
396.32000,1.92174
396.07892,1.99315
395.83785,2.08189
395.59678,2.18111
395.35571,2.20021
395.11464,2.05698
394.87357,1.86505
394.63250,1.74582
394.39143,1.72451
394.15036,1.78888
393.90929,1.91574
393.66822,2.09684
393.42715,2.29493
393.18608,2.34080
392.94501,2.30271
392.70394,2.32576
392.46287,2.35171
392.22180,2.25882
391.98073,2.11086
391.73965,2.00481
391.49858,1.97005
391.25751,1.98006
391.01644,2.14124
390.77537,2.52027
390.53430,2.31622
390.29323,2.03532
390.05216,1.90372
389.81109,1.89146
389.57002,1.94874
389.32895,1.98832
389.08788,2.01518
388.84681,2.16709
388.60574,2.47214
388.36467,2.44123
388.12360,2.16578
387.88253,2.06292
387.64146,2.07639
387.40038,2.08017
387.15931,2.09372
386.91824,2.17368
386.67717,2.24478
386.43610,2.34611
386.19503,2.21441
385.95396,2.12855
385.71289,2.23391
385.47182,2.24683
385.23075,2.06595
384.98968,1.95417
384.74861,1.93991
384.50754,1.96036
384.26647,2.04665
384.02540,2.08790
383.78433,2.09151
383.54326,2.09155
383.30219,2.04074
383.06111,1.99544
382.82004,2.05959
382.57897,2.18277
382.33790,2.10379
382.09683,1.95865
381.85576,1.82514
381.61469,1.78465
381.37362,1.85285
381.13255,1.96870
380.89148,2.05715
380.65041,2.05781
380.40934,1.96560
380.16827,1.94395
379.92720,1.96607
379.68613,1.92357
379.44506,1.83414
379.20399,1.79173
378.96292,1.87722
378.72184,2.06454
378.48077,2.15491
378.23970,2.06514
377.99863,1.90381
377.75756,1.76074
377.51649,1.68709
377.27542,1.70013
377.03435,1.80986
376.79328,1.98919
376.55221,2.14872
376.31114,2.28942
376.07007,2.41634
375.82900,2.30275
375.58793,2.10419
375.34686,2.00041
375.10579,1.96872
374.86472,1.97495
374.62365,1.95796
374.38257,1.87630
374.14150,1.78237
373.90043,1.74245
373.65936,1.77440
373.41829,1.86425
373.17722,1.96613
372.93615,2.00909
372.69508,2.00108
372.45401,1.97949
372.21294,1.96881
371.97187,1.96949
371.73080,1.94112
371.48973,1.86440
371.24866,1.78714
371.00759,1.74777
370.76652,1.74856
370.52545,1.76786
370.28437,1.78795
370.04330,1.81182
369.80223,1.83084
369.56116,1.80062
369.32009,1.72733
369.07902,1.66449
368.83795,1.63303
368.59688,1.62417
368.35581,1.62212
368.11474,1.61504
367.87367,1.59672
367.63260,1.56376
367.39153,1.52212
367.15046,1.48963
366.90939,1.47858
366.66832,1.48514
366.42725,1.49739
366.18618,1.50287
365.94510,1.50079
365.70403,1.50844
365.46296,1.54492
365.22189,1.59977
364.98082,1.62572
364.73975,1.59590
364.49868,1.54158
364.25761,1.50806
364.01654,1.50905
363.77547,1.52349
363.53440,1.51776
363.29333,1.48297
363.05226,1.44504
362.81119,1.42999
362.57012,1.43993
362.32905,1.45835
362.08798,1.46724
361.84691,1.46421
361.60583,1.46158
361.36476,1.46937
361.12369,1.48356
360.88262,1.49035
360.64155,1.48209
360.40048,1.46393
360.15941,1.44494
359.91834,1.42837
359.67727,1.41248
359.43620,1.39991
359.19513,1.40187
358.95406,1.42737
358.71299,1.46428
358.47192,1.48567
358.23085,1.48324
357.98978,1.47073
357.74871,1.45905
357.50764,1.44569
357.26656,1.42867
357.02549,1.41558
356.78442,1.41770
356.54335,1.44357
356.30228,1.48664
356.06121,1.52306
355.82014,1.53588
355.57907,1.52782
355.33800,1.50340
355.09693,1.47089
354.85586,1.44541
354.61479,1.43760
354.37372,1.44830
354.13265,1.46185
353.89158,1.46074
353.65051,1.44743
353.40944,1.43524
353.16837,1.43193
352.92729,1.43964
352.68622,1.46085
352.44515,1.48921
352.20408,1.49695
351.96301,1.46478
351.72194,1.42312
351.48087,1.41990
351.23980,1.46825
350.99873,1.52824
350.75766,1.54047
350.51659,1.50166
350.27552,1.46125
350.03445,1.45283
349.79338,1.47162
349.55231,1.49041
349.31124,1.48262
349.07017,1.44742
348.82910,1.41322
348.58802,1.40848
348.34695,1.43383
348.10588,1.46348
347.86481,1.47984
347.62374,1.48937
347.38267,1.48957
347.14160,1.46879
346.90053,1.44208
346.65946,1.43839
346.41839,1.46230
346.17732,1.49236
345.93625,1.51428
345.69518,1.53955
345.45411,1.56818
345.21304,1.56796
344.97197,1.52729
344.73090,1.48035
344.48983,1.45742
344.24875,1.46499
344.00768,1.49862
343.76661,1.55441
343.52554,1.62747
343.28447,1.69410
343.04340,1.72077
342.80233,1.71342
342.56126,1.70572
342.32019,1.70784
342.07912,1.70391
341.83805,1.67916
341.59698,1.63501
341.35591,1.59452
341.11484,1.59028
340.87377,1.63002
340.63270,1.67432
340.39163,1.67485
340.15056,1.64787
339.90948,1.64338
339.66841,1.67149
339.42734,1.70320
339.18627,1.73179
338.94520,1.78495
338.70413,1.82550
338.46306,1.81837
338.22199,1.86336
337.98092,1.89806
337.73985,1.83523
337.49878,1.78809
337.25771,1.82838
337.01664,1.94970
336.77557,2.09088
336.53450,2.12575
336.29343,2.07646
336.05236,2.00627
335.81129,1.89545
335.57021,1.78134
335.32914,1.75514
335.08807,1.83371
334.84700,1.91576
334.60593,1.88583
334.36486,1.81396
334.12379,1.77475
333.88272,1.75256
333.64165,1.72265
333.40058,1.70394
333.15951,1.70960
332.91844,1.72449
332.67737,1.71378
332.43630,1.66112
332.19523,1.59358
331.95416,1.55515
331.71309,1.58370
331.47202,1.67320
331.23094,1.75449
330.98987,1.77469
330.74880,1.75303
330.50773,1.70554
330.26666,1.66021
330.02559,1.64957
329.78452,1.66285
329.54345,1.65075
329.30238,1.59662
329.06131,1.54194
328.82024,1.52680
328.57917,1.57515
328.33810,1.68409
328.09703,1.79815
327.85596,1.82846
327.61489,1.78541
327.37382,1.75674
327.13275,1.75361
326.89167,1.77934
326.65060,1.83787
326.40953,1.86585
326.16846,1.80214
325.92739,1.71506
325.68632,1.70089
325.44525,1.77192
325.20418,1.85296
324.96311,1.87844
324.72204,1.89932
324.48097,1.89383
324.23990,1.81993
323.99883,1.73605
323.75776,1.71074
323.51669,1.73780
323.27562,1.77097
323.03455,1.79682
322.79348,1.81039
322.55240,1.82669
322.31133,1.91638
322.07026,2.08637
321.82919,2.24841
321.58812,2.32402
321.34705,2.16556
321.10598,1.95600
320.86491,1.84513
320.62384,1.80721
320.38277,1.82154
320.14170,1.85859
319.90063,1.84370
319.65956,1.79930
319.41849,1.75731
319.17742,1.71547
318.93635,1.70528
318.69528,1.72315
318.45421,1.74062
318.21313,1.75674
317.97206,1.77915
317.73099,1.81616
317.48992,1.82159
317.24885,1.81688
317.00778,1.84634
316.76671,1.87618
316.52564,1.89405
316.28457,1.92834
316.04350,1.93555
315.80243,2.00186
315.56136,2.11997
315.32029,2.10702
315.07922,2.05698
314.83815,2.02053
314.59708,1.96606
314.35601,1.92806
314.11494,1.93832
313.87386,1.96837
313.63279,2.00096
313.39172,2.07512
313.15065,2.17472
312.90958,2.21015
312.66851,2.25988
312.42744,2.29592
312.18637,2.26337
311.94530,2.32654
311.70423,2.28546
311.46316,2.13484
311.22209,2.01393
310.98102,2.00011
310.73995,2.04063
310.49888,2.06885
310.25781,2.13773
310.01674,2.25688
309.77567,2.25679
309.53459,2.31106
309.29352,2.25498
309.05245,2.09857
308.81138,2.05962
308.57031,2.00227
308.32924,1.90142
308.08817,1.81504
307.84710,1.77932
307.60603,1.79973
307.36496,1.82017
307.12389,1.78217
306.88282,1.72070
306.64175,1.68744
306.40068,1.69553
306.15961,1.72055
305.91854,1.71460
305.67747,1.65380
305.43640,1.56622
305.19532,1.50078
304.95425,1.47730
304.71318,1.47506
304.47211,1.47354
304.23104,1.48580
303.98997,1.52411
303.74890,1.56974
303.50783,1.58985
303.26676,1.56712
303.02569,1.50510
302.78462,1.43378
302.54355,1.38615
302.30248,1.37260
302.06141,1.38527
301.82034,1.40416
301.57927,1.40254
301.33820,1.36872
301.09713,1.32078
300.85605,1.28584
300.61498,1.27653
300.37391,1.28951
300.13284,1.31170
299.89177,1.32759
299.65070,1.32507
299.40963,1.30262
299.16856,1.27401
298.92749,1.25233
298.68642,1.23982
298.44535,1.23530
298.20428,1.23727
297.96321,1.23810
297.72214,1.22892
297.48107,1.21487
297.24000,1.21121
296.99893,1.22383
296.75786,1.24308
296.51678,1.25528
296.27571,1.25338
296.03464,1.23645
295.79357,1.20949
295.55250,1.18402
295.31143,1.17147
295.07036,1.17347
294.82929,1.17946
294.58822,1.17809
294.34715,1.16883
294.10608,1.15734
293.86501,1.14708
293.62394,1.13996
293.38287,1.13856
293.14180,1.14299
292.90073,1.14781
292.65966,1.14723
292.41859,1.14176
292.17751,1.13555
291.93644,1.12950
291.69537,1.12077
291.45430,1.10954
291.21323,1.10028
290.97216,1.09558
290.73109,1.09416
290.49002,1.09396
290.24895,1.09545
290.00788,1.09989
289.76681,1.10386
289.52574,1.10110
289.28467,1.09210
289.04360,1.08528
288.80253,1.08533
288.56146,1.08680
288.32039,1.08110
288.07932,1.06694
287.83824,1.05312
287.59717,1.05060
287.35610,1.06086
287.11503,1.07333
286.87396,1.07801
286.63289,1.07672
286.39182,1.07580
286.15075,1.07580
285.90968,1.07376
285.66861,1.06974
285.42754,1.06620
285.18647,1.06329
284.94540,1.05662
284.70433,1.04209
284.46326,1.02553
284.22219,1.02054
283.98112,1.03175
283.74005,1.04725
283.49897,1.05326
283.25790,1.05002
283.01683,1.04417
282.77576,1.03658
282.53469,1.02670
282.29362,1.01786
282.05255,1.01401
281.81148,1.01696
281.57041,1.02473
281.32934,1.03146
281.08827,1.03290
280.84720,1.03129
280.60613,1.03088
280.36506,1.03127
280.12399,1.03090
279.88292,1.03256
279.64185,1.03802
279.40078,1.04148
279.15970,1.03675
278.91863,1.02740
278.67756,1.02112
278.43649,1.01937
278.19542,1.01940
277.95435,1.02184
277.71328,1.02936
277.47221,1.04010
277.23114,1.04839
276.99007,1.05008
276.74900,1.04524
276.50793,1.03707
276.26686,1.02775
276.02579,1.01904
275.78472,1.01465
275.54365,1.01632
275.30258,1.01994
275.06151,1.01968
274.82043,1.01536
274.57936,1.01184
274.33829,1.01258
274.09722,1.01624
273.85615,1.01829
273.61508,1.01678
273.37401,1.01481
273.13294,1.01578
272.89187,1.01943
272.65080,1.02304
272.40973,1.02375
272.16866,1.02084
271.92759,1.01843
271.68652,1.02197
271.44545,1.03011
271.20438,1.03501
270.96331,1.03327
270.72224,1.02976
270.48116,1.02884
270.24009,1.02921
269.99902,1.02817
269.75795,1.02621
269.51688,1.02566
269.27581,1.02749
269.03474,1.03127
268.79367,1.03736
268.55260,1.04708
268.31153,1.05920
268.07046,1.06835
267.82939,1.06987
267.58832,1.06438
267.34725,1.05557
267.10618,1.04662
266.86511,1.04042
266.62404,1.04003
266.38297,1.04719
266.14189,1.06009
265.90082,1.07389
265.65975,1.08612
265.41868,1.09875
265.17761,1.11170
264.93654,1.12005
264.69547,1.12041
264.45440,1.11354
264.21333,1.10267
263.97226,1.09508
263.73119,1.09973
263.49012,1.11652
263.24905,1.13364
263.00798,1.14274
262.76691,1.15110
262.52584,1.16897
262.28477,1.19235
262.04370,1.20827
261.80262,1.21254
261.56155,1.21241
261.32048,1.21623
261.07941,1.22563
260.83834,1.23539
260.59727,1.24145
260.35620,1.24925
260.11513,1.26769
259.87406,1.29678
259.63299,1.32974
259.39192,1.35973
259.15085,1.38051
258.90978,1.39075
258.66871,1.39436
258.42764,1.39706
258.18657,1.40492
257.94550,1.42160
257.70443,1.44725
257.46335,1.47994
257.22228,1.51503
256.98121,1.54163
256.74014,1.55109
256.49907,1.55949
256.25800,1.58984
256.01693,1.63387
255.77586,1.66489
255.53479,1.67733
255.29372,1.68901
255.05265,1.71561
254.81158,1.76607
254.57051,1.84470
254.32944,1.93524
254.08837,1.99845
253.84730,2.01397
253.60623,1.99545
253.36516,1.96512
253.12408,1.92344
252.88301,1.88232
252.64194,1.89698
252.40087,2.00097
252.15980,2.16911
251.91873,2.28529
251.67766,2.31003
251.43659,2.18421
251.19552,2.10274
250.95445,2.11619
250.71338,2.16513
250.47231,2.17922
250.23124,2.11584
249.99017,2.03631
249.74910,2.04383
249.50803,2.21229
249.26696,2.45418
249.02589,2.47906
248.78481,2.54186
248.54374,2.56048
248.30267,2.43490
248.06160,2.24678
247.82053,2.16350
247.57946,2.19210
247.33839,2.26983
247.09732,2.46503
246.85625,2.80703
246.61518,2.86044
246.37411,2.51715
246.13304,2.23154
245.89197,2.09983
245.65090,2.04790
245.40983,2.01866
245.16876,1.98740
244.92769,1.94655
244.68661,1.89278
244.44554,1.81662
244.20447,1.73037
243.96340,1.66139
243.72233,1.61613
243.48126,1.58082
243.24019,1.54203
242.99912,1.50106
242.75805,1.46314
242.51698,1.43231
242.27591,1.40796
242.03484,1.37821
241.79377,1.33296
241.55270,1.28104
241.31163,1.23974
241.07056,1.21255
240.82949,1.18852
240.58842,1.15563
240.34734,1.11291
240.10627,1.07144
239.86520,1.04218
239.62413,1.02514
239.38306,1.01187
239.14199,0.99588
238.90092,0.97736
238.65985,0.95890
238.41878,0.94167
238.17771,0.92640
237.93664,0.91374
237.69557,0.90178
237.45450,0.88678
237.21343,0.86861
236.97236,0.85231
236.73129,0.84244
236.49022,0.83896
236.24915,0.83876
236.00807,0.83793
235.76700,0.83270
235.52593,0.82150
235.28486,0.80648
235.04379,0.79193
234.80272,0.78074
234.56165,0.77243
234.32058,0.76536
234.07951,0.76084
233.83844,0.76269
233.59737,0.77103
233.35630,0.77939
233.11523,0.78038
232.87416,0.77297
232.63309,0.76194
232.39202,0.75206
232.15095,0.74524
231.90988,0.74140
231.66880,0.74061
231.42773,0.74310
231.18666,0.74720
230.94559,0.74923
230.70452,0.74664
230.46345,0.73998
230.22238,0.73118
229.98131,0.72196
229.74024,0.71514
229.49917,0.71430
229.25810,0.71954
229.01703,0.72591
228.77596,0.72818
228.53489,0.72551
228.29382,0.72050
228.05275,0.71576
227.81168,0.71190
227.57061,0.70834
227.32953,0.70613
227.08846,0.70771
226.84739,0.71239
226.60632,0.71596
226.36525,0.71665
226.12418,0.71688
225.88311,0.71714
225.64204,0.71413
225.40097,0.70677
225.15990,0.69840
224.91883,0.69276
224.67776,0.69141
224.43669,0.69388
224.19562,0.69828
223.95455,0.70260
223.71348,0.70612
223.47241,0.70901
223.23134,0.71170
222.99026,0.71461
222.74919,0.71707
222.50812,0.71772
222.26705,0.71746
222.02598,0.71998
221.78491,0.72742
221.54384,0.73689
221.30277,0.74395
221.06170,0.74835
220.82063,0.75327
220.57956,0.75999
220.33849,0.76633
220.09742,0.76999
219.85635,0.77230
219.61528,0.77687
219.37421,0.78486
219.13314,0.79417
218.89207,0.80304
218.65099,0.81225
218.40992,0.82265
218.16885,0.83203
217.92778,0.83730
217.68671,0.83893
217.44564,0.84016
217.20457,0.84360
216.96350,0.85125
216.72243,0.86438
216.48136,0.88080
216.24029,0.89555
215.99922,0.90695
215.75815,0.91854
215.51708,0.93337
215.27601,0.94967
215.03494,0.96268
214.79387,0.96819
214.55280,0.96603
214.31172,0.96158
214.07065,0.96089
213.82958,0.96474
213.58851,0.96988
213.34744,0.97461
213.10637,0.97928
212.86530,0.98318
212.62423,0.98630
212.38316,0.99185
212.14209,1.00159
211.90102,1.01056
211.65995,1.01276
211.41888,1.00961
211.17781,1.00630
210.93674,1.00425
210.69567,1.00190
210.45460,0.99977
210.21353,1.00139
209.97245,1.00744
209.73138,1.01353
209.49031,1.01460
209.24924,1.00980
209.00817,1.00369
208.76710,0.99973
208.52603,0.99547
208.28496,0.98880
208.04389,0.98405
207.80282,0.98484
207.56175,0.98654
207.32068,0.98289
207.07961,0.97581
206.83854,0.97122
206.59747,0.96931
206.35640,0.96537
206.11533,0.95645
205.87426,0.94364
205.63318,0.93023
205.39211,0.91956
205.15104,0.91263
204.90997,0.90724
204.66890,0.90007
204.42783,0.88973
204.18676,0.87788
203.94569,0.86733
203.70462,0.85916
203.46355,0.85185
203.22248,0.84313
202.98141,0.83193
202.74034,0.81877
202.49927,0.80535
202.25820,0.79373
202.01713,0.78531
201.77606,0.78009
201.53499,0.77659
201.29391,0.77184
201.05284,0.76229
200.81177,0.74676
200.57070,0.72914
200.32963,0.71571
200.08856,0.70892
199.84749,0.70508
199.60642,0.69879
199.36535,0.68872
199.12428,0.67786
198.88321,0.66921
198.64214,0.66338
198.40107,0.65946
198.16000,0.65627
197.91893,0.65254
197.67786,0.64696
197.43679,0.63805
197.19572,0.62515
196.95464,0.61087
196.71357,0.60039
196.47250,0.59595
196.23143,0.59422
195.99036,0.59063
195.74929,0.58444
195.50822,0.57800
195.26715,0.57299
195.02608,0.56901
194.78501,0.56466
194.54394,0.55935
194.30287,0.55370
194.06180,0.54827
193.82073,0.54304
193.57966,0.53832
193.33859,0.53467
193.09752,0.53157
192.85645,0.52779
192.61537,0.52288
192.37430,0.51743
192.13323,0.51213
191.89216,0.50726
191.65109,0.50318
191.41002,0.50086
191.16895,0.50158
190.92788,0.50530
190.68681,0.50904
190.44574,0.50835
190.20467,0.50156
189.96360,0.49182
189.72253,0.48379
189.48146,0.47949
189.24039,0.47814
188.99932,0.47854
188.75825,0.47986
188.51718,0.48135
188.27610,0.48261
188.03503,0.48363
187.79396,0.48396
187.55289,0.48267
187.31182,0.47961
187.07075,0.47556
186.82968,0.47139
186.58861,0.46828
186.34754,0.46770
186.10647,0.46967
185.86540,0.47184
185.62433,0.47209
185.38326,0.47080
185.14219,0.46936
184.90112,0.46790
184.66005,0.46624
184.41898,0.46567
184.17791,0.46767
183.93683,0.47177
183.69576,0.47569
183.45469,0.47751
183.21362,0.47671
182.97255,0.47387
182.73148,0.47039
182.49041,0.46800
182.24934,0.46756
182.00827,0.46856
181.76720,0.46972
181.52613,0.47025
181.28506,0.47043
181.04399,0.47152
180.80292,0.47474
180.56185,0.47997
180.32078,0.48580
180.07971,0.49058
179.83864,0.49377
179.59756,0.49680
179.35649,0.50176
179.11542,0.50882
178.87435,0.51553
178.63328,0.51940
178.39221,0.52081
178.15114,0.52290
177.91007,0.52863
177.66900,0.53808
177.42793,0.54887
177.18686,0.55930
176.94579,0.56986
176.70472,0.58143
176.46365,0.59385
176.22258,0.60646
175.98151,0.61855
175.74044,0.63008
175.49937,0.64237
175.25829,0.65629
175.01722,0.67067
174.77615,0.68437
174.53508,0.69849
174.29401,0.71428
174.05294,0.73008
173.81187,0.74321
173.57080,0.75385
173.32973,0.76356
173.08866,0.77212
172.84759,0.77888
172.60652,0.78431
172.36545,0.78814
172.12438,0.78960
171.88331,0.79084
171.64224,0.79538
171.40117,0.80226
171.16010,0.80606
170.91902,0.80411
170.67795,0.79911
170.43688,0.79380
170.19581,0.78765
169.95474,0.77987
169.71367,0.77209
169.47260,0.76621
169.23153,0.76200
168.99046,0.75820
168.74939,0.75468
168.50832,0.75214
168.26725,0.75011
168.02618,0.74738
167.78511,0.74471
167.54404,0.74469
167.30297,0.74786
167.06190,0.75145
166.82083,0.75277
166.57975,0.75166
166.33868,0.74946
166.09761,0.74856
165.85654,0.75154
165.61547,0.75854
165.37440,0.76683
165.13333,0.77473
164.89226,0.78340
164.65119,0.79266
164.41012,0.79827
164.16905,0.79697
163.92798,0.79242
163.68691,0.79209
163.44584,0.79930
163.20477,0.81090
162.96370,0.82192
162.72263,0.83072
162.48156,0.83789
162.24048,0.84138
161.99941,0.83775
161.75834,0.82979
161.51727,0.82615
161.27620,0.83081
161.03513,0.83920
160.79406,0.84546
160.55299,0.84748
160.31192,0.84474
160.07085,0.83783
159.82978,0.82909
159.58871,0.82058
159.34764,0.81373
159.10657,0.81003
158.86550,0.80948
158.62443,0.81016
158.38336,0.81073
158.14229,0.81057
157.90121,0.80785
157.66014,0.80088
157.41907,0.79028
157.17800,0.77810
156.93693,0.76726
156.69586,0.76111
156.45479,0.76095
156.21372,0.76428
155.97265,0.76717
155.73158,0.76774
155.49051,0.76638
155.24944,0.76371
155.00837,0.75902
154.76730,0.75057
154.52623,0.73796
154.28516,0.72334
154.04409,0.70919
153.80302,0.69675
153.56194,0.68664
153.32087,0.67887
153.07980,0.67155
152.83873,0.66152
152.59766,0.64714
152.35659,0.62950
152.11552,0.61144
151.87445,0.59624
151.63338,0.58617
151.39231,0.58052
151.15124,0.57576
150.91017,0.56867
150.66910,0.55872
150.42803,0.54729
150.18696,0.53588
149.94589,0.52543
149.70482,0.51647
149.46375,0.50879
149.22267,0.50170
148.98160,0.49492
148.74053,0.48848
148.49946,0.48172
148.25839,0.47374
148.01732,0.46504
147.77625,0.45754
147.53518,0.45309
147.29411,0.45206
147.05304,0.45276
146.81197,0.45264
146.57090,0.45119
146.32983,0.45083
146.08876,0.45398
145.84769,0.46009
145.60662,0.46637
145.36555,0.47088
145.12448,0.47407
144.88340,0.47751
144.64233,0.48154
144.40126,0.48518
144.16019,0.48800
143.91912,0.49052
143.67805,0.49256
143.43698,0.49292
143.19591,0.49056
142.95484,0.48526
142.71377,0.47726
142.47270,0.46699
142.23163,0.45542
141.99056,0.44441
141.74949,0.43622
141.50842,0.43220
141.26735,0.43140
141.02628,0.43066
140.78521,0.42714
140.54413,0.42166
140.30306,0.41826
140.06199,0.41936
139.82092,0.42272
139.57985,0.42410
139.33878,0.42236
139.09771,0.42049
138.85664,0.42187
138.61557,0.42700
138.37450,0.43403
138.13343,0.44109
137.89236,0.44750
137.65129,0.45354
137.41022,0.46066
137.16915,0.47152
136.92808,0.48786
136.68701,0.50821
136.44594,0.52883
136.20486,0.54715
135.96379,0.56330
135.72272,0.57853
135.48165,0.59373
135.24058,0.60998
134.99951,0.62889
134.75844,0.65168
134.51737,0.67863
134.27630,0.70862
134.03523,0.73859
133.79416,0.76496
133.55309,0.78630
133.31202,0.80328
133.07095,0.81691
132.82988,0.82903
132.58881,0.84278
132.34774,0.85912
132.10667,0.87468
131.86559,0.88563
131.62452,0.89168
131.38345,0.89562
131.14238,0.89978
130.90131,0.90218
130.66024,0.89701
130.41917,0.88134
130.17810,0.86039
129.93703,0.84201
129.69596,0.82656
129.45489,0.80679
129.21382,0.77823
128.97275,0.74564
128.73168,0.71701
128.49061,0.69500
128.24954,0.67607
128.00847,0.65606
127.76740,0.63460
127.52632,0.61319
127.28525,0.59148
127.04418,0.56822
126.80311,0.54435
126.56204,0.52291
126.32097,0.50587
126.07990,0.49224
125.83883,0.47973
125.59776,0.46716
125.35669,0.45486
125.11562,0.44329
124.87455,0.43294
124.63348,0.42481
124.39241,0.41874
124.15134,0.41167
123.91027,0.40056
123.66920,0.38667
123.42812,0.37462
123.18705,0.36729
122.94598,0.36326
122.70491,0.35938
122.46384,0.35524
122.22277,0.35344
121.98170,0.35541
121.74063,0.35930
121.49956,0.36259
121.25849,0.36461
121.01742,0.36604
120.77635,0.36745
120.53528,0.36917
120.29421,0.37213
120.05314,0.37817
119.81207,0.38850
119.57100,0.40211
119.32993,0.41691
119.08885,0.43228
118.84778,0.44972
118.60671,0.47161
118.36564,0.49885
118.12457,0.52809
117.88350,0.55289
117.64243,0.56975
117.40136,0.58115
117.16029,0.59149
116.91922,0.60248
116.67815,0.61249
116.43708,0.61881
116.19601,0.62021
115.95494,0.61710
115.71387,0.60971
115.47280,0.59859
115.23173,0.58625
114.99066,0.57584
114.74958,0.56825
114.50851,0.56153
114.26744,0.55293
114.02637,0.54201
113.78530,0.53132
113.54423,0.52290
113.30316,0.51612
113.06209,0.51071
112.82102,0.50907
112.57995,0.51295
112.33888,0.52084
112.09781,0.52984
111.85674,0.53759
111.61567,0.54146
111.37460,0.53908
111.13353,0.53199
110.89246,0.52502
110.65139,0.52088
110.41031,0.51816
110.16924,0.51448
109.92817,0.50966
109.68710,0.50477
109.44603,0.49890
109.20496,0.48878
108.96389,0.47289
108.72282,0.45421
108.48175,0.43701
108.24068,0.42284
107.99961,0.41112
107.75854,0.40152
107.51747,0.39383
107.27640,0.38624
107.03533,0.37612
106.79426,0.36350
106.55319,0.35173
106.31212,0.34331
106.07104,0.33640
105.82997,0.32739
105.58890,0.31588
105.34783,0.30521
105.10676,0.29836
104.86569,0.29475
104.62462,0.29057
104.38355,0.28276
104.14248,0.27231
103.90141,0.26264
103.66034,0.25590
103.41927,0.25145
103.17820,0.24721
102.93713,0.24213
102.69606,0.23764
102.45499,0.23561
102.21392,0.23472
101.97285,0.23130
101.73177,0.22417
101.49070,0.21606
101.24963,0.21020
101.00856,0.20768
100.76749,0.20748
100.52642,0.20762
100.28535,0.20626
100.04428,0.20282
99.80321,0.19812
99.56214,0.19378
99.32107,0.19117
99.08000,0.19057
98.83893,0.19134
98.59786,0.19237
98.35679,0.19198
98.11572,0.18869
97.87465,0.18349
97.63358,0.18020
97.39250,0.18165
97.15143,0.18673
96.91036,0.19264
96.66929,0.19818
96.42822,0.20323
96.18715,0.20699
95.94608,0.20886
95.70501,0.21007
95.46394,0.21299
95.22287,0.21866
94.98180,0.22595
94.74073,0.23286
94.49966,0.23786
94.25859,0.24002
94.01752,0.23957
93.77645,0.23800
93.53538,0.23687
93.29431,0.23681
93.05323,0.23783
92.81216,0.23941
92.57109,0.24007
92.33002,0.23846
92.08895,0.23515
91.84788,0.23273
91.60681,0.23435
91.36574,0.24184
91.12467,0.25433
90.88360,0.26884
90.64253,0.28362
90.40146,0.30039
90.16039,0.32257
89.91932,0.35184
89.67825,0.38712
89.43718,0.42554
89.19611,0.46376
88.95504,0.49904
88.71396,0.52963
88.47289,0.55233
88.23182,0.56029
87.99075,0.54793
87.74968,0.51907
87.50861,0.48499
87.26754,0.45473
87.02647,0.43051
86.78540,0.40951
86.54433,0.38767
86.30326,0.36306
86.06219,0.33733
85.82112,0.31370
85.58005,0.29408
85.33898,0.27815
85.09791,0.26414
84.85684,0.24950
84.61577,0.23267
84.37469,0.21473
84.13362,0.19818
83.89255,0.18472
83.65148,0.17490
83.41041,0.16901
83.16934,0.16652
82.92827,0.16544
82.68720,0.16322
82.44613,0.15860
82.20506,0.15218
81.96399,0.14560
81.72292,0.14045
81.48185,0.13737
81.24078,0.13542
80.99971,0.13277
80.75864,0.12865
80.51757,0.12477
80.27650,0.12362
80.03542,0.12531
79.79435,0.12732
79.55328,0.12738
79.31221,0.12545
79.07114,0.12280
78.83007,0.12041
78.58900,0.11860
78.34793,0.11700
78.10686,0.11489
77.86579,0.11204
77.62472,0.10896
77.38365,0.10615
77.14258,0.10359
76.90151,0.10116
76.66044,0.09908
76.41937,0.09781
76.17830,0.09755
75.93723,0.09778
75.69615,0.09742
75.45508,0.09599
75.21401,0.09413
74.97294,0.09254
74.73187,0.09133
74.49080,0.09070
74.24973,0.09088
74.00866,0.09130
73.76759,0.09094
73.52652,0.08971
73.28545,0.08862
73.04438,0.08850
72.80331,0.08917
72.56224,0.08973
72.32117,0.08975
72.08010,0.08990
71.83903,0.09068
71.59796,0.09116
71.35688,0.09033
71.11581,0.08901
70.87474,0.08959
70.63367,0.09405
70.39260,0.10222
70.15153,0.11161
69.91046,0.11967
69.66939,0.12667
69.42832,0.13488
69.18725,0.14430
68.94618,0.15059
68.70511,0.14922
68.46404,0.14078
68.22297,0.13032
67.98190,0.12173
67.74083,0.11505
67.49976,0.10891
67.25869,0.10306
67.01761,0.09820
66.77654,0.09448
66.53547,0.09087
66.29440,0.08610
66.05333,0.08046
65.81226,0.07603
65.57119,0.07450
65.33012,0.07525
65.08905,0.07652
64.84798,0.07855
64.60691,0.08403
64.36584,0.09414
64.12477,0.10518
63.88370,0.11180
63.64263,0.11264
63.40156,0.11018
63.16049,0.10682
62.91942,0.10368
62.67834,0.10120
62.43727,0.09800
62.19620,0.09131
61.95513,0.08076
61.71406,0.06974
61.47299,0.06157
61.23192,0.05658
60.99085,0.05364
60.74978,0.05240
60.50871,0.05323
60.26764,0.05559
60.02657,0.05716
59.78550,0.05592
59.54443,0.05305
59.30336,0.05192
59.06229,0.05382
58.82122,0.05725
58.58015,0.06090
58.33907,0.06445
58.09800,0.06693
57.85693,0.06713
57.61586,0.06480
57.37479,0.06014
57.13372,0.05371
56.89265,0.04726
56.65158,0.04290
56.41051,0.04088
56.16944,0.03946
55.92837,0.03725
55.68730,0.03557
55.44623,0.03757
55.20516,0.04415
54.96409,0.05207
54.72302,0.05692
54.48195,0.05721
54.24088,0.05541
53.99980,0.05533
53.75873,0.05791
53.51766,0.05930
53.27659,0.05495
53.03552,0.04619
52.79445,0.04075
52.55338,0.04465
52.31231,0.05529
52.07124,0.06456
51.83017,0.06607
51.58910,0.05879
51.34803,0.04692
51.10696,0.03684
50.86589,0.03193
50.62482,0.03084
50.38375,0.03165
50.14268,0.03513
49.90161,0.04152
49.66053,0.04736
49.41946,0.04885
49.17839,0.04673
48.93732,0.04456
48.69625,0.04309
48.45518,0.03934
48.21411,0.03116
47.97304,0.02077
47.73197,0.01230
47.49090,0.00706
47.24983,0.00382
47.00876,0.00153
46.76769,-0.00073
46.52662,-0.00369
46.28555,-0.00558
46.04448,-0.00345
45.80341,0.00167
45.56234,0.00446
45.32126,0.00223
45.08019,-0.00175
44.83912,-0.00364
44.59805,-0.00357
44.35698,-0.00328
44.11591,-0.00319
43.87484,-0.00422
43.63377,-0.00804
43.39270,-0.01305
43.15163,-0.01476
42.91056,-0.01062
42.66949,-0.00173
42.42842,0.00715
42.18735,0.00868
41.94628,0.00100
41.70521,-0.00645
41.46414,-0.00343
41.22307,0.00714
40.98199,0.01269
40.74092,0.00823
40.49985,0.00314
40.25878,0.00683
40.01771,0.01524
39.77664,0.01709
39.53557,0.00711
39.29450,-0.00977
39.05343,-0.02410
38.81236,-0.03052
38.57129,-0.02962
38.33022,-0.02305
38.08915,-0.01274
37.84808,-0.00711
37.60701,-0.01708
37.36594,-0.03918
37.12487,-0.05494
36.88380,-0.05218
36.64272,-0.03313
36.40165,-0.00634
36.16058,0.01536
35.91951,0.01723
35.67844,-0.00377
35.43737,-0.03128
35.19630,-0.04533
34.95523,-0.04313
34.71416,-0.03544
34.47309,-0.02826
34.23202,-0.01891
33.99095,-0.00593
33.74988,0.00704
33.50881,0.02069
33.26774,0.03648
33.02667,0.04394
32.78560,0.03700
32.54453,0.02195
32.30345,0.00092
32.06238,-0.02335
31.82131,-0.03832
31.58024,-0.03268
31.33917,-0.01624
31.09810,-0.01403
30.85703,-0.03277
30.61596,-0.05439
30.37489,-0.06353
30.13382,-0.06683
29.89275,-0.07064
29.65168,-0.05633
29.41061,-0.00344
29.16954,0.06703
28.92847,0.12232
28.68740,0.16210
28.44633,0.19553
28.20526,0.20345
27.96418,0.16934
27.72311,0.11666
27.48204,0.07746
27.24097,0.06304
26.99990,0.05802
26.75883,0.04371
26.51776,0.01733
26.27669,-0.00564
26.03562,-0.00941
25.79455,-0.00525
25.55348,-0.00829
25.31241,-0.01584
25.07134,-0.00082
24.83027,0.06223
24.58920,0.15348
24.34813,0.22011
24.10706,0.21940
23.86599,0.18245
23.62491,0.16226
23.38384,0.15784
23.14277,0.16196
22.90170,0.17728
22.66063,0.20426
22.41956,0.25482
22.17849,0.30337
21.93742,0.29698
21.69635,0.25964
21.45528,0.21260
21.21421,0.12996
20.97314,0.11147
20.73207,0.13051
20.49100,0.11580
20.24993,0.12537
20.00886,0.25110
19.76779,0.40557
19.52672,0.39495
19.28564,0.30191
19.04457,0.27982
18.80350,0.32036
18.56243,0.31147
18.32136,0.31642
18.08029,0.38302
17.83922,0.38066
17.59815,0.37306
17.35708,0.35123
17.11601,0.34479
16.87494,0.39713
16.63387,0.48016
16.39280,0.59470
16.15173,0.67382
15.91066,0.72596
15.66959,0.82766
15.42852,0.72002
15.18745,0.49844
14.94637,0.42946
14.70530,0.52268
14.46423,0.66900
14.22316,0.65435
13.98209,0.57768
13.74102,0.56189
13.49995,0.53756
13.25888,0.45986
13.01781,0.45257
12.77674,0.51760
12.53567,0.63099
12.29460,0.72047
12.05353,0.66641
11.81246,0.52225
11.57139,0.44789
11.33032,0.45483
11.08925,0.47809
10.84818,0.54569
10.60710,0.79313
10.36603,1.11000
10.12496,0.89944
9.88389,0.68684
9.64282,0.63625
9.40175,0.65322
9.16068,0.61232
8.91961,0.47461
8.67854,0.38804
8.43747,0.46655
8.19640,0.66249
7.95533,0.62333
7.71426,0.46884
7.47319,0.48737
7.23212,0.60203
6.99105,0.68742
6.74998,0.67032
6.50891,0.71335
6.26783,0.94892
6.02676,1.14550
5.78569,1.11316
5.54462,0.90819
5.30355,0.76306
5.06248,0.81510
4.82141,1.05185
4.58034,1.22521
4.33927,1.08979
4.09820,0.94109
3.85713,0.85500
3.61606,0.73674
3.37499,0.60506
3.13392,0.55365
2.89285,0.63264
2.65178,0.76042
2.41071,0.80592
2.16964,0.69377
1.92856,0.63758
1.68749,0.71348
1.44642,0.71482
1.20535,0.52751
0.96428,0.47826
0.72321,0.56272
0.48214,0.49362
0.24107,0.38253
-0.00000,0.27390
