399.69498,1.62283
399.45391,1.62558
399.21284,1.60802
398.97177,1.58715
398.73070,1.58808
398.48963,1.62020
398.24856,1.66220
398.00749,1.67165
397.76642,1.63943
397.52535,1.60544
397.28428,1.59904
397.04321,1.61098
396.80214,1.61601
396.56107,1.60733
396.32000,1.60170
396.07892,1.61180
395.83785,1.62756
395.59678,1.63018
395.35571,1.62103
395.11464,1.61804
394.87357,1.62459
394.63250,1.62343
394.39143,1.60555
394.15036,1.58739
393.90929,1.58646
393.66822,1.60109
393.42715,1.61965
393.18608,1.63561
392.94501,1.64568
392.70394,1.63980
392.46287,1.60656
392.22180,1.55526
391.98073,1.51333
391.73965,1.49641
391.49858,1.49965
391.25751,1.51246
391.01644,1.52958
390.77537,1.54689
390.53430,1.55090
390.29323,1.53143
390.05216,1.49940
389.81109,1.47407
389.57002,1.46107
389.32895,1.45722
389.08788,1.46859
388.84681,1.50436
388.60574,1.55420
388.36467,1.58298
388.12360,1.56591
387.88253,1.52205
387.64146,1.48493
387.40038,1.46875
387.15931,1.47011
386.91824,1.47883
386.67717,1.48350
386.43610,1.47663
386.19503,1.46174
385.95396,1.45184
385.71289,1.45456
385.47182,1.46133
385.23075,1.45697
384.98968,1.43810
384.74861,1.41518
384.50754,1.39931
384.26647,1.38931
384.02540,1.37743
383.78433,1.36146
383.54326,1.34652
383.30219,1.33623
383.06111,1.32755
382.82004,1.32145
382.57897,1.32426
382.33790,1.33360
382.09683,1.33835
381.85576,1.33472
381.61469,1.32603
381.37362,1.31613
381.13255,1.31188
380.89148,1.31530
380.65041,1.32110
380.40934,1.32746
380.16827,1.33244
379.92720,1.33251
379.68613,1.32630
379.44506,1.31366
379.20399,1.30254
378.96292,1.29931
378.72184,1.30571
378.48077,1.32450
378.23970,1.35251
377.99863,1.37451
377.75756,1.37751
377.51649,1.37404
377.27542,1.38288
377.03435,1.39706
376.79328,1.39988
376.55221,1.38992
376.31114,1.38296
376.07007,1.39393
375.82900,1.41716
375.58793,1.43704
375.34686,1.45352
375.10579,1.47697
374.86472,1.50222
374.62365,1.51019
374.38257,1.49665
374.14150,1.47549
373.90043,1.45475
373.65936,1.43608
373.41829,1.42542
373.17722,1.42367
372.93615,1.42374
372.69508,1.42135
372.45401,1.41655
372.21294,1.41409
371.97187,1.42340
371.73080,1.44496
371.48973,1.46258
371.24866,1.45991
371.00759,1.44206
370.76652,1.42866
370.52545,1.42927
370.28437,1.43789
370.04330,1.44763
369.80223,1.46055
369.56116,1.48011
369.32009,1.49893
369.07902,1.50281
368.83795,1.48946
368.59688,1.46953
368.35581,1.44971
368.11474,1.43246
367.87367,1.42351
367.63260,1.42682
367.39153,1.43573
367.15046,1.43691
366.90939,1.42465
366.66832,1.40663
366.42725,1.39530
366.18618,1.39603
365.94510,1.40475
365.70403,1.41294
365.46296,1.41461
365.22189,1.41059
364.98082,1.40585
364.73975,1.40449
364.49868,1.40692
364.25761,1.41178
364.01654,1.41841
363.77547,1.42355
363.53440,1.41900
363.29333,1.39897
363.05226,1.37001
362.81119,1.34742
362.57012,1.34147
362.32905,1.35062
362.08798,1.36399
361.84691,1.36968
361.60583,1.36475
361.36476,1.35590
361.12369,1.35006
360.88262,1.34836
360.64155,1.35050
360.40048,1.35795
360.15941,1.36899
359.91834,1.37618
359.67727,1.37317
359.43620,1.36124
359.19513,1.34698
358.95406,1.33732
358.71299,1.33528
358.47192,1.33646
358.23085,1.33203
357.98978,1.31947
357.74871,1.30535
357.50764,1.29565
357.26656,1.29110
357.02549,1.29280
356.78442,1.30527
356.54335,1.32865
356.30228,1.35069
356.06121,1.35770
355.82014,1.35328
355.57907,1.34951
355.33800,1.34603
355.09693,1.33631
354.85586,1.32228
354.61479,1.31180
354.37372,1.31038
354.13265,1.31698
353.89158,1.32549
353.65051,1.32959
353.40944,1.32841
353.16837,1.32778
352.92729,1.33286
352.68622,1.34127
352.44515,1.34475
352.20408,1.33755
351.96301,1.32421
351.72194,1.31810
351.48087,1.32938
351.23980,1.35296
350.99873,1.37065
350.75766,1.36914
350.51659,1.35354
350.27552,1.33803
350.03445,1.33048
349.79338,1.32957
349.55231,1.33094
349.31124,1.33392
349.07017,1.34109
348.82910,1.35026
348.58802,1.35290
348.34695,1.34571
348.10588,1.33681
347.86481,1.33281
347.62374,1.32833
347.38267,1.31690
347.14160,1.30444
346.90053,1.30253
346.65946,1.31422
346.41839,1.33051
346.17732,1.33839
345.93625,1.33365
345.69518,1.32637
345.45411,1.33006
345.21304,1.34775
344.97197,1.37249
344.73090,1.39671
344.48983,1.41473
344.24875,1.42111
344.00768,1.41690
343.76661,1.41044
343.52554,1.40431
343.28447,1.39309
343.04340,1.37867
342.80233,1.37393
342.56126,1.38631
342.32019,1.40812
342.07912,1.42288
341.83805,1.41642
341.59698,1.38952
341.35591,1.36100
341.11484,1.35252
340.87377,1.37510
340.63270,1.41496
340.39163,1.43500
340.15056,1.41887
339.90948,1.39375
339.66841,1.38648
339.42734,1.39630
339.18627,1.41021
338.94520,1.42317
338.70413,1.43813
338.46306,1.45433
338.22199,1.46495
337.98092,1.46477
337.73985,1.45710
337.49878,1.45173
337.25771,1.45338
337.01664,1.45539
336.77557,1.45036
336.53450,1.44194
336.29343,1.43716
336.05236,1.43699
335.81129,1.44105
335.57021,1.44946
335.32914,1.45768
335.08807,1.46076
334.84700,1.45960
334.60593,1.45639
334.36486,1.45047
334.12379,1.44122
333.88272,1.43007
333.64165,1.41761
333.40058,1.40515
333.15951,1.39897
332.91844,1.40585
332.67737,1.42246
332.43630,1.43506
332.19523,1.43226
331.95416,1.41320
331.71309,1.39197
331.47202,1.38272
331.23094,1.37984
330.98987,1.37163
330.74880,1.36083
330.50773,1.35267
330.26666,1.34212
330.02559,1.32770
329.78452,1.31995
329.54345,1.32743
329.30238,1.34399
329.06131,1.35457
328.82024,1.35378
328.57917,1.35026
328.33810,1.35174
328.09703,1.35817
327.85596,1.36237
327.61489,1.35448
327.37382,1.33688
327.13275,1.32081
326.89167,1.31242
326.65060,1.31090
326.40953,1.31210
326.16846,1.31579
325.92739,1.32523
325.68632,1.33834
325.44525,1.34810
325.20418,1.34994
324.96311,1.34400
324.72204,1.33495
324.48097,1.32935
324.23990,1.32853
323.99883,1.32761
323.75776,1.32532
323.51669,1.33039
323.27562,1.35104
323.03455,1.37981
322.79348,1.39803
322.55240,1.39819
322.31133,1.39074
322.07026,1.38791
321.82919,1.38938
321.58812,1.38680
321.34705,1.37898
321.10598,1.37118
320.86491,1.36440
320.62384,1.35404
320.38277,1.33797
320.14170,1.32097
319.90063,1.31151
319.65956,1.31677
319.41849,1.33611
319.17742,1.35889
318.93635,1.37480
318.69528,1.38151
318.45421,1.37503
318.21313,1.35179
317.97206,1.32266
317.73099,1.30823
317.48992,1.32113
317.24885,1.35249
317.00778,1.37746
316.76671,1.38292
316.52564,1.37213
316.28457,1.35162
316.04350,1.33356
315.80243,1.33077
315.56136,1.34260
315.32029,1.35786
315.07922,1.37186
314.83815,1.38509
314.59708,1.39036
314.35601,1.38278
314.11494,1.37515
313.87386,1.37931
313.63279,1.38783
313.39172,1.39224
313.15065,1.39885
312.90958,1.40917
312.66851,1.40798
312.42744,1.38775
312.18637,1.36960
311.94530,1.37445
311.70423,1.39084
311.46316,1.39401
311.22209,1.39227
310.98102,1.40723
310.73995,1.42465
310.49888,1.41880
310.25781,1.40054
310.01674,1.39919
309.77567,1.41663
309.53459,1.43142
309.29352,1.43254
309.05245,1.42811
308.81138,1.42256
308.57031,1.41043
308.32924,1.39404
308.08817,1.38659
307.84710,1.39594
307.60603,1.41841
307.36496,1.44516
307.12389,1.46657
306.88282,1.48020
306.64175,1.48421
306.40068,1.46958
306.15961,1.44080
305.91854,1.41600
305.67747,1.40286
305.43640,1.39826
305.19532,1.40330
304.95425,1.42254
304.71318,1.44848
304.47211,1.45917
304.23104,1.44186
303.98997,1.40793
303.74890,1.37956
303.50783,1.37170
303.26676,1.38349
303.02569,1.39989
302.78462,1.40533
302.54355,1.40114
302.30248,1.39818
302.06141,1.39900
301.82034,1.39748
301.57927,1.39042
301.33820,1.38346
301.09713,1.38284
300.85605,1.38666
300.61498,1.38906
300.37391,1.38528
300.13284,1.37274
299.89177,1.35400
299.65070,1.33525
299.40963,1.32213
299.16856,1.31678
298.92749,1.31685
298.68642,1.31885
298.44535,1.32226
298.20428,1.32872
297.96321,1.33595
297.72214,1.33640
297.48107,1.32681
297.24000,1.31390
296.99893,1.30575
296.75786,1.30353
296.51678,1.30486
296.27571,1.30993
296.03464,1.31903
295.79357,1.32592
295.55250,1.32059
295.31143,1.29949
295.07036,1.27052
294.82929,1.24785
294.58822,1.23977
294.34715,1.24474
294.10608,1.25728
293.86501,1.27154
293.62394,1.27973
293.38287,1.27602
293.14180,1.26513
292.90073,1.25729
292.65966,1.25316
292.41859,1.24657
292.17751,1.23776
291.93644,1.23156
291.69537,1.22852
291.45430,1.22577
291.21323,1.22327
290.97216,1.22467
290.73109,1.23240
290.49002,1.24401
290.24895,1.25215
290.00788,1.24983
289.76681,1.23849
289.52574,1.22788
289.28467,1.22495
289.04360,1.22621
288.80253,1.22563
288.56146,1.22504
288.32039,1.22934
288.07932,1.23603
287.83824,1.23751
287.59717,1.23350
287.35610,1.23166
287.11503,1.23549
286.87396,1.24007
286.63289,1.23890
286.39182,1.23130
286.15075,1.22334
285.90968,1.22136
285.66861,1.22554
285.42754,1.22881
285.18647,1.22249
284.94540,1.20639
284.70433,1.19018
284.46326,1.18296
284.22219,1.18497
283.98112,1.19001
283.74005,1.19286
283.49897,1.19231
283.25790,1.18958
283.01683,1.18592
282.77576,1.18195
282.53469,1.17974
282.29362,1.18281
282.05255,1.19173
281.81148,1.20202
281.57041,1.20816
281.32934,1.20897
281.08827,1.20850
280.84720,1.21142
280.60613,1.21688
280.36506,1.21946
280.12399,1.21715
279.88292,1.21429
279.64185,1.21514
279.40078,1.21761
279.15970,1.21656
278.91863,1.21270
278.67756,1.21151
278.43649,1.21386
278.19542,1.21392
277.95435,1.20771
277.71328,1.19957
277.47221,1.19635
277.23114,1.19977
276.99007,1.20503
276.74900,1.20595
276.50793,1.20209
276.26686,1.19918
276.02579,1.20184
275.78472,1.20905
275.54365,1.21678
275.30258,1.22143
275.06151,1.22092
274.82043,1.21637
274.57936,1.21186
274.33829,1.20999
274.09722,1.20923
273.85615,1.20746
273.61508,1.20597
273.37401,1.20752
273.13294,1.21179
272.89187,1.21527
272.65080,1.21469
272.40973,1.20955
272.16866,1.20254
271.92759,1.19825
271.68652,1.20028
271.44545,1.20819
271.20438,1.21674
270.96331,1.22059
270.72224,1.22068
270.48116,1.22248
270.24009,1.22874
269.99902,1.23757
269.75795,1.24716
269.51688,1.25666
269.27581,1.26300
269.03474,1.26436
268.79367,1.26482
268.55260,1.26968
268.31153,1.27934
268.07046,1.28979
267.82939,1.29619
267.58832,1.29729
267.34725,1.29883
267.10618,1.30825
266.86511,1.32380
266.62404,1.33541
266.38297,1.33810
266.14189,1.33649
265.90082,1.33560
265.65975,1.33618
265.41868,1.33872
265.17761,1.34523
264.93654,1.35657
264.69547,1.37061
264.45440,1.38397
264.21333,1.39569
263.97226,1.40768
263.73119,1.42142
263.49012,1.43408
263.24905,1.43971
263.00798,1.43672
262.76691,1.43027
262.52584,1.42782
262.28477,1.43447
262.04370,1.45162
261.80262,1.47898
261.56155,1.51558
261.32048,1.55741
261.07941,1.59455
260.83834,1.61964
260.59727,1.63766
260.35620,1.65790
260.11513,1.68254
259.87406,1.70452
259.63299,1.71792
259.39192,1.72396
259.15085,1.72472
258.90978,1.72150
258.66871,1.72180
258.42764,1.73753
258.18657,1.76802
257.94550,1.79728
257.70443,1.81887
257.46335,1.84159
257.22228,1.86784
256.98121,1.88629
256.74014,1.88687
256.49907,1.87967
256.25800,1.88930
256.01693,1.92578
255.77586,1.96659
255.53479,1.97605
255.29372,1.93993
255.05265,1.87414
254.81158,1.81182
254.57051,1.77929
254.32944,1.77833
254.08837,1.78493
253.84730,1.77442
253.60623,1.74832
253.36516,1.71810
253.12408,1.68982
252.88301,1.66783
252.64194,1.65678
252.40087,1.65240
252.15980,1.64278
251.91873,1.62492
251.67766,1.60682
251.43659,1.59516
251.19552,1.59103
250.95445,1.58829
250.71338,1.57881
250.47231,1.56445
250.23124,1.55556
249.99017,1.56037
249.74910,1.57911
249.50803,1.60459
249.26696,1.62479
249.02589,1.62809
248.78481,1.61440
248.54374,1.59658
248.30267,1.58640
248.06160,1.59260
247.82053,1.62208
247.57946,1.66692
247.33839,1.69695
247.09732,1.68646
246.85625,1.64820
246.61518,1.61192
246.37411,1.59101
246.13304,1.58313
245.89197,1.58418
245.65090,1.59693
245.40983,1.62715
245.16876,1.67297
244.92769,1.72522
244.68661,1.77711
244.44554,1.82053
244.20447,1.84049
243.96340,1.83686
243.72233,1.83471
243.48126,1.85999
243.24019,1.91415
242.99912,1.97655
242.75805,2.02553
242.51698,2.02786
242.27591,1.94820
242.03484,1.83055
241.79377,1.72753
241.55270,1.64406
241.31163,1.57493
241.07056,1.52120
240.82949,1.48118
240.58842,1.44573
240.34734,1.40754
240.10627,1.36797
239.86520,1.33102
239.62413,1.29910
239.38306,1.27659
239.14199,1.26618
238.90092,1.25967
238.65985,1.24318
238.41878,1.21509
238.17771,1.18690
237.93664,1.16594
237.69557,1.14966
237.45450,1.13340
237.21343,1.11516
236.97236,1.09541
236.73129,1.07771
236.49022,1.06612
236.24915,1.05934
236.00807,1.05119
235.76700,1.03894
235.52593,1.02610
235.28486,1.01518
235.04379,1.00384
234.80272,0.99101
234.56165,0.98042
234.32058,0.97487
234.07951,0.97170
233.83844,0.96651
233.59737,0.95855
233.35630,0.94990
233.11523,0.94196
232.87416,0.93563
232.63309,0.93240
232.39202,0.93331
232.15095,0.93679
231.90988,0.93928
231.66880,0.93918
231.42773,0.93841
231.18666,0.93875
230.94559,0.93846
230.70452,0.93423
230.46345,0.92648
230.22238,0.91989
229.98131,0.91714
229.74024,0.91484
229.49917,0.90867
229.25810,0.90029
229.01703,0.89492
228.77596,0.89360
228.53489,0.89236
228.29382,0.88888
228.05275,0.88571
227.81168,0.88591
227.57061,0.88876
227.32953,0.89074
227.08846,0.88920
226.84739,0.88464
226.60632,0.88023
226.36525,0.87829
226.12418,0.87787
225.88311,0.87716
225.64204,0.87653
225.40097,0.87657
225.15990,0.87588
224.91883,0.87331
224.67776,0.87058
224.43669,0.86999
224.19562,0.87079
223.95455,0.86994
223.71348,0.86745
223.47241,0.86876
223.23134,0.87733
222.99026,0.88835
222.74919,0.89531
222.50812,0.89909
222.26705,0.90320
222.02598,0.90666
221.78491,0.90885
221.54384,0.91244
221.30277,0.91688
221.06170,0.91839
220.82063,0.91798
220.57956,0.92061
220.33849,0.92768
220.09742,0.93632
219.85635,0.94391
219.61528,0.95112
219.37421,0.96142
219.13314,0.97707
218.89207,0.99482
218.65099,1.00807
218.40992,1.01476
218.16885,1.01939
217.92778,1.02677
217.68671,1.03754
217.44564,1.04877
217.20457,1.05706
216.96350,1.06222
216.72243,1.06849
216.48136,1.08117
216.24029,1.10151
215.99922,1.12486
215.75815,1.14509
215.51708,1.16052
215.27601,1.17285
215.03494,1.18166
214.79387,1.18459
214.55280,1.18232
214.31172,1.18133
214.07065,1.18948
213.82958,1.20984
213.58851,1.23882
213.34744,1.26755
213.10637,1.28549
212.86530,1.28823
212.62423,1.28413
212.38316,1.28620
212.14209,1.29510
211.90102,1.29859
211.65995,1.28937
211.41888,1.27521
211.17781,1.26854
210.93674,1.27534
210.69567,1.29286
210.45460,1.30972
210.21353,1.31200
209.97245,1.29737
209.73138,1.27687
209.49031,1.25945
209.24924,1.24617
209.00817,1.23757
208.76710,1.23731
208.52603,1.24786
208.28496,1.26705
208.04389,1.28669
207.80282,1.29455
207.56175,1.28439
207.32068,1.26184
207.07961,1.23620
206.83854,1.21215
206.59747,1.19112
206.35640,1.17446
206.11533,1.16297
205.87426,1.15689
205.63318,1.15570
205.39211,1.15563
205.15104,1.14944
204.90997,1.13302
204.66890,1.10996
204.42783,1.08760
204.18676,1.07196
203.94569,1.06550
203.70462,1.06523
203.46355,1.06365
203.22248,1.05454
202.98141,1.03783
202.74034,1.01780
202.49927,0.99915
202.25820,0.98543
202.01713,0.97801
201.77606,0.97459
201.53499,0.97015
201.29391,0.96011
201.05284,0.94348
200.81177,0.92343
200.57070,0.90458
200.32963,0.88984
200.08856,0.87898
199.84749,0.86956
199.60642,0.85935
199.36535,0.84833
199.12428,0.83784
198.88321,0.82780
198.64214,0.81684
198.40107,0.80569
198.16000,0.79737
197.91893,0.79392
197.67786,0.79408
197.43679,0.79270
197.19572,0.78349
196.95464,0.76622
196.71357,0.74876
196.47250,0.73846
196.23143,0.73433
195.99036,0.72945
195.74929,0.71898
195.50822,0.70447
195.26715,0.69109
195.02608,0.68340
194.78501,0.68320
194.54394,0.68763
194.30287,0.68932
194.06180,0.68293
193.82073,0.67141
193.57966,0.66235
193.33859,0.65954
193.09752,0.66023
192.85645,0.65910
192.61537,0.65418
192.37430,0.64831
192.13323,0.64454
191.89216,0.64210
191.65109,0.63784
191.41002,0.63054
191.16895,0.62275
190.92788,0.61760
190.68681,0.61532
190.44574,0.61345
190.20467,0.61051
189.96360,0.60787
189.72253,0.60711
189.48146,0.60746
189.24039,0.60655
188.99932,0.60293
188.75825,0.59819
188.51718,0.59561
188.27610,0.59632
188.03503,0.59752
187.79396,0.59599
187.55289,0.59245
187.31182,0.58959
187.07075,0.58806
186.82968,0.58680
186.58861,0.58550
186.34754,0.58508
186.10647,0.58624
185.86540,0.58774
185.62433,0.58703
185.38326,0.58401
185.14219,0.58234
184.90112,0.58493
184.66005,0.58988
184.41898,0.59289
184.17791,0.59272
183.93683,0.59161
183.69576,0.59140
183.45469,0.59194
183.21362,0.59249
182.97255,0.59265
182.73148,0.59230
182.49041,0.59185
182.24934,0.59225
182.00827,0.59445
181.76720,0.59833
181.52613,0.60208
181.28506,0.60343
181.04399,0.60256
180.80292,0.60236
180.56185,0.60507
180.32078,0.61028
180.07971,0.61630
179.83864,0.62184
179.59756,0.62608
179.35649,0.62831
179.11542,0.62875
178.87435,0.63021
178.63328,0.63643
178.39221,0.64681
178.15114,0.65626
177.91007,0.66269
177.66900,0.66969
177.42793,0.67955
177.18686,0.69024
176.94579,0.70133
176.70472,0.71590
176.46365,0.73452
176.22258,0.75384
175.98151,0.77106
175.74044,0.78637
175.49937,0.80156
175.25829,0.81818
175.01722,0.83592
174.77615,0.85240
174.53508,0.86612
174.29401,0.87874
174.05294,0.89310
173.81187,0.91040
173.57080,0.92991
173.32973,0.94923
173.08866,0.96428
172.84759,0.97209
172.60652,0.97438
172.36545,0.97502
172.12438,0.97580
171.88331,0.97747
171.64224,0.98096
171.40117,0.98431
171.16010,0.98384
170.91902,0.97990
170.67795,0.97592
170.43688,0.97182
170.19581,0.96495
169.95474,0.95653
169.71367,0.95029
169.47260,0.94678
169.23153,0.94349
168.99046,0.93858
168.74939,0.93277
168.50832,0.92794
168.26725,0.92456
168.02618,0.92145
167.78511,0.91858
167.54404,0.91822
167.30297,0.92142
167.06190,0.92521
166.82083,0.92527
166.57975,0.92045
166.33868,0.91300
166.09761,0.90654
165.85654,0.90452
165.61547,0.90859
165.37440,0.91727
165.13333,0.92733
164.89226,0.93727
164.65119,0.94814
164.41012,0.96114
164.16905,0.97622
163.92798,0.99257
163.68691,1.00855
163.44584,1.02170
163.20477,1.02929
162.96370,1.02948
162.72263,1.02323
162.48156,1.01523
162.24048,1.01190
161.99941,1.01798
161.75834,1.03377
161.51727,1.05322
161.27620,1.06559
161.03513,1.06380
160.79406,1.05156
160.55299,1.03845
160.31192,1.02994
160.07085,1.02442
159.82978,1.01732
159.58871,1.00663
159.34764,0.99564
159.10657,0.98977
158.86550,0.99131
158.62443,0.99774
158.38336,1.00397
158.14229,1.00532
157.90121,1.00033
157.66014,0.99096
157.41907,0.98028
157.17800,0.97093
156.93693,0.96388
156.69586,0.95838
156.45479,0.95403
156.21372,0.95170
155.97265,0.95124
155.73158,0.95019
155.49051,0.94554
155.24944,0.93517
155.00837,0.91901
154.76730,0.89991
154.52623,0.88238
154.28516,0.86970
154.04409,0.86220
153.80302,0.85810
153.56194,0.85425
153.32087,0.84575
153.07980,0.82881
152.83873,0.80565
152.59766,0.78308
152.35659,0.76590
152.11552,0.75396
151.87445,0.74417
151.63338,0.73342
151.39231,0.72027
151.15124,0.70572
150.91017,0.69146
150.66910,0.67743
150.42803,0.66297
150.18696,0.64910
149.94589,0.63765
149.70482,0.62887
149.46375,0.62111
149.22267,0.61167
148.98160,0.59911
148.74053,0.58589
148.49946,0.57659
148.25839,0.57310
148.01732,0.57330
147.77625,0.57347
147.53518,0.57082
147.29411,0.56528
147.05304,0.55996
146.81197,0.55847
146.57090,0.56162
146.32983,0.56704
146.08876,0.57148
145.84769,0.57337
145.60662,0.57399
145.36555,0.57650
145.12448,0.58294
144.88340,0.59183
144.64233,0.59902
144.40126,0.60220
144.16019,0.60338
143.91912,0.60577
143.67805,0.60937
143.43698,0.61090
143.19591,0.60755
142.95484,0.60004
142.71377,0.59123
142.47270,0.58244
142.23163,0.57260
141.99056,0.56147
141.74949,0.55136
141.50842,0.54470
141.26735,0.54135
141.02628,0.53881
140.78521,0.53489
140.54413,0.52994
140.30306,0.52586
140.06199,0.52310
139.82092,0.52044
139.57985,0.51807
139.33878,0.51831
139.09771,0.52239
138.85664,0.52843
138.61557,0.53397
138.37450,0.53926
138.13343,0.54683
137.89236,0.55806
137.65129,0.57157
137.41022,0.58532
137.16915,0.59900
136.92808,0.61310
136.68701,0.62726
136.44594,0.64176
136.20486,0.65853
135.96379,0.67920
135.72272,0.70335
135.48165,0.72938
135.24058,0.75631
134.99951,0.78440
134.75844,0.81405
134.51737,0.84502
134.27630,0.87836
134.03523,0.91590
133.79416,0.95410
133.55309,0.98381
133.31202,1.00346
133.07095,1.02433
132.82988,1.05348
132.58881,1.08349
132.34774,1.10485
132.10667,1.11820
131.86559,1.12622
131.62452,1.12775
131.38345,1.12268
131.14238,1.11308
130.90131,1.10257
130.66024,1.09637
130.41917,1.09663
130.17810,1.09649
129.93703,1.08368
129.69596,1.05393
129.45489,1.01544
129.21382,0.97819
128.97275,0.94557
128.73168,0.91608
128.49061,0.88737
128.24954,0.85716
128.00847,0.82348
127.76740,0.78714
127.52632,0.75270
127.28525,0.72424
127.04418,0.70109
126.80311,0.67941
126.56204,0.65726
126.32097,0.63558
126.07990,0.61500
125.83883,0.59571
125.59776,0.57883
125.35669,0.56487
125.11562,0.55269
124.87455,0.54153
124.63348,0.53189
124.39241,0.52371
124.15134,0.51587
123.91027,0.50772
123.66920,0.49922
123.42812,0.49049
123.18705,0.48232
122.94598,0.47580
122.70491,0.47105
122.46384,0.46764
122.22277,0.46570
121.98170,0.46521
121.74063,0.46520
121.49956,0.46485
121.25849,0.46450
121.01742,0.46555
120.77635,0.46947
120.53528,0.47651
120.29421,0.48534
120.05314,0.49513
119.81207,0.50722
119.57100,0.52353
119.32993,0.54428
119.08885,0.56852
118.84778,0.59585
118.60671,0.62612
118.36564,0.65831
118.12457,0.69070
117.88350,0.72160
117.64243,0.74948
117.40136,0.77298
117.16029,0.79164
116.91922,0.80612
116.67815,0.81675
116.43708,0.82255
116.19601,0.82185
115.95494,0.81348
115.71387,0.79810
115.47280,0.77930
115.23173,0.76176
114.99066,0.74746
114.74958,0.73496
114.50851,0.72259
114.26744,0.71049
114.02637,0.69910
113.78530,0.68764
113.54423,0.67608
113.30316,0.66676
113.06209,0.66232
112.82102,0.66297
112.57995,0.66764
112.33888,0.67620
112.09781,0.68811
111.85674,0.70093
111.61567,0.71312
111.37460,0.72616
111.13353,0.74114
110.89246,0.75511
110.65139,0.76256
110.41031,0.75943
110.16924,0.74742
109.92817,0.73289
109.68710,0.71749
109.44603,0.69566
109.20496,0.66453
108.96389,0.63074
108.72282,0.60406
108.48175,0.58886
108.24068,0.58281
107.99961,0.58015
107.75854,0.57550
107.51747,0.56591
107.27640,0.55106
107.03533,0.53261
106.79426,0.51280
106.55319,0.49300
106.31212,0.47407
106.07104,0.45750
105.82997,0.44477
105.58890,0.43603
105.34783,0.43087
105.10676,0.42866
104.86569,0.42660
104.62462,0.41960
104.38355,0.40489
104.14248,0.38541
103.90141,0.36673
103.66034,0.35278
103.41927,0.34490
103.17820,0.34287
102.93713,0.34482
102.69606,0.34675
102.45499,0.34440
102.21392,0.33700
101.97285,0.32706
101.73177,0.31657
101.49070,0.30662
101.24963,0.29921
101.00856,0.29646
100.76749,0.29832
100.52642,0.30179
100.28535,0.30242
100.04428,0.29693
99.80321,0.28591
99.56214,0.27380
99.32107,0.26578
99.08000,0.26444
98.83893,0.26829
98.59786,0.27225
98.35679,0.27086
98.11572,0.26336
97.87465,0.25509
97.63358,0.25301
97.39250,0.25973
97.15143,0.27050
96.91036,0.27643
96.66929,0.27439
96.42822,0.27182
96.18715,0.27756
95.94608,0.29222
95.70501,0.30763
95.46394,0.31455
95.22287,0.31366
94.98180,0.31406
94.74073,0.32045
94.49966,0.32824
94.25859,0.33066
94.01752,0.32864
93.77645,0.32844
93.53538,0.33204
93.29431,0.33474
93.05323,0.33209
92.81216,0.32715
92.57109,0.32674
92.33002,0.33207
92.08895,0.33675
91.84788,0.33563
91.60681,0.33309
91.36574,0.33651
91.12467,0.34662
90.88360,0.35919
90.64253,0.37458
90.40146,0.39978
90.16039,0.43675
89.91932,0.47595
89.67825,0.51114
89.43718,0.55205
89.19611,0.60294
88.95504,0.64767
88.71396,0.67805
88.47289,0.70801
88.23182,0.73306
87.99075,0.72694
87.74968,0.69194
87.50861,0.65431
87.26754,0.62111
87.02647,0.58307
86.78540,0.53857
86.54433,0.49652
86.30326,0.46377
86.06219,0.43936
85.82112,0.41768
85.58005,0.39523
85.33898,0.37338
85.09791,0.35409
84.85684,0.33683
84.61577,0.32073
84.37469,0.30633
84.13362,0.29414
83.89255,0.28355
83.65148,0.27402
83.41041,0.26582
83.16934,0.25887
82.92827,0.25175
82.68720,0.24319
82.44613,0.23380
82.20506,0.22564
81.96399,0.22044
81.72292,0.21843
81.48185,0.21822
81.24078,0.21813
80.99971,0.21732
80.75864,0.21493
80.51757,0.20998
80.27650,0.20355
80.03542,0.19850
79.79435,0.19588
79.55328,0.19372
79.31221,0.19056
79.07114,0.18769
78.83007,0.18721
78.58900,0.18937
78.34793,0.19171
78.10686,0.19038
77.86579,0.18412
77.62472,0.17649
77.38365,0.17215
77.14258,0.17159
76.90151,0.17170
76.66044,0.17067
76.41937,0.16973
76.17830,0.17001
75.93723,0.17027
75.69615,0.16884
75.45508,0.16627
75.21401,0.16501
74.97294,0.16691
74.73187,0.17090
74.49080,0.17334
74.24973,0.17197
74.00866,0.16918
73.76759,0.16940
73.52652,0.17389
73.28545,0.17916
73.04438,0.17990
72.80331,0.17333
72.56224,0.16173
72.32117,0.15118
72.08010,0.14784
71.83903,0.15449
71.59796,0.16839
71.35688,0.18171
71.11581,0.18705
70.87474,0.18391
70.63367,0.17771
70.39260,0.17392
70.15153,0.17542
69.91046,0.18310
69.66939,0.19731
69.42832,0.21760
69.18725,0.24048
68.94618,0.25849
68.70511,0.26457
68.46404,0.25764
68.22297,0.24223
67.98190,0.22363
67.74083,0.20490
67.49976,0.18729
67.25869,0.17124
67.01761,0.15699
66.77654,0.14518
66.53547,0.13667
66.29440,0.13166
66.05333,0.13000
65.81226,0.13232
65.57119,0.13940
65.33012,0.15070
65.08905,0.16480
64.84798,0.18053
64.60691,0.19698
64.36584,0.21278
64.12477,0.22563
63.88370,0.23227
63.64263,0.23058
63.40156,0.22229
63.16049,0.21206
62.91942,0.20314
62.67834,0.19483
62.43727,0.18438
62.19620,0.17134
61.95513,0.15843
61.71406,0.14765
61.47299,0.13854
61.23192,0.13065
60.99085,0.12488
60.74978,0.12204
60.50871,0.12208
60.26764,0.12458
60.02657,0.12909
59.78550,0.13462
59.54443,0.13909
59.30336,0.14037
59.06229,0.13862
58.82122,0.13657
58.58015,0.13740
58.33907,0.14249
58.09800,0.15026
57.85693,0.15724
57.61586,0.16189
57.37479,0.16634
57.13372,0.17361
56.89265,0.18441
56.65158,0.19668
56.41051,0.20655
56.16944,0.20984
55.92837,0.20335
55.68730,0.18660
55.44623,0.16394
55.20516,0.14254
54.96409,0.12654
54.72302,0.11431
54.48195,0.10288
54.24088,0.09411
53.99980,0.09446
53.75873,0.10945
53.51766,0.13996
53.27659,0.18252
53.03552,0.22733
52.79445,0.25400
52.55338,0.24492
52.31231,0.20971
52.07124,0.16943
51.83017,0.13763
51.58910,0.12065
51.34803,0.12154
51.10696,0.14274
50.86589,0.18539
50.62482,0.23433
50.38375,0.24119
50.14268,0.18984
49.90161,0.12899
49.66053,0.09223
49.41946,0.09257
49.17839,0.13723
48.93732,0.21250
48.69625,0.23698
48.45518,0.16989
48.21411,0.11273
47.97304,0.10685
47.73197,0.15014
47.49090,0.21224
47.24983,0.21533
47.00876,0.16481
46.76769,0.13605
46.52662,0.14673
46.28555,0.16661
46.04448,0.15370
45.80341,0.12962
45.56234,0.14101
45.32126,0.17977
45.08019,0.18203
44.83912,0.14933
44.59805,0.14566
44.35698,0.17391
44.11591,0.18430
43.87484,0.16938
43.63377,0.16737
43.39270,0.17566
43.15163,0.17233
42.91056,0.17062
42.66949,0.18933
42.42842,0.21280
42.18735,0.21536
41.94628,0.20135
41.70521,0.19136
41.46414,0.19035
41.22307,0.19003
40.98199,0.18628
40.74092,0.18620
40.49985,0.19698
40.25878,0.21341
40.01771,0.22257
39.77664,0.22061
39.53557,0.21513
39.29450,0.21214
39.05343,0.20883
38.81236,0.20196
38.57129,0.19841
38.33022,0.20837
38.08915,0.23446
37.84808,0.26906
37.60701,0.29450
37.36594,0.29332
37.12487,0.27088
36.88380,0.25143
36.64272,0.25343
36.40165,0.27672
36.16058,0.30460
35.91951,0.31905
35.67844,0.31655
35.43737,0.30652
35.19630,0.29834
34.95523,0.29525
34.71416,0.29639
34.47309,0.29966
34.23202,0.30455
33.99095,0.31363
33.74988,0.32657
33.50881,0.33775
33.26774,0.34474
33.02667,0.35037
32.78560,0.35635
32.54453,0.35981
32.30345,0.35529
32.06238,0.33926
31.82131,0.31367
31.58024,0.28152
31.33917,0.24301
31.09810,0.20267
30.85703,0.17303
30.61596,0.16682
30.37489,0.18468
30.13382,0.21143
29.89275,0.22929
29.65168,0.23473
29.41061,0.23387
29.16954,0.22679
28.92847,0.20928
28.68740,0.18635
28.44633,0.17131
28.20526,0.17054
27.96418,0.17682
27.72311,0.17863
27.48204,0.17119
27.24097,0.15896
26.99990,0.14784
26.75883,0.13821
26.51776,0.12954
26.27669,0.12563
26.03562,0.12783
25.79455,0.12709
25.55348,0.11359
25.31241,0.09554
25.07134,0.09096
24.83027,0.10248
24.58920,0.11391
24.34813,0.10501
24.10706,0.07178
23.86599,0.03113
23.62491,0.00429
23.38384,0.00062
23.14277,0.01104
22.90170,0.02140
22.66063,0.02493
22.41956,0.01880
22.17849,0.00549
21.93742,-0.00313
21.69635,0.00160
21.45528,0.01307
21.21421,0.01752
20.97314,0.01296
20.73207,0.00994
20.49100,0.01311
20.24993,0.01794
20.00886,0.01803
19.76779,0.01171
19.52672,0.00123
19.28564,-0.01246
19.04457,-0.03192
18.80350,-0.05626
18.56243,-0.07301
18.32136,-0.07298
18.08029,-0.06539
17.83922,-0.05917
17.59815,-0.05557
17.35708,-0.05487
17.11601,-0.05698
16.87494,-0.06331
16.63387,-0.07751
16.39280,-0.10116
16.15173,-0.12987
15.91066,-0.15473
15.66959,-0.16467
15.42852,-0.15309
15.18745,-0.12720
14.94637,-0.10164
14.70530,-0.08414
14.46423,-0.07214
14.22316,-0.06091
13.98209,-0.05295
13.74102,-0.05378
13.49995,-0.06152
13.25888,-0.07006
13.01781,-0.08224
12.77674,-0.10832
12.53567,-0.14745
12.29460,-0.17660
12.05353,-0.17049
11.81246,-0.13437
11.57139,-0.09951
11.33032,-0.08777
11.08925,-0.10360
10.84818,-0.14298
10.60710,-0.18912
10.36603,-0.21714
10.12496,-0.22286
9.88389,-0.22478
9.64282,-0.23194
9.40175,-0.23829
9.16068,-0.24241
8.91961,-0.24214
8.67854,-0.23110
8.43747,-0.21378
8.19640,-0.20338
7.95533,-0.20747
7.71426,-0.22426
7.47319,-0.24453
7.23212,-0.25601
6.99105,-0.25541
6.74998,-0.24402
6.50891,-0.22353
6.26783,-0.21797
6.02676,-0.24314
5.78569,-0.27872
5.54462,-0.29260
5.30355,-0.27942
5.06248,-0.26307
4.82141,-0.26062
4.58034,-0.26409
4.33927,-0.27265
4.09820,-0.28608
3.85713,-0.28736
3.61606,-0.27763
3.37499,-0.27436
3.13392,-0.27542
2.89285,-0.26887
2.65178,-0.24800
2.41071,-0.21749
2.16964,-0.19633
1.92856,-0.19244
1.68749,-0.20523
1.44642,-0.23092
1.20535,-0.25371
0.96428,-0.26804
0.72321,-0.30575
0.48214,-0.38446
0.24107,-0.38152
-0.00000,-0.22637
