399.69498,1.61424
399.45391,1.60407
399.21284,1.59261
398.97177,1.56847
398.73070,1.53493
398.48963,1.51575
398.24856,1.52258
398.00749,1.54276
397.76642,1.55782
397.52535,1.56518
397.28428,1.57639
397.04321,1.60073
396.80214,1.63682
396.56107,1.67047
396.32000,1.68069
396.07892,1.66170
395.83785,1.62911
395.59678,1.59693
395.35571,1.56916
395.11464,1.54751
394.87357,1.53675
394.63250,1.54012
394.39143,1.55135
394.15036,1.56113
393.90929,1.56773
393.66822,1.57295
393.42715,1.57716
393.18608,1.57754
392.94501,1.57559
392.70394,1.57789
392.46287,1.58025
392.22180,1.57422
391.98073,1.56409
391.73965,1.56494
391.49858,1.58284
391.25751,1.60895
391.01644,1.63024
390.77537,1.63229
390.53430,1.60677
390.29323,1.56641
390.05216,1.53760
389.81109,1.53549
389.57002,1.54608
389.32895,1.54508
389.08788,1.52989
388.84681,1.50651
388.60574,1.47925
388.36467,1.46034
388.12360,1.46402
387.88253,1.48953
387.64146,1.51984
387.40038,1.53588
387.15931,1.53040
386.91824,1.51362
386.67717,1.50405
386.43610,1.51176
386.19503,1.52932
385.95396,1.54013
385.71289,1.53797
385.47182,1.52354
385.23075,1.49296
384.98968,1.45625
384.74861,1.43246
384.50754,1.42340
384.26647,1.41320
384.02540,1.39441
383.78433,1.37941
383.54326,1.38234
383.30219,1.40138
383.06111,1.41408
382.82004,1.39533
382.57897,1.35099
382.33790,1.31196
382.09683,1.29728
381.85576,1.30122
381.61469,1.31329
381.37362,1.33382
381.13255,1.36133
380.89148,1.38396
380.65041,1.38712
380.40934,1.36242
380.16827,1.32301
379.92720,1.29434
379.68613,1.29127
379.44506,1.31043
379.20399,1.33948
378.96292,1.37253
378.72184,1.40867
378.48077,1.44202
378.23970,1.45755
377.99863,1.44217
377.75756,1.40339
377.51649,1.36443
377.27542,1.34415
377.03435,1.34553
376.79328,1.36241
376.55221,1.39086
376.31114,1.42492
376.07007,1.44908
375.82900,1.45478
375.58793,1.45377
375.34686,1.45901
375.10579,1.47027
374.86472,1.48431
374.62365,1.50492
374.38257,1.52778
374.14150,1.53223
373.90043,1.50997
373.65936,1.48180
373.41829,1.46991
373.17722,1.47287
372.93615,1.47330
372.69508,1.46254
372.45401,1.45003
372.21294,1.44843
371.97187,1.45734
371.73080,1.46598
371.48973,1.46813
371.24866,1.46575
371.00759,1.45655
370.76652,1.43862
370.52545,1.41886
370.28437,1.40354
370.04330,1.39370
369.80223,1.38989
369.56116,1.39501
369.32009,1.41050
369.07902,1.42992
368.83795,1.44235
368.59688,1.44642
368.35581,1.45175
368.11474,1.46474
367.87367,1.47910
367.63260,1.47989
367.39153,1.46159
367.15046,1.43766
366.90939,1.42245
366.66832,1.42051
366.42725,1.42803
366.18618,1.43506
365.94510,1.43246
365.70403,1.41869
365.46296,1.40068
365.22189,1.38535
364.98082,1.37258
364.73975,1.36202
364.49868,1.35635
364.25761,1.35553
364.01654,1.35654
363.77547,1.35817
363.53440,1.36418
363.29333,1.37898
363.05226,1.40103
362.81119,1.41828
362.57012,1.41445
362.32905,1.38905
362.08798,1.36023
361.84691,1.34521
361.60583,1.34716
361.36476,1.35660
361.12369,1.36111
360.88262,1.35553
360.64155,1.34397
360.40048,1.33529
360.15941,1.33601
359.91834,1.34204
359.67727,1.34235
359.43620,1.33321
359.19513,1.32404
358.95406,1.32667
358.71299,1.33938
358.47192,1.34803
358.23085,1.34593
357.98978,1.34251
357.74871,1.34696
357.50764,1.35601
357.26656,1.36055
357.02549,1.35740
356.78442,1.35126
356.54335,1.34760
356.30228,1.34944
356.06121,1.35523
355.82014,1.35801
355.57907,1.35241
355.33800,1.34022
355.09693,1.32865
354.85586,1.32436
354.61479,1.32697
354.37372,1.33036
354.13265,1.33073
353.89158,1.32794
353.65051,1.32134
353.40944,1.31094
353.16837,1.30141
352.92729,1.29940
352.68622,1.30637
352.44515,1.31703
352.20408,1.32479
351.96301,1.32750
351.72194,1.32401
351.48087,1.31030
351.23980,1.29153
350.99873,1.28499
350.75766,1.29805
350.51659,1.31890
350.27552,1.33525
350.03445,1.34802
349.79338,1.35973
349.55231,1.36501
349.31124,1.36185
349.07017,1.35749
348.82910,1.35757
348.58802,1.35809
348.34695,1.35305
348.10588,1.34402
347.86481,1.33742
347.62374,1.33669
347.38267,1.34053
347.14160,1.34791
346.90053,1.35950
346.65946,1.37428
346.41839,1.38883
346.17732,1.39533
345.93625,1.38705
345.69518,1.37220
345.45411,1.36489
345.21304,1.36720
344.97197,1.37271
344.73090,1.37956
344.48983,1.39014
344.24875,1.40294
344.00768,1.40980
343.76661,1.40326
343.52554,1.38630
343.28447,1.36980
343.04340,1.36357
342.80233,1.37146
342.56126,1.39223
342.32019,1.42032
342.07912,1.44117
341.83805,1.44009
341.59698,1.42038
341.35591,1.39561
341.11484,1.37221
340.87377,1.35474
340.63270,1.35181
340.39163,1.36672
340.15056,1.39215
339.90948,1.41733
339.66841,1.43862
339.42734,1.46020
339.18627,1.48342
338.94520,1.50419
338.70413,1.51659
338.46306,1.51072
338.22199,1.48539
337.98092,1.45829
337.73985,1.44642
337.49878,1.45026
337.25771,1.45835
337.01664,1.46197
336.77557,1.46077
336.53450,1.45766
336.29343,1.45521
336.05236,1.45595
335.81129,1.45835
335.57021,1.45816
335.32914,1.45458
335.08807,1.44573
334.84700,1.42800
334.60593,1.40790
334.36486,1.39999
334.12379,1.41054
333.88272,1.43331
333.64165,1.45405
333.40058,1.46133
333.15951,1.45760
332.91844,1.45031
332.67737,1.43776
332.43630,1.41072
332.19523,1.37076
331.95416,1.33106
331.71309,1.30214
331.47202,1.29004
331.23094,1.30007
330.98987,1.33388
330.74880,1.37845
330.50773,1.40561
330.26666,1.39862
330.02559,1.37277
329.78452,1.35340
329.54345,1.34980
329.30238,1.35678
329.06131,1.36901
328.82024,1.38765
328.57917,1.40849
328.33810,1.41317
328.09703,1.39323
327.85596,1.36553
327.61489,1.34929
327.37382,1.34781
327.13275,1.35260
326.89167,1.35853
326.65060,1.36508
326.40953,1.36702
326.16846,1.35757
325.92739,1.33839
325.68632,1.31689
325.44525,1.30133
325.20418,1.30224
324.96311,1.32634
324.72204,1.36354
324.48097,1.39048
324.23990,1.39697
323.99883,1.39320
323.75776,1.38443
323.51669,1.36854
323.27562,1.35519
323.03455,1.35660
322.79348,1.36833
322.55240,1.37257
322.31133,1.36084
322.07026,1.34696
321.82919,1.34450
321.58812,1.35055
321.34705,1.35726
321.10598,1.36185
320.86491,1.35898
320.62384,1.34713
320.38277,1.33835
320.14170,1.34723
319.90063,1.37453
319.65956,1.40758
319.41849,1.43510
319.17742,1.44971
318.93635,1.44719
318.69528,1.42951
318.45421,1.40009
318.21313,1.36727
317.97206,1.34410
317.73099,1.33827
317.48992,1.34364
317.24885,1.35062
317.00778,1.36072
316.76671,1.37801
316.52564,1.39178
316.28457,1.38867
316.04350,1.37885
315.80243,1.37942
315.56136,1.38346
315.32029,1.37454
315.07922,1.35901
314.83815,1.35651
314.59708,1.36616
314.35601,1.36568
314.11494,1.34714
313.87386,1.33014
313.63279,1.33448
313.39172,1.36014
313.15065,1.39143
312.90958,1.41207
312.66851,1.41758
312.42744,1.41542
312.18637,1.41684
311.94530,1.42712
311.70423,1.44032
311.46316,1.44813
311.22209,1.44710
310.98102,1.43916
310.73995,1.42821
310.49888,1.41721
310.25781,1.40834
310.01674,1.40222
309.77567,1.39777
309.53459,1.39496
309.29352,1.39361
309.05245,1.39114
308.81138,1.38796
308.57031,1.38796
308.32924,1.39191
308.08817,1.39778
307.84710,1.40595
307.60603,1.41867
307.36496,1.43400
307.12389,1.44609
306.88282,1.45087
306.64175,1.44830
306.40068,1.44304
306.15961,1.44154
305.91854,1.44479
305.67747,1.44388
305.43640,1.43641
305.19532,1.43131
304.95425,1.43003
304.71318,1.42961
304.47211,1.43137
304.23104,1.43462
303.98997,1.43600
303.74890,1.43620
303.50783,1.43739
303.26676,1.43519
303.02569,1.42522
302.78462,1.41451
302.54355,1.41282
302.30248,1.41538
302.06141,1.40446
301.82034,1.37421
301.57927,1.34387
301.33820,1.33309
301.09713,1.34077
300.85605,1.35416
300.61498,1.36752
300.37391,1.38499
300.13284,1.40683
299.89177,1.41962
299.65070,1.41082
299.40963,1.38989
299.16856,1.37387
298.92749,1.36557
298.68642,1.35886
298.44535,1.35463
298.20428,1.35934
297.96321,1.36921
297.72214,1.36973
297.48107,1.35508
297.24000,1.33249
296.99893,1.30982
296.75786,1.29369
296.51678,1.29110
296.27571,1.30198
296.03464,1.31287
295.79357,1.30906
295.55250,1.29127
295.31143,1.27059
295.07036,1.25794
294.82929,1.25782
294.58822,1.26485
294.34715,1.26759
294.10608,1.26142
293.86501,1.25318
293.62394,1.24891
293.38287,1.24700
293.14180,1.24402
292.90073,1.24015
292.65966,1.23770
292.41859,1.23921
292.17751,1.24497
291.93644,1.24925
291.69537,1.24471
291.45430,1.23329
291.21323,1.22413
290.97216,1.22095
290.73109,1.22103
290.49002,1.22354
290.24895,1.22948
290.00788,1.23556
289.76681,1.23713
289.52574,1.23518
289.28467,1.23387
289.04360,1.23401
288.80253,1.23263
288.56146,1.22749
288.32039,1.21895
288.07932,1.21067
287.83824,1.20781
287.59717,1.21055
287.35610,1.21405
287.11503,1.21510
286.87396,1.21485
286.63289,1.21592
286.39182,1.21868
286.15075,1.22135
285.90968,1.22234
285.66861,1.22209
285.42754,1.22358
285.18647,1.22862
284.94540,1.23429
284.70433,1.23624
284.46326,1.23317
284.22219,1.22572
283.98112,1.21535
283.74005,1.20553
283.49897,1.19917
283.25790,1.19557
283.01683,1.19358
282.77576,1.19452
282.53469,1.19886
282.29362,1.20293
282.05255,1.20279
281.81148,1.19920
281.57041,1.19553
281.32934,1.19420
281.08827,1.19636
280.84720,1.20144
280.60613,1.20645
280.36506,1.20850
280.12399,1.20752
279.88292,1.20476
279.64185,1.20150
279.40078,1.19996
279.15970,1.20188
278.91863,1.20578
278.67756,1.20807
278.43649,1.20837
278.19542,1.21004
277.95435,1.21333
277.71328,1.21433
277.47221,1.21219
277.23114,1.21022
276.99007,1.20905
276.74900,1.20584
276.50793,1.20123
276.26686,1.19953
276.02579,1.20216
275.78472,1.20550
275.54365,1.20501
275.30258,1.19991
275.06151,1.19358
274.82043,1.19062
274.57936,1.19486
274.33829,1.20793
274.09722,1.22623
273.85615,1.24002
273.61508,1.24160
273.37401,1.23434
273.13294,1.22694
272.89187,1.22151
272.65080,1.21489
272.40973,1.20792
272.16866,1.20505
271.92759,1.20779
271.68652,1.21301
271.44545,1.21646
271.20438,1.21754
270.96331,1.21950
270.72224,1.22585
270.48116,1.23703
270.24009,1.24835
269.99902,1.25433
269.75795,1.25419
269.51688,1.25069
269.27581,1.24751
269.03474,1.24826
268.79367,1.25476
268.55260,1.26473
268.31153,1.27198
268.07046,1.27197
267.82939,1.26750
267.58832,1.26657
267.34725,1.27436
267.10618,1.28835
266.86511,1.30039
266.62404,1.30493
266.38297,1.30629
266.14189,1.31303
265.90082,1.32691
265.65975,1.34153
265.41868,1.35004
265.17761,1.35288
264.93654,1.35740
264.69547,1.37010
264.45440,1.39136
264.21333,1.41458
263.97226,1.42878
263.73119,1.42790
263.49012,1.41903
263.24905,1.41641
263.00798,1.42806
262.76691,1.45094
262.52584,1.47687
262.28477,1.49878
262.04370,1.51149
261.80262,1.51388
261.56155,1.51205
261.32048,1.51720
261.07941,1.53727
260.83834,1.56809
260.59727,1.59788
260.35620,1.62007
260.11513,1.63529
259.87406,1.64345
259.63299,1.64664
259.39192,1.65807
259.15085,1.68743
258.90978,1.72025
258.66871,1.73752
258.42764,1.74987
258.18657,1.78001
257.94550,1.82648
257.70443,1.86446
257.46335,1.88803
257.22228,1.91649
256.98121,1.94554
256.74014,1.94980
256.49907,1.91964
256.25800,1.86264
256.01693,1.81026
255.77586,1.78697
255.53479,1.80412
255.29372,1.85583
255.05265,1.90255
254.81158,1.89800
254.57051,1.85374
254.32944,1.80782
254.08837,1.77590
253.84730,1.75817
253.60623,1.74697
253.36516,1.73074
253.12408,1.70892
252.88301,1.69458
252.64194,1.69066
252.40087,1.67955
252.15980,1.65205
251.91873,1.62450
251.67766,1.61279
251.43659,1.61550
251.19552,1.62446
250.95445,1.63286
250.71338,1.63530
250.47231,1.63045
250.23124,1.62410
249.99017,1.62670
249.74910,1.64275
249.50803,1.66221
249.26696,1.66473
249.02589,1.64166
248.78481,1.61193
248.54374,1.59745
248.30267,1.59379
248.06160,1.58108
247.82053,1.55884
247.57946,1.54723
247.33839,1.55684
247.09732,1.57858
246.85625,1.59888
246.61518,1.61537
246.37411,1.63277
246.13304,1.65146
245.89197,1.66904
245.65090,1.68637
245.40983,1.70414
245.16876,1.71878
244.92769,1.72940
244.68661,1.74571
244.44554,1.77753
244.20447,1.81702
243.96340,1.84010
243.72233,1.83614
243.48126,1.83233
243.24019,1.86378
242.99912,1.93229
242.75805,2.00771
242.51698,2.06471
242.27591,2.07228
242.03484,1.96781
241.79377,1.83495
241.55270,1.75030
241.31163,1.69128
241.07056,1.62001
240.82949,1.53512
240.58842,1.46232
240.34734,1.41517
240.10627,1.38506
239.86520,1.35723
239.62413,1.32547
239.38306,1.29411
239.14199,1.26861
238.90092,1.24811
238.65985,1.22638
238.41878,1.19897
238.17771,1.16914
237.93664,1.14381
237.69557,1.12548
237.45450,1.11100
237.21343,1.09631
236.97236,1.08075
236.73129,1.06652
236.49022,1.05541
236.24915,1.04667
236.00807,1.03811
235.76700,1.02803
235.52593,1.01595
235.28486,1.00285
235.04379,0.99047
234.80272,0.98029
234.56165,0.97318
234.32058,0.96904
234.07951,0.96656
233.83844,0.96457
233.59737,0.96282
233.35630,0.96102
233.11523,0.95742
232.87416,0.95071
232.63309,0.94379
232.39202,0.94140
232.15095,0.94309
231.90988,0.94221
231.66880,0.93468
231.42773,0.92528
231.18666,0.92058
230.94559,0.92039
230.70452,0.91956
230.46345,0.91502
230.22238,0.90805
229.98131,0.90206
229.74024,0.90051
229.49917,0.90447
229.25810,0.91012
229.01703,0.91136
228.77596,0.90562
228.53489,0.89550
228.29382,0.88593
228.05275,0.88065
227.81168,0.87960
227.57061,0.87925
227.32953,0.87712
227.08846,0.87464
226.84739,0.87427
226.60632,0.87598
226.36525,0.87878
226.12418,0.88338
225.88311,0.88972
225.64204,0.89405
225.40097,0.89335
225.15990,0.89028
224.91883,0.88824
224.67776,0.88515
224.43669,0.87797
224.19562,0.87011
223.95455,0.86740
223.71348,0.86976
223.47241,0.87185
223.23134,0.87099
222.99026,0.87000
222.74919,0.87142
222.50812,0.87404
222.26705,0.87750
222.02598,0.88511
221.78491,0.89811
221.54384,0.91183
221.30277,0.92060
221.06170,0.92352
220.82063,0.92349
220.57956,0.92440
220.33849,0.92888
220.09742,0.93600
219.85635,0.94266
219.61528,0.94815
219.37421,0.95572
219.13314,0.96939
218.89207,0.98939
218.65099,1.00968
218.40992,1.02194
218.16885,1.02422
217.92778,1.02185
217.68671,1.02062
217.44564,1.02429
217.20457,1.03644
216.96350,1.05883
216.72243,1.08786
216.48136,1.11568
216.24029,1.13584
215.99922,1.14621
215.75815,1.14800
215.51708,1.14510
215.27601,1.14355
215.03494,1.14732
214.79387,1.15570
214.55280,1.16694
214.31172,1.18245
214.07065,1.20484
213.82958,1.23299
213.58851,1.25877
213.34744,1.27089
213.10637,1.26680
212.86530,1.25806
212.62423,1.25665
212.38316,1.26137
212.14209,1.26455
211.90102,1.26581
211.65995,1.27110
211.41888,1.28300
211.17781,1.29700
210.93674,1.30516
210.69567,1.30298
210.45460,1.29391
210.21353,1.28584
209.97245,1.28364
209.73138,1.28626
209.49031,1.28768
209.24924,1.28073
209.00817,1.26493
208.76710,1.24886
208.52603,1.24033
208.28496,1.23686
208.04389,1.23164
207.80282,1.22451
207.56175,1.21972
207.32068,1.21814
207.07961,1.21761
206.83854,1.21567
206.59747,1.20950
206.35640,1.19842
206.11533,1.18681
205.87426,1.17826
205.63318,1.16984
205.39211,1.15876
205.15104,1.14785
204.90997,1.13864
204.66890,1.12695
204.42783,1.10995
204.18676,1.09039
203.94569,1.07091
203.70462,1.05238
203.46355,1.03810
203.22248,1.03223
202.98141,1.03306
202.74034,1.03256
202.49927,1.02432
202.25820,1.00938
202.01713,0.99245
201.77606,0.97549
201.53499,0.95724
201.29391,0.93811
201.05284,0.92176
200.81177,0.90964
200.57070,0.89774
200.32963,0.88214
200.08856,0.86445
199.84749,0.84911
199.60642,0.83864
199.36535,0.83338
199.12428,0.83252
198.88321,0.83281
198.64214,0.82798
198.40107,0.81391
198.16000,0.79472
197.91893,0.77993
197.67786,0.77542
197.43679,0.77782
197.19572,0.77733
196.95464,0.76733
196.71357,0.75078
196.47250,0.73559
196.23143,0.72651
195.99036,0.72316
195.74929,0.72273
195.50822,0.72158
195.26715,0.71600
195.02608,0.70515
194.78501,0.69287
194.54394,0.68414
194.30287,0.68030
194.06180,0.67823
193.82073,0.67430
193.57966,0.66881
193.33859,0.66469
193.09752,0.66266
192.85645,0.65969
192.61537,0.65263
192.37430,0.64282
192.13323,0.63540
191.89216,0.63342
191.65109,0.63423
191.41002,0.63220
191.16895,0.62600
190.92788,0.62037
190.68681,0.61869
190.44574,0.61805
190.20467,0.61374
189.96360,0.60617
189.72253,0.60056
189.48146,0.60044
189.24039,0.60373
188.99932,0.60477
188.75825,0.60093
188.51718,0.59571
188.27610,0.59337
188.03503,0.59341
187.79396,0.59282
187.55289,0.59122
187.31182,0.59054
187.07075,0.59096
186.82968,0.59105
186.58861,0.59130
186.34754,0.59345
186.10647,0.59637
185.86540,0.59664
185.62433,0.59346
185.38326,0.58948
185.14219,0.58677
184.90112,0.58527
184.66005,0.58463
184.41898,0.58506
184.17791,0.58640
183.93683,0.58787
183.69576,0.58893
183.45469,0.58972
183.21362,0.59100
182.97255,0.59322
182.73148,0.59532
182.49041,0.59563
182.24934,0.59472
182.00827,0.59500
181.76720,0.59694
181.52613,0.59843
181.28506,0.59857
181.04399,0.59895
180.80292,0.59972
180.56185,0.59916
180.32078,0.59784
180.07971,0.59895
179.83864,0.60391
179.59756,0.61085
179.35649,0.61756
179.11542,0.62367
178.87435,0.62928
178.63328,0.63366
178.39221,0.63711
178.15114,0.64253
177.91007,0.65194
177.66900,0.66378
177.42793,0.67640
177.18686,0.69090
176.94579,0.70775
176.70472,0.72487
176.46365,0.74101
176.22258,0.75654
175.98151,0.77055
175.74044,0.78263
175.49937,0.79561
175.25829,0.81213
175.01722,0.83119
174.77615,0.84972
174.53508,0.86536
174.29401,0.87836
174.05294,0.89082
173.81187,0.90351
173.57080,0.91535
173.32973,0.92654
173.08866,0.93886
172.84759,0.95227
172.60652,0.96417
172.36545,0.97253
172.12438,0.97801
171.88331,0.98242
171.64224,0.98624
171.40117,0.98839
171.16010,0.98780
170.91902,0.98455
170.67795,0.97898
170.43688,0.97094
170.19581,0.96002
169.95474,0.94801
169.71367,0.93866
169.47260,0.93370
169.23153,0.93179
168.99046,0.93162
168.74939,0.93341
168.50832,0.93630
168.26725,0.93713
168.02618,0.93412
167.78511,0.92959
167.54404,0.92660
167.30297,0.92504
167.06190,0.92335
166.82083,0.92152
166.57975,0.92069
166.33868,0.92095
166.09761,0.92069
165.85654,0.91893
165.61547,0.91758
165.37440,0.92020
165.13333,0.92869
164.89226,0.94162
164.65119,0.95586
164.41012,0.96853
164.16905,0.97731
163.92798,0.98156
163.68691,0.98344
163.44584,0.98578
163.20477,0.99027
162.96370,0.99822
162.72263,1.01008
162.48156,1.02343
162.24048,1.03363
161.99941,1.03845
161.75834,1.03895
161.51727,1.03630
161.27620,1.03200
161.03513,1.02761
160.79406,1.02297
160.55299,1.01881
160.31192,1.01930
160.07085,1.02655
159.82978,1.03535
159.58871,1.03847
159.34764,1.03499
159.10657,1.02817
158.86550,1.01892
158.62443,1.00689
158.38336,0.99439
158.14229,0.98494
157.90121,0.97942
157.66014,0.97641
157.41907,0.97467
157.17800,0.97273
156.93693,0.96734
156.69586,0.95608
156.45479,0.94214
156.21372,0.93240
155.97265,0.93026
155.73158,0.93181
155.49051,0.92967
155.24944,0.92048
155.00837,0.90761
154.76730,0.89586
154.52623,0.88561
154.28516,0.87451
154.04409,0.86291
153.80302,0.85323
153.56194,0.84513
153.32087,0.83511
153.07980,0.82074
152.83873,0.80240
152.59766,0.78176
152.35659,0.76136
152.11552,0.74453
151.87445,0.73279
151.63338,0.72391
151.39231,0.71421
151.15124,0.70240
150.91017,0.68912
150.66910,0.67411
150.42803,0.65678
150.18696,0.63912
149.94589,0.62470
149.70482,0.61494
149.46375,0.60846
149.22267,0.60302
148.98160,0.59660
148.74053,0.58754
148.49946,0.57612
148.25839,0.56554
148.01732,0.55958
147.77625,0.55896
147.53518,0.56061
147.29411,0.56048
147.05304,0.55730
146.81197,0.55363
146.57090,0.55355
146.32983,0.55903
146.08876,0.56758
145.84769,0.57401
145.60662,0.57593
145.36555,0.57652
145.12448,0.58005
144.88340,0.58648
144.64233,0.59219
144.40126,0.59490
144.16019,0.59598
143.91912,0.59804
143.67805,0.60130
143.43698,0.60294
143.19591,0.60035
142.95484,0.59456
142.71377,0.58821
142.47270,0.58118
142.23163,0.57113
141.99056,0.55829
141.74949,0.54658
141.50842,0.53920
141.26735,0.53523
141.02628,0.53143
140.78521,0.52604
140.54413,0.52007
140.30306,0.51549
140.06199,0.51308
139.82092,0.51236
139.57985,0.51285
139.33878,0.51492
139.09771,0.51908
138.85664,0.52487
138.61557,0.53115
138.37450,0.53775
138.13343,0.54593
137.89236,0.55659
137.65129,0.56902
137.41022,0.58196
137.16915,0.59480
136.92808,0.60704
136.68701,0.61884
136.44594,0.63290
136.20486,0.65233
135.96379,0.67574
135.72272,0.69888
135.48165,0.72220
135.24058,0.75034
134.99951,0.78343
134.75844,0.81517
134.51737,0.84115
134.27630,0.86399
134.03523,0.88842
133.79416,0.91712
133.55309,0.95149
133.31202,0.98944
133.07095,1.02274
132.82988,1.04442
132.58881,1.05958
132.34774,1.07948
132.10667,1.10497
131.86559,1.12501
131.62452,1.13088
131.38345,1.12604
131.14238,1.12141
130.90131,1.12365
130.66024,1.12835
130.41917,1.12456
130.17810,1.10647
129.93703,1.07694
129.69596,1.04188
129.45489,1.00687
129.21382,0.97457
128.97275,0.94266
128.73168,0.90811
128.49061,0.87251
128.24954,0.83950
128.00847,0.80997
127.76740,0.78215
127.52632,0.75455
127.28525,0.72727
127.04418,0.70192
126.80311,0.68028
126.56204,0.66179
126.32097,0.64321
126.07990,0.62248
125.83883,0.60183
125.59776,0.58464
125.35669,0.57061
125.11562,0.55695
124.87455,0.54286
124.63348,0.52966
124.39241,0.51800
124.15134,0.50747
123.91027,0.49798
123.66920,0.48986
123.42812,0.48327
123.18705,0.47809
122.94598,0.47366
122.70491,0.46892
122.46384,0.46365
122.22277,0.45926
121.98170,0.45732
121.74063,0.45770
121.49956,0.45898
121.25849,0.46048
121.01742,0.46296
120.77635,0.46722
120.53528,0.47287
120.29421,0.47942
120.05314,0.48735
119.81207,0.49733
119.57100,0.50951
119.32993,0.52446
119.08885,0.54343
118.84778,0.56660
118.60671,0.59249
118.36564,0.61973
118.12457,0.64765
117.88350,0.67426
117.64243,0.69695
117.40136,0.71669
117.16029,0.73765
116.91922,0.76089
116.67815,0.78221
116.43708,0.79683
116.19601,0.80322
115.95494,0.80263
115.71387,0.79755
115.47280,0.78923
115.23173,0.77604
114.99066,0.75689
114.74958,0.73459
114.50851,0.71322
114.26744,0.69443
114.02637,0.67861
113.78530,0.66746
113.54423,0.66287
113.30316,0.66413
113.06209,0.66878
112.82102,0.67651
112.57995,0.68903
112.33888,0.70506
112.09781,0.71921
111.85674,0.72722
111.61567,0.72918
111.37460,0.72681
111.13353,0.72123
110.89246,0.71380
110.65139,0.70604
110.41031,0.69846
110.16924,0.69133
109.92817,0.68667
109.68710,0.68743
109.44603,0.69343
109.20496,0.69919
108.96389,0.69542
108.72282,0.67411
108.48175,0.63611
108.24068,0.59234
107.99961,0.55514
107.75854,0.53093
107.51747,0.51934
107.27640,0.51524
107.03533,0.51161
106.79426,0.50327
106.55319,0.48959
106.31212,0.47291
106.07104,0.45509
105.82997,0.43683
105.58890,0.41968
105.34783,0.40640
105.10676,0.39827
104.86569,0.39380
104.62462,0.39072
104.38355,0.38788
104.14248,0.38434
103.90141,0.37845
103.66034,0.36924
103.41927,0.35811
103.17820,0.34779
102.93713,0.34009
102.69606,0.33505
102.45499,0.33168
102.21392,0.32869
101.97285,0.32493
101.73177,0.31937
101.49070,0.31098
101.24963,0.29992
101.00856,0.28915
100.76749,0.28288
100.52642,0.28259
100.28535,0.28502
100.04428,0.28482
99.80321,0.27978
99.56214,0.27213
99.32107,0.26548
99.08000,0.26260
98.83893,0.26523
98.59786,0.27211
98.35679,0.27630
98.11572,0.27066
97.87465,0.25834
97.63358,0.24996
97.39250,0.25159
97.15143,0.26118
96.91036,0.27131
96.66929,0.27486
96.42822,0.27332
96.18715,0.27524
95.94608,0.28481
95.70501,0.29662
95.46394,0.30221
95.22287,0.30233
94.98180,0.30586
94.74073,0.31661
94.49966,0.32802
94.25859,0.33068
94.01752,0.32477
93.77645,0.31956
93.53538,0.32081
93.29431,0.32407
93.05323,0.32204
92.81216,0.31661
92.57109,0.31526
92.33002,0.31808
92.08895,0.31857
91.84788,0.31631
91.60681,0.31837
91.36574,0.32769
91.12467,0.33954
90.88360,0.35079
90.64253,0.36608
90.40146,0.38991
90.16039,0.41847
89.91932,0.44762
89.67825,0.48425
89.43718,0.53420
89.19611,0.58614
88.95504,0.62662
88.71396,0.66172
88.47289,0.69339
88.23182,0.70393
87.99075,0.68887
87.74968,0.66333
87.50861,0.63245
87.26754,0.59490
87.02647,0.55774
86.78540,0.52769
86.54433,0.50159
86.30326,0.47378
86.06219,0.44398
85.82112,0.41559
85.58005,0.39119
85.33898,0.36996
85.09791,0.34913
84.85684,0.32829
84.61577,0.31009
84.37469,0.29633
84.13362,0.28610
83.89255,0.27767
83.65148,0.26971
83.41041,0.26089
83.16934,0.25065
82.92827,0.24036
82.68720,0.23185
82.44613,0.22503
82.20506,0.21866
81.96399,0.21282
81.72292,0.20828
81.48185,0.20467
81.24078,0.20154
80.99971,0.19935
80.75864,0.19771
80.51757,0.19506
80.27650,0.19091
80.03542,0.18629
79.79435,0.18186
79.55328,0.17769
79.31221,0.17434
79.07114,0.17273
78.83007,0.17302
78.58900,0.17375
78.34793,0.17220
78.10686,0.16690
77.86579,0.15989
77.62472,0.15505
77.38365,0.15423
77.14258,0.15600
76.90151,0.15775
76.66044,0.15825
76.41937,0.15797
76.17830,0.15773
75.93723,0.15753
75.69615,0.15668
75.45508,0.15477
75.21401,0.15265
74.97294,0.15179
74.73187,0.15287
74.49080,0.15540
74.24973,0.15818
74.00866,0.15990
73.76759,0.16018
73.52652,0.16005
73.28545,0.16029
73.04438,0.15970
72.80331,0.15629
72.56224,0.15003
72.32117,0.14377
72.08010,0.14154
71.83903,0.14605
71.59796,0.15646
71.35688,0.16752
71.11581,0.17287
70.87474,0.17116
70.63367,0.16667
70.39260,0.16461
70.15153,0.16804
69.91046,0.17810
69.66939,0.19481
69.42832,0.21615
69.18725,0.23707
68.94618,0.25162
68.70511,0.25695
68.46404,0.25330
68.22297,0.24057
67.98190,0.21883
67.74083,0.19207
67.49976,0.16703
67.25869,0.14802
67.01761,0.13485
66.77654,0.12549
66.53547,0.11880
66.29440,0.11463
66.05333,0.11292
65.81226,0.11384
65.57119,0.11827
65.33012,0.12699
65.08905,0.13942
64.84798,0.15371
64.60691,0.16819
64.36584,0.18164
64.12477,0.19176
63.88370,0.19580
63.64263,0.19373
63.40156,0.18806
63.16049,0.18035
62.91942,0.17098
62.67834,0.16131
62.43727,0.15291
62.19620,0.14573
61.95513,0.13907
61.71406,0.13288
61.47299,0.12719
61.23192,0.12180
60.99085,0.11718
60.74978,0.11507
60.50871,0.11750
60.26764,0.12530
60.02657,0.13754
59.78550,0.15261
59.54443,0.16871
59.30336,0.18315
59.06229,0.19250
58.82122,0.19460
58.58015,0.18956
58.33907,0.17861
58.09800,0.16327
57.85693,0.14568
57.61586,0.12761
57.37479,0.10929
57.13372,0.09142
56.89265,0.07748
56.65158,0.07063
56.41051,0.07065
56.16944,0.07672
55.92837,0.09049
55.68730,0.11340
55.44623,0.14255
55.20516,0.16983
54.96409,0.18447
54.72302,0.17947
54.48195,0.15764
54.24088,0.12800
53.99980,0.10129
53.75873,0.08721
53.51766,0.08976
53.27659,0.10659
53.03552,0.13437
52.79445,0.17049
52.55338,0.20379
52.31231,0.21035
52.07124,0.18044
51.83017,0.13523
51.58910,0.09831
51.34803,0.08187
51.10696,0.08927
50.86589,0.11894
50.62482,0.16359
50.38375,0.19518
50.14268,0.17138
49.90161,0.10876
49.66053,0.05724
49.41946,0.04314
49.17839,0.07444
48.93732,0.14326
48.69625,0.18657
48.45518,0.13145
48.21411,0.06378
47.97304,0.04542
47.73197,0.08294
47.49090,0.15105
47.24983,0.17270
47.00876,0.12622
46.76769,0.09558
46.52662,0.10910
46.28555,0.12323
46.04448,0.09936
45.80341,0.07418
45.56234,0.08339
45.32126,0.11018
45.08019,0.11047
44.83912,0.09720
44.59805,0.10305
44.35698,0.10539
44.11591,0.08191
43.87484,0.06927
43.63377,0.08580
43.39270,0.10298
43.15163,0.10374
42.91056,0.10991
42.66949,0.12779
42.42842,0.13512
42.18735,0.12377
41.94628,0.10921
41.70521,0.10284
41.46414,0.10393
41.22307,0.10484
40.98199,0.10086
40.74092,0.09711
40.49985,0.10051
40.25878,0.11094
40.01771,0.12447
39.77664,0.13644
39.53557,0.14146
39.29450,0.13957
39.05343,0.13801
38.81236,0.14178
38.57129,0.14828
38.33022,0.15550
38.08915,0.16957
37.84808,0.19346
37.60701,0.21459
37.36594,0.21634
37.12487,0.20013
36.88380,0.17884
36.64272,0.16075
36.40165,0.15270
36.16058,0.15853
35.91951,0.17008
35.67844,0.17560
35.43737,0.17446
35.19630,0.17279
34.95523,0.17220
34.71416,0.17245
34.47309,0.17666
34.23202,0.18405
33.99095,0.18682
33.74988,0.17761
33.50881,0.15625
33.26774,0.12885
33.02667,0.10525
32.78560,0.09893
32.54453,0.11630
32.30345,0.14105
32.06238,0.14746
31.82131,0.12593
31.58024,0.08889
31.33917,0.05908
31.09810,0.04843
30.85703,0.04637
30.61596,0.03720
30.37489,0.02369
30.13382,0.01665
29.89275,0.01474
29.65168,0.01290
29.41061,0.01756
29.16954,0.03714
28.92847,0.06631
28.68740,0.08631
28.44633,0.08160
28.20526,0.05777
27.96418,0.03673
27.72311,0.03004
27.48204,0.02441
27.24097,0.00591
26.99990,-0.01782
26.75883,-0.03397
26.51776,-0.04868
26.27669,-0.07607
26.03562,-0.11813
25.79455,-0.16850
25.55348,-0.21434
25.31241,-0.23650
25.07134,-0.23830
24.83027,-0.25683
24.58920,-0.31424
24.34813,-0.37503
24.10706,-0.38313
23.86599,-0.34484
23.62491,-0.30553
23.38384,-0.29195
23.14277,-0.30513
22.90170,-0.32468
22.66063,-0.32585
22.41956,-0.30584
22.17849,-0.28416
21.93742,-0.27573
21.69635,-0.27742
21.45528,-0.26474
21.21421,-0.22963
20.97314,-0.22455
20.73207,-0.25552
20.49100,-0.27933
20.24993,-0.27156
20.00886,-0.25634
19.76779,-0.25902
19.52672,-0.27549
19.28564,-0.29011
19.04457,-0.30102
18.80350,-0.32664
18.56243,-0.36851
18.32136,-0.39172
18.08029,-0.37678
17.83922,-0.36117
17.59815,-0.37875
17.35708,-0.42160
17.11601,-0.45872
16.87494,-0.47958
16.63387,-0.50136
16.39280,-0.55294
16.15173,-0.59093
15.91066,-0.58489
15.66959,-0.56436
15.42852,-0.54861
15.18745,-0.54490
14.94637,-0.52523
14.70530,-0.50283
14.46423,-0.46316
14.22316,-0.41983
13.98209,-0.39869
13.74102,-0.39370
13.49995,-0.39942
13.25888,-0.42406
13.01781,-0.45034
12.77674,-0.45329
12.53567,-0.41213
12.29460,-0.36167
12.05353,-0.34448
11.81246,-0.35227
11.57139,-0.36164
11.33032,-0.37448
11.08925,-0.40153
10.84818,-0.44145
10.60710,-0.46018
10.36603,-0.42981
10.12496,-0.40201
9.88389,-0.42271
9.64282,-0.47277
9.40175,-0.49364
9.16068,-0.44882
8.91961,-0.38370
8.67854,-0.36688
8.43747,-0.41602
8.19640,-0.49034
7.95533,-0.51660
7.71426,-0.47879
7.47319,-0.44208
7.23212,-0.44572
6.99105,-0.47076
6.74998,-0.47489
6.50891,-0.44614
6.26783,-0.41853
6.02676,-0.42332
5.78569,-0.45053
5.54462,-0.46817
5.30355,-0.45252
5.06248,-0.42227
4.82141,-0.40306
4.58034,-0.39065
4.33927,-0.37943
4.09820,-0.36882
3.85713,-0.36728
3.61606,-0.37301
3.37499,-0.37697
3.13392,-0.39674
2.89285,-0.44403
2.65178,-0.50319
2.41071,-0.52520
2.16964,-0.50010
1.92856,-0.46691
1.68749,-0.43306
1.44642,-0.43508
1.20535,-0.45424
0.96428,-0.41348
0.72321,-0.36914
0.48214,-0.36271
0.24107,-0.33755
-0.00000,-0.02006
