399.69498,1.56897
399.45391,1.57082
399.21284,1.56969
398.97177,1.56272
398.73070,1.55749
398.48963,1.56205
398.24856,1.57114
398.00749,1.57320
397.76642,1.56639
397.52535,1.55852
397.28428,1.55569
397.04321,1.55492
396.80214,1.54786
396.56107,1.53375
396.32000,1.52431
396.07892,1.52839
395.83785,1.53623
395.59678,1.53094
395.35571,1.51375
395.11464,1.50097
394.87357,1.50143
394.63250,1.51150
394.39143,1.52481
394.15036,1.53684
393.90929,1.54330
393.66822,1.54198
393.42715,1.53486
393.18608,1.52588
392.94501,1.52032
392.70394,1.52450
392.46287,1.53821
392.22180,1.54775
391.98073,1.53850
391.73965,1.51657
391.49858,1.50268
391.25751,1.50788
391.01644,1.52407
390.77537,1.53283
390.53430,1.52504
390.29323,1.51064
390.05216,1.50223
389.81109,1.49908
389.57002,1.49317
389.32895,1.48273
389.08788,1.47516
388.84681,1.47601
388.60574,1.48266
388.36467,1.48944
388.12360,1.49097
387.88253,1.48704
387.64146,1.48239
387.40038,1.47642
387.15931,1.46201
386.91824,1.44042
386.67717,1.42694
386.43610,1.43255
386.19503,1.44555
385.95396,1.44007
385.71289,1.41206
385.47182,1.38738
385.23075,1.38216
384.98968,1.38466
384.74861,1.38101
384.50754,1.37715
384.26647,1.38317
384.02540,1.39476
383.78433,1.39591
383.54326,1.37710
383.30219,1.34686
383.06111,1.32029
382.82004,1.30551
382.57897,1.30072
382.33790,1.29880
382.09683,1.29655
381.85576,1.29725
381.61469,1.30171
381.37362,1.30163
381.13255,1.29313
380.89148,1.28726
380.65041,1.29153
380.40934,1.30033
380.16827,1.30336
379.92720,1.29635
379.68613,1.28944
379.44506,1.29400
379.20399,1.30473
378.96292,1.30942
378.72184,1.30761
378.48077,1.30887
378.23970,1.31961
377.99863,1.33597
377.75756,1.34906
377.51649,1.35563
377.27542,1.35978
377.03435,1.36465
376.79328,1.36957
376.55221,1.37588
376.31114,1.38561
376.07007,1.39333
375.82900,1.39147
375.58793,1.38595
375.34686,1.39021
375.10579,1.40445
374.86472,1.41406
374.62365,1.41156
374.38257,1.40479
374.14150,1.39743
373.90043,1.38361
373.65936,1.36658
373.41829,1.36200
373.17722,1.37620
372.93615,1.39394
372.69508,1.39742
372.45401,1.38991
372.21294,1.38476
371.97187,1.38494
371.73080,1.38544
371.48973,1.38422
371.24866,1.38450
371.00759,1.38734
370.76652,1.38841
370.52545,1.38516
370.28437,1.37970
370.04330,1.37358
369.80223,1.36663
369.56116,1.35978
369.32009,1.35535
369.07902,1.35528
368.83795,1.35637
368.59688,1.35361
368.35581,1.35045
368.11474,1.35453
367.87367,1.36436
367.63260,1.36886
367.39153,1.36176
367.15046,1.34948
366.90939,1.33998
366.66832,1.33392
366.42725,1.32886
366.18618,1.32368
365.94510,1.31747
365.70403,1.30940
365.46296,1.30157
365.22189,1.29842
364.98082,1.30260
364.73975,1.31112
364.49868,1.31574
364.25761,1.31043
364.01654,1.29829
363.77547,1.28745
363.53440,1.28252
363.29333,1.28361
363.05226,1.28918
362.81119,1.29529
362.57012,1.29677
362.32905,1.29371
362.08798,1.29190
361.84691,1.29439
361.60583,1.29816
361.36476,1.29949
361.12369,1.29660
360.88262,1.28919
360.64155,1.28122
360.40048,1.27926
360.15941,1.28413
359.91834,1.28876
359.67727,1.28655
359.43620,1.27800
359.19513,1.26778
358.95406,1.25916
358.71299,1.25354
358.47192,1.25230
358.23085,1.25508
357.98978,1.25655
357.74871,1.25030
357.50764,1.23814
357.26656,1.23055
357.02549,1.23426
356.78442,1.24373
356.54335,1.24815
356.30228,1.24524
356.06121,1.24234
355.82014,1.24427
355.57907,1.24682
355.33800,1.24468
355.09693,1.24011
354.85586,1.23842
354.61479,1.23970
354.37372,1.24120
354.13265,1.24429
353.89158,1.25270
353.65051,1.26508
353.40944,1.27496
353.16837,1.27848
352.92729,1.27813
352.68622,1.27776
352.44515,1.27680
352.20408,1.27287
351.96301,1.26766
351.72194,1.26474
351.48087,1.26379
351.23980,1.26045
350.99873,1.25224
350.75766,1.24250
350.51659,1.23670
350.27552,1.23686
350.03445,1.24108
349.79338,1.24694
349.55231,1.25300
349.31124,1.25760
349.07017,1.25810
348.82910,1.25306
348.58802,1.24695
348.34695,1.24863
348.10588,1.26042
347.86481,1.27196
347.62374,1.27218
347.38267,1.26414
347.14160,1.25877
346.90053,1.26003
346.65946,1.26489
346.41839,1.27140
346.17732,1.27880
345.93625,1.28520
345.69518,1.29092
345.45411,1.29916
345.21304,1.30881
344.97197,1.31303
344.73090,1.31016
344.48983,1.30748
344.24875,1.31030
344.00768,1.31605
343.76661,1.32067
343.52554,1.32373
343.28447,1.32642
343.04340,1.32874
342.80233,1.32924
342.56126,1.32699
342.32019,1.32271
342.07912,1.31829
341.83805,1.31642
341.59698,1.32033
341.35591,1.33180
341.11484,1.34721
340.87377,1.35823
340.63270,1.36042
340.39163,1.35831
340.15056,1.35881
339.90948,1.36610
339.66841,1.37935
339.42734,1.39179
339.18627,1.39644
338.94520,1.39539
338.70413,1.39831
338.46306,1.40775
338.22199,1.41383
337.98092,1.40839
337.73985,1.39631
337.49878,1.38716
337.25771,1.38426
337.01664,1.38384
336.77557,1.38392
336.53450,1.38916
336.29343,1.40145
336.05236,1.41169
335.81129,1.40796
335.57021,1.39088
335.32914,1.37438
335.08807,1.36940
334.84700,1.37214
334.60593,1.36970
334.36486,1.35821
334.12379,1.34983
333.88272,1.35599
333.64165,1.37197
333.40058,1.38223
333.15951,1.37871
332.91844,1.36931
332.67737,1.36348
332.43630,1.36006
332.19523,1.35154
331.95416,1.33771
331.71309,1.32833
331.47202,1.32767
331.23094,1.32773
330.98987,1.32071
330.74880,1.31100
330.50773,1.30734
330.26666,1.30945
330.02559,1.30989
329.78452,1.30708
329.54345,1.30541
329.30238,1.30470
329.06131,1.30171
328.82024,1.29796
328.57917,1.29689
328.33810,1.29758
328.09703,1.29748
327.85596,1.29802
327.61489,1.30173
327.37382,1.30677
327.13275,1.30785
326.89167,1.29923
326.65060,1.28163
326.40953,1.26667
326.16846,1.26534
325.92739,1.27315
325.68632,1.27555
325.44525,1.26919
325.20418,1.26534
324.96311,1.27052
324.72204,1.27917
324.48097,1.28594
324.23990,1.29199
323.99883,1.29858
323.75776,1.30467
323.51669,1.30940
323.27562,1.31315
323.03455,1.31424
322.79348,1.31102
322.55240,1.30872
322.31133,1.31103
322.07026,1.30875
321.82919,1.29519
321.58812,1.28089
321.34705,1.28074
321.10598,1.29873
320.86491,1.32447
320.62384,1.34270
320.38277,1.34747
320.14170,1.34258
319.90063,1.33224
319.65956,1.32082
319.41849,1.31704
319.17742,1.32680
318.93635,1.33751
318.69528,1.32680
318.45421,1.29675
318.21313,1.27500
317.97206,1.27907
317.73099,1.30033
317.48992,1.32069
317.24885,1.33298
317.00778,1.33652
316.76671,1.32964
316.52564,1.31426
316.28457,1.29609
316.04350,1.28176
315.80243,1.27791
315.56136,1.28850
315.32029,1.31092
315.07922,1.33522
314.83815,1.35025
314.59708,1.35387
314.35601,1.35384
314.11494,1.35459
313.87386,1.35135
313.63279,1.34206
313.39172,1.33394
313.15065,1.33322
312.90958,1.33808
312.66851,1.34453
312.42744,1.34884
312.18637,1.34788
311.94530,1.34329
311.70423,1.34144
311.46316,1.34888
311.22209,1.36485
310.98102,1.37829
310.73995,1.37766
310.49888,1.36551
310.25781,1.35511
310.01674,1.35605
309.77567,1.36818
309.53459,1.38406
309.29352,1.39424
309.05245,1.39162
308.81138,1.37808
308.57031,1.36553
308.32924,1.36434
308.08817,1.37322
307.84710,1.38198
307.60603,1.38443
307.36496,1.38275
307.12389,1.37902
306.88282,1.37343
306.64175,1.36903
306.40068,1.36846
306.15961,1.36897
305.91854,1.36682
305.67747,1.36228
305.43640,1.35932
305.19532,1.36107
304.95425,1.36580
304.71318,1.36970
304.47211,1.37272
304.23104,1.37637
303.98997,1.37720
303.74890,1.37095
303.50783,1.36057
303.26676,1.35338
303.02569,1.35252
302.78462,1.35431
302.54355,1.35137
302.30248,1.33815
302.06141,1.31949
301.82034,1.30846
301.57927,1.31147
301.33820,1.32186
301.09713,1.32918
300.85605,1.32853
300.61498,1.31966
300.37391,1.30628
300.13284,1.29667
299.89177,1.29565
299.65070,1.29723
299.40963,1.29234
299.16856,1.28104
298.92749,1.27017
298.68642,1.26372
298.44535,1.26146
298.20428,1.26121
297.96321,1.25856
297.72214,1.25005
297.48107,1.23798
297.24000,1.22795
296.99893,1.22317
296.75786,1.22307
296.51678,1.22472
296.27571,1.22470
296.03464,1.22251
295.79357,1.22101
295.55250,1.22182
295.31143,1.22196
295.07036,1.21767
294.82929,1.20995
294.58822,1.20296
294.34715,1.19911
294.10608,1.19876
293.86501,1.20072
293.62394,1.20182
293.38287,1.19993
293.14180,1.19735
292.90073,1.19745
292.65966,1.19886
292.41859,1.19710
292.17751,1.19091
291.93644,1.18310
291.69537,1.17595
291.45430,1.16914
291.21323,1.16246
290.97216,1.15765
290.73109,1.15598
290.49002,1.15634
290.24895,1.15680
290.00788,1.15649
289.76681,1.15538
289.52574,1.15417
289.28467,1.15391
289.04360,1.15437
288.80253,1.15363
288.56146,1.15089
288.32039,1.14831
288.07932,1.14865
287.83824,1.15194
287.59717,1.15565
287.35610,1.15777
287.11503,1.15772
286.87396,1.15433
286.63289,1.14648
286.39182,1.13711
286.15075,1.13234
285.90968,1.13441
285.66861,1.13828
285.42754,1.13770
285.18647,1.13292
284.94540,1.12943
284.70433,1.13069
284.46326,1.13447
284.22219,1.13596
283.98112,1.13306
283.74005,1.12746
283.49897,1.12154
283.25790,1.11693
283.01683,1.11520
282.77576,1.11706
282.53469,1.12115
282.29362,1.12494
282.05255,1.12675
281.81148,1.12697
281.57041,1.12826
281.32934,1.13186
281.08827,1.13366
280.84720,1.12921
280.60613,1.12147
280.36506,1.11665
280.12399,1.11512
279.88292,1.11384
279.64185,1.11400
279.40078,1.11913
279.15970,1.12845
278.91863,1.13745
278.67756,1.14316
278.43649,1.14548
278.19542,1.14499
277.95435,1.14277
277.71328,1.14061
277.47221,1.13911
277.23114,1.13656
276.99007,1.13147
276.74900,1.12563
276.50793,1.12201
276.26686,1.12084
276.02579,1.12055
275.78472,1.12079
275.54365,1.12216
275.30258,1.12404
275.06151,1.12524
274.82043,1.12586
274.57936,1.12642
274.33829,1.12656
274.09722,1.12610
273.85615,1.12622
273.61508,1.12829
273.37401,1.13213
273.13294,1.13602
272.89187,1.13846
272.65080,1.14071
272.40973,1.14590
272.16866,1.15373
271.92759,1.15944
271.68652,1.15964
271.44545,1.15563
271.20438,1.15039
270.96331,1.14673
270.72224,1.14709
270.48116,1.15128
270.24009,1.15646
269.99902,1.16095
269.75795,1.16521
269.51688,1.16899
269.27581,1.17131
269.03474,1.17300
268.79367,1.17612
268.55260,1.18155
268.31153,1.18861
268.07046,1.19640
267.82939,1.20403
267.58832,1.21042
267.34725,1.21531
267.10618,1.22014
266.86511,1.22681
266.62404,1.23538
266.38297,1.24331
266.14189,1.24747
265.90082,1.24770
265.65975,1.24798
265.41868,1.25295
265.17761,1.26305
264.93654,1.27409
264.69547,1.28183
264.45440,1.28629
264.21333,1.29115
263.97226,1.29918
263.73119,1.30983
263.49012,1.32184
263.24905,1.33538
263.00798,1.34991
262.76691,1.36391
262.52584,1.37846
262.28477,1.39488
262.04370,1.41186
261.80262,1.42797
261.56155,1.44231
261.32048,1.45516
261.07941,1.46775
260.83834,1.48210
260.59727,1.50187
260.35620,1.53019
260.11513,1.56507
259.87406,1.59713
259.63299,1.61715
259.39192,1.62785
259.15085,1.64129
258.90978,1.66512
258.66871,1.69803
258.42764,1.73557
258.18657,1.77323
257.94550,1.80213
257.70443,1.81190
257.46335,1.80676
257.22228,1.80273
256.98121,1.80862
256.74014,1.82042
256.49907,1.82615
256.25800,1.81958
256.01693,1.81079
255.77586,1.81281
255.53479,1.82380
255.29372,1.82872
255.05265,1.81300
254.81158,1.77558
254.57051,1.73230
254.32944,1.70179
254.08837,1.68527
253.84730,1.66806
253.60623,1.64163
253.36516,1.61654
253.12408,1.60619
252.88301,1.60943
252.64194,1.61523
252.40087,1.61762
252.15980,1.61975
251.91873,1.62242
251.67766,1.62013
251.43659,1.61095
251.19552,1.60103
250.95445,1.59771
250.71338,1.60391
250.47231,1.61821
250.23124,1.63468
249.99017,1.64449
249.74910,1.64336
249.50803,1.63689
249.26696,1.63233
249.02589,1.62738
248.78481,1.61338
248.54374,1.58894
248.30267,1.56272
248.06160,1.54466
247.82053,1.53988
247.57946,1.54687
247.33839,1.55689
247.09732,1.55910
246.85625,1.55124
246.61518,1.54420
246.37411,1.55194
246.13304,1.57951
245.89197,1.61981
245.65090,1.65690
245.40983,1.67740
245.16876,1.68329
244.92769,1.69105
244.68661,1.71703
244.44554,1.76133
244.20447,1.80590
243.96340,1.83870
243.72233,1.87437
243.48126,1.93007
243.24019,1.99020
242.99912,2.02804
242.75805,1.99621
242.51698,1.88216
242.27591,1.79833
242.03484,1.74043
241.79377,1.68639
241.55270,1.62627
241.31163,1.55879
241.07056,1.49061
240.82949,1.42791
240.58842,1.37237
240.34734,1.32634
240.10627,1.29315
239.86520,1.26949
239.62413,1.24483
239.38306,1.21297
239.14199,1.17977
238.90092,1.15469
238.65985,1.13888
238.41878,1.12521
238.17771,1.10774
237.93664,1.08786
237.69557,1.07004
237.45450,1.05531
237.21343,1.04123
236.97236,1.02632
236.73129,1.01214
236.49022,1.00094
236.24915,0.99284
236.00807,0.98507
235.76700,0.97418
235.52593,0.96019
235.28486,0.94662
235.04379,0.93567
234.80272,0.92657
234.56165,0.91895
234.32058,0.91425
234.07951,0.91293
233.83844,0.91313
233.59737,0.91312
233.35630,0.91234
233.11523,0.90990
232.87416,0.90467
232.63309,0.89756
232.39202,0.89090
232.15095,0.88495
231.90988,0.87835
231.66880,0.87226
231.42773,0.86980
231.18666,0.87062
230.94559,0.87089
230.70452,0.86947
230.46345,0.86890
230.22238,0.86949
229.98131,0.86811
229.74024,0.86386
229.49917,0.85991
229.25810,0.85873
229.01703,0.85905
228.77596,0.85833
228.53489,0.85587
228.29382,0.85305
228.05275,0.85084
227.81168,0.84807
227.57061,0.84354
227.32953,0.83845
227.08846,0.83435
226.84739,0.83060
226.60632,0.82649
226.36525,0.82361
226.12418,0.82370
225.88311,0.82584
225.64204,0.82762
225.40097,0.82796
225.15990,0.82776
224.91883,0.82834
224.67776,0.83007
224.43669,0.83235
224.19562,0.83432
223.95455,0.83541
223.71348,0.83597
223.47241,0.83682
223.23134,0.83749
222.99026,0.83656
222.74919,0.83458
222.50812,0.83462
222.26705,0.83884
222.02598,0.84646
221.78491,0.85552
221.54384,0.86467
221.30277,0.87259
221.06170,0.87780
220.82063,0.88030
220.57956,0.88252
220.33849,0.88704
220.09742,0.89360
219.85635,0.89996
219.61528,0.90546
219.37421,0.91171
219.13314,0.92026
218.89207,0.93149
218.65099,0.94502
218.40992,0.95984
218.16885,0.97426
217.92778,0.98639
217.68671,0.99510
217.44564,1.00092
217.20457,1.00614
216.96350,1.01371
216.72243,1.02541
216.48136,1.04039
216.24029,1.05544
215.99922,1.06846
215.75815,1.08116
215.51708,1.09645
215.27601,1.11392
215.03494,1.12954
214.79387,1.14004
214.55280,1.14704
214.31172,1.15480
214.07065,1.16433
213.82958,1.17341
213.58851,1.18194
213.34744,1.19268
213.10637,1.20590
212.86530,1.21779
212.62423,1.22528
212.38316,1.22816
212.14209,1.22758
211.90102,1.22721
211.65995,1.23227
211.41888,1.24252
211.17781,1.24948
210.93674,1.24614
210.69567,1.23595
210.45460,1.22663
210.21353,1.22100
209.97245,1.21795
209.73138,1.21647
209.49031,1.21568
209.24924,1.21472
209.00817,1.21392
208.76710,1.21355
208.52603,1.21240
208.28496,1.20863
208.04389,1.20102
207.80282,1.19030
207.56175,1.17983
207.32068,1.17260
207.07961,1.16798
206.83854,1.16270
206.59747,1.15384
206.35640,1.14060
206.11533,1.12485
205.87426,1.11070
205.63318,1.10204
205.39211,1.09951
205.15104,1.09917
204.90997,1.09444
204.66890,1.08124
204.42783,1.06120
204.18676,1.03937
203.94569,1.02150
203.70462,1.01150
203.46355,1.00803
203.22248,1.00463
202.98141,0.99560
202.74034,0.98078
202.49927,0.96354
202.25820,0.94679
202.01713,0.93183
201.77606,0.91822
201.53499,0.90488
201.29391,0.89181
201.05284,0.88029
200.81177,0.87143
200.57070,0.86457
200.32963,0.85675
200.08856,0.84512
199.84749,0.83064
199.60642,0.81735
199.36535,0.80770
199.12428,0.80072
198.88321,0.79404
198.64214,0.78605
198.40107,0.77642
198.16000,0.76613
197.91893,0.75664
197.67786,0.74866
197.43679,0.74171
197.19572,0.73440
196.95464,0.72504
196.71357,0.71340
196.47250,0.70174
196.23143,0.69271
195.99036,0.68633
195.74929,0.68067
195.50822,0.67518
195.26715,0.67105
195.02608,0.66835
194.78501,0.66513
194.54394,0.66004
194.30287,0.65401
194.06180,0.64884
193.82073,0.64529
193.57966,0.64298
193.33859,0.64111
193.09752,0.63844
192.85645,0.63361
192.61537,0.62683
192.37430,0.62029
192.13323,0.61554
191.89216,0.61156
191.65109,0.60648
191.41002,0.60086
191.16895,0.59696
190.92788,0.59528
190.68681,0.59392
190.44574,0.59096
190.20467,0.58671
189.96360,0.58337
189.72253,0.58232
189.48146,0.58220
189.24039,0.58023
188.99932,0.57617
188.75825,0.57291
188.51718,0.57265
188.27610,0.57391
188.03503,0.57347
187.79396,0.57050
187.55289,0.56704
187.31182,0.56464
187.07075,0.56278
186.82968,0.56077
186.58861,0.55920
186.34754,0.55829
186.10647,0.55713
185.86540,0.55582
185.62433,0.55597
185.38326,0.55779
185.14219,0.55923
184.90112,0.55932
184.66005,0.55923
184.41898,0.55952
184.17791,0.55967
183.93683,0.56046
183.69576,0.56339
183.45469,0.56811
183.21362,0.57255
182.97255,0.57507
182.73148,0.57551
182.49041,0.57487
182.24934,0.57423
182.00827,0.57420
181.76720,0.57521
181.52613,0.57707
181.28506,0.57843
181.04399,0.57859
180.80292,0.57921
180.56185,0.58171
180.32078,0.58484
180.07971,0.58703
179.83864,0.58915
179.59756,0.59290
179.35649,0.59827
179.11542,0.60396
178.87435,0.60933
178.63328,0.61495
178.39221,0.62165
178.15114,0.62960
177.91007,0.63859
177.66900,0.64816
177.42793,0.65784
177.18686,0.66801
176.94579,0.68004
176.70472,0.69415
176.46365,0.70810
176.22258,0.71979
175.98151,0.73058
175.74044,0.74458
175.49937,0.76377
175.25829,0.78508
175.01722,0.80391
174.77615,0.81977
174.53508,0.83524
174.29401,0.85138
174.05294,0.86738
173.81187,0.88255
173.57080,0.89565
173.32973,0.90542
173.08866,0.91341
172.84759,0.92291
172.60652,0.93442
172.36545,0.94493
172.12438,0.95155
171.88331,0.95385
171.64224,0.95317
171.40117,0.95185
171.16010,0.95251
170.91902,0.95623
170.67795,0.96055
170.43688,0.96054
170.19581,0.95312
169.95474,0.94062
169.71367,0.92872
169.47260,0.92073
169.23153,0.91483
168.99046,0.90754
168.74939,0.89917
168.50832,0.89299
168.26725,0.88983
168.02618,0.88706
167.78511,0.88310
167.54404,0.87994
167.30297,0.88031
167.06190,0.88441
166.82083,0.89032
166.57975,0.89611
166.33868,0.90051
166.09761,0.90291
165.85654,0.90408
165.61547,0.90586
165.37440,0.90898
165.13333,0.91226
164.89226,0.91497
164.65119,0.91920
164.41012,0.92858
164.16905,0.94380
163.92798,0.96038
163.68691,0.97253
163.44584,0.97911
163.20477,0.98294
162.96370,0.98580
162.72263,0.98733
162.48156,0.98792
162.24048,0.98984
161.99941,0.99514
161.75834,1.00321
161.51727,1.01088
161.27620,1.01471
161.03513,1.01378
160.79406,1.01002
160.55299,1.00564
160.31192,1.00092
160.07085,0.99577
159.82978,0.99153
159.58871,0.98918
159.34764,0.98755
159.10657,0.98507
158.86550,0.98157
158.62443,0.97762
158.38336,0.97350
158.14229,0.96901
157.90121,0.96358
157.66014,0.95687
157.41907,0.95002
157.17800,0.94504
156.93693,0.94254
156.69586,0.94060
156.45479,0.93595
156.21372,0.92697
155.97265,0.91567
155.73158,0.90563
155.49051,0.89834
155.24944,0.89254
155.00837,0.88634
154.76730,0.87867
154.52623,0.86939
154.28516,0.85889
154.04409,0.84795
153.80302,0.83730
153.56194,0.82687
153.32087,0.81538
153.07980,0.80162
152.83873,0.78588
152.59766,0.76933
152.35659,0.75224
152.11552,0.73440
151.87445,0.71712
151.63338,0.70263
151.39231,0.69093
151.15124,0.67961
150.91017,0.66701
150.66910,0.65406
150.42803,0.64260
150.18696,0.63320
149.94589,0.62473
149.70482,0.61555
149.46375,0.60496
149.22267,0.59395
148.98160,0.58475
148.74053,0.57859
148.49946,0.57408
148.25839,0.56851
148.01732,0.56125
147.77625,0.55459
147.53518,0.55097
147.29411,0.55042
147.05304,0.55107
146.81197,0.55128
146.57090,0.55082
146.32983,0.55078
146.08876,0.55264
145.84769,0.55688
145.60662,0.56224
145.36555,0.56678
145.12448,0.56991
144.88340,0.57308
144.64233,0.57824
144.40126,0.58527
144.16019,0.59139
143.91912,0.59389
143.67805,0.59309
143.43698,0.59117
143.19591,0.58860
142.95484,0.58365
142.71377,0.57549
142.47270,0.56602
142.23163,0.55777
141.99056,0.55085
141.74949,0.54311
141.50842,0.53351
141.26735,0.52389
141.02628,0.51635
140.78521,0.51069
140.54413,0.50564
140.30306,0.50155
140.06199,0.50013
139.82092,0.50228
139.57985,0.50723
139.33878,0.51333
139.09771,0.51899
138.85664,0.52349
138.61557,0.52736
138.37450,0.53191
138.13343,0.53839
137.89236,0.54724
137.65129,0.55782
137.41022,0.56919
137.16915,0.58122
136.92808,0.59446
136.68701,0.60938
136.44594,0.62641
136.20486,0.64578
135.96379,0.66689
135.72272,0.68921
135.48165,0.71355
135.24058,0.74068
134.99951,0.76937
134.75844,0.79788
134.51737,0.82597
134.27630,0.85401
134.03523,0.88222
133.79416,0.91175
133.55309,0.94349
133.31202,0.97608
133.07095,1.00701
132.82988,1.03409
132.58881,1.05548
132.34774,1.07175
132.10667,1.08661
131.86559,1.10202
131.62452,1.11541
131.38345,1.12400
131.14238,1.12726
130.90131,1.12438
130.66024,1.11441
130.41917,1.09787
130.17810,1.07534
129.93703,1.04680
129.69596,1.01477
129.45489,0.98390
129.21382,0.95523
128.97275,0.92509
128.73168,0.89111
128.49061,0.85556
128.24954,0.82162
128.00847,0.79011
127.76740,0.76124
127.52632,0.73602
127.28525,0.71418
127.04418,0.69333
126.80311,0.67134
126.56204,0.64854
126.32097,0.62672
126.07990,0.60709
125.83883,0.58968
125.59776,0.57391
125.35669,0.55923
125.11562,0.54531
124.87455,0.53220
124.63348,0.52040
124.39241,0.51033
124.15134,0.50172
123.91027,0.49373
123.66920,0.48589
123.42812,0.47865
123.18705,0.47282
122.94598,0.46862
122.70491,0.46560
122.46384,0.46353
122.22277,0.46246
121.98170,0.46167
121.74063,0.46015
121.49956,0.45831
121.25849,0.45781
121.01742,0.45952
120.77635,0.46303
120.53528,0.46807
120.29421,0.47507
120.05314,0.48504
119.81207,0.49906
119.57100,0.51707
119.32993,0.53736
119.08885,0.55875
118.84778,0.58221
118.60671,0.60891
118.36564,0.63755
118.12457,0.66536
117.88350,0.69068
117.64243,0.71390
117.40136,0.73600
117.16029,0.75627
116.91922,0.77179
116.67815,0.77949
116.43708,0.77861
116.19601,0.77131
115.95494,0.76140
115.71387,0.75183
115.47280,0.74267
115.23173,0.73239
114.99066,0.72119
114.74958,0.71117
114.50851,0.70320
114.26744,0.69619
114.02637,0.68976
113.78530,0.68531
113.54423,0.68349
113.30316,0.68256
113.06209,0.68062
112.82102,0.67774
112.57995,0.67506
112.33888,0.67344
112.09781,0.67415
111.85674,0.67849
111.61567,0.68569
111.37460,0.69302
111.13353,0.69912
110.89246,0.70563
110.65139,0.71389
110.41031,0.72119
110.16924,0.72258
109.92817,0.71599
109.68710,0.70268
109.44603,0.68437
109.20496,0.66303
108.96389,0.64133
108.72282,0.62122
108.48175,0.60356
108.24068,0.58924
107.99961,0.57811
107.75854,0.56694
107.51747,0.55143
107.27640,0.53086
107.03533,0.50869
106.79426,0.48817
106.55319,0.47003
106.31212,0.45438
106.07104,0.44249
105.82997,0.43520
105.58890,0.43121
105.34783,0.42747
105.10676,0.42084
104.86569,0.41005
104.62462,0.39679
104.38355,0.38418
104.14248,0.37419
103.90141,0.36701
103.66034,0.36199
103.41927,0.35770
103.17820,0.35183
102.93713,0.34259
102.69606,0.33073
102.45499,0.31956
102.21392,0.31256
101.97285,0.31075
101.73177,0.31190
101.49070,0.31215
101.24963,0.30870
101.00856,0.30192
100.76749,0.29508
100.52642,0.29097
100.28535,0.28943
100.04428,0.28847
99.80321,0.28665
99.56214,0.28369
99.32107,0.27965
99.08000,0.27488
98.83893,0.27085
98.59786,0.26906
98.35679,0.26866
98.11572,0.26707
97.87465,0.26443
97.63358,0.26443
97.39250,0.26876
97.15143,0.27334
96.91036,0.27297
96.66929,0.26863
96.42822,0.26688
96.18715,0.27258
95.94608,0.28428
95.70501,0.29531
95.46394,0.30046
95.22287,0.30236
94.98180,0.30773
94.74073,0.31722
94.49966,0.32377
94.25859,0.32328
94.01752,0.32108
93.77645,0.32278
93.53538,0.32622
93.29431,0.32619
93.05323,0.32289
92.81216,0.32075
92.57109,0.32144
92.33002,0.32275
92.08895,0.32322
91.84788,0.32435
91.60681,0.32727
91.36574,0.33162
91.12467,0.33899
90.88360,0.35246
90.64253,0.37129
90.40146,0.39262
90.16039,0.41866
89.91932,0.45411
89.67825,0.49761
89.43718,0.54372
89.19611,0.59038
88.95504,0.63560
88.71396,0.67279
88.47289,0.69693
88.23182,0.70658
87.99075,0.69922
87.74968,0.67485
87.50861,0.64044
87.26754,0.60367
87.02647,0.56760
86.78540,0.53233
86.54433,0.49775
86.30326,0.46503
86.06219,0.43633
85.82112,0.41234
85.58005,0.39073
85.33898,0.36848
85.09791,0.34610
84.85684,0.32682
84.61577,0.31183
84.37469,0.29936
84.13362,0.28815
83.89255,0.27871
83.65148,0.27080
83.41041,0.26322
83.16934,0.25593
82.92827,0.24924
82.68720,0.24251
82.44613,0.23574
82.20506,0.23032
81.96399,0.22648
81.72292,0.22257
81.48185,0.21791
81.24078,0.21381
80.99971,0.21092
80.75864,0.20821
80.51757,0.20488
80.27650,0.20138
80.03542,0.19822
79.79435,0.19522
79.55328,0.19253
79.31221,0.19112
79.07114,0.19164
78.83007,0.19325
78.58900,0.19428
78.34793,0.19371
78.10686,0.19139
77.86579,0.18731
77.62472,0.18193
77.38365,0.17672
77.14258,0.17334
76.90151,0.17220
76.66044,0.17198
76.41937,0.17075
76.17830,0.16818
75.93723,0.16566
75.69615,0.16412
75.45508,0.16295
75.21401,0.16187
74.97294,0.16187
74.73187,0.16340
74.49080,0.16516
74.24973,0.16560
74.00866,0.16514
73.76759,0.16563
73.52652,0.16768
73.28545,0.16961
73.04438,0.16947
72.80331,0.16762
72.56224,0.16645
72.32117,0.16797
72.08010,0.17225
71.83903,0.17777
71.59796,0.18260
71.35688,0.18518
71.11581,0.18449
70.87474,0.18082
70.63367,0.17683
70.39260,0.17664
70.15153,0.18332
69.91046,0.19717
69.66939,0.21585
69.42832,0.23490
69.18725,0.24835
68.94618,0.25136
68.70511,0.24400
68.46404,0.23073
68.22297,0.21572
67.98190,0.20055
67.74083,0.18592
67.49976,0.17324
67.25869,0.16383
67.01761,0.15786
66.77654,0.15446
66.53547,0.15226
66.29440,0.15022
66.05333,0.14855
65.81226,0.14843
65.57119,0.15070
65.33012,0.15531
65.08905,0.16198
64.84798,0.17056
64.60691,0.18057
64.36584,0.19095
64.12477,0.20016
63.88370,0.20616
63.64263,0.20678
63.40156,0.20085
63.16049,0.18981
62.91942,0.17760
62.67834,0.16832
62.43727,0.16357
62.19620,0.16198
61.95513,0.16102
61.71406,0.15916
61.47299,0.15650
61.23192,0.15382
60.99085,0.15176
60.74978,0.15140
60.50871,0.15398
60.26764,0.15940
60.02657,0.16588
59.78550,0.17148
59.54443,0.17484
59.30336,0.17457
59.06229,0.16995
58.82122,0.16217
58.58015,0.15355
58.33907,0.14554
58.09800,0.13829
57.85693,0.13144
57.61586,0.12468
57.37479,0.11800
57.13372,0.11259
56.89265,0.11093
56.65158,0.11481
56.41051,0.12382
56.16944,0.13629
55.92837,0.15001
55.68730,0.16100
55.44623,0.16445
55.20516,0.15988
54.96409,0.15196
54.72302,0.14432
54.48195,0.13715
54.24088,0.13126
53.99980,0.13073
53.75873,0.14009
53.51766,0.16048
53.27659,0.18851
53.03552,0.21452
52.79445,0.22146
52.55338,0.20076
52.31231,0.16754
52.07124,0.14285
51.83017,0.13718
51.58910,0.15036
51.34803,0.17356
51.10696,0.18861
50.86589,0.17896
50.62482,0.15166
50.38375,0.12849
50.14268,0.12355
49.90161,0.14000
49.66053,0.16984
49.41946,0.18701
49.17839,0.16779
48.93732,0.13338
48.69625,0.11867
48.45518,0.13644
48.21411,0.16835
47.97304,0.17050
47.73197,0.13971
47.49090,0.12125
47.24983,0.13531
47.00876,0.15721
46.76769,0.14721
46.52662,0.12166
46.28555,0.11794
46.04448,0.13396
45.80341,0.13986
45.56234,0.12988
45.32126,0.12751
45.08019,0.13396
44.83912,0.13415
44.59805,0.13387
44.35698,0.14245
44.11591,0.14812
43.87484,0.14313
43.63377,0.14145
43.39270,0.15193
43.15163,0.16474
42.91056,0.17047
42.66949,0.16983
42.42842,0.16547
42.18735,0.15949
41.94628,0.15238
41.70521,0.14390
41.46414,0.13775
41.22307,0.13947
40.98199,0.14981
40.74092,0.16431
40.49985,0.17843
40.25878,0.19053
40.01771,0.19985
39.77664,0.20529
39.53557,0.20850
39.29450,0.21175
39.05343,0.21142
38.81236,0.20515
38.57129,0.20343
38.33022,0.21528
38.08915,0.23212
37.84808,0.24140
37.60701,0.24520
37.36594,0.24698
37.12487,0.24243
36.88380,0.23334
36.64272,0.22917
36.40165,0.23083
36.16058,0.22881
35.91951,0.21806
35.67844,0.20447
35.43737,0.19601
35.19630,0.19500
34.95523,0.19889
34.71416,0.20224
34.47309,0.20000
34.23202,0.19356
33.99095,0.18932
33.74988,0.19085
33.50881,0.19609
33.26774,0.19992
33.02667,0.19809
32.78560,0.19199
32.54453,0.18725
32.30345,0.18515
32.06238,0.18303
31.82131,0.17991
31.58024,0.17629
31.33917,0.16880
31.09810,0.14881
30.85703,0.11520
30.61596,0.08518
30.37489,0.07657
30.13382,0.08470
29.89275,0.09131
29.65168,0.08542
29.41061,0.06936
29.16954,0.05273
28.92847,0.03991
28.68740,0.02504
28.44633,0.00351
28.20526,-0.01704
27.96418,-0.02592
27.72311,-0.02233
27.48204,-0.01457
27.24097,-0.01244
26.99990,-0.02336
26.75883,-0.04842
26.51776,-0.07798
26.27669,-0.09420
26.03562,-0.08944
25.79455,-0.07877
25.55348,-0.08093
25.31241,-0.09687
25.07134,-0.11413
24.83027,-0.12439
24.58920,-0.13013
24.34813,-0.13808
24.10706,-0.14869
23.86599,-0.15606
23.62491,-0.16174
23.38384,-0.17570
23.14277,-0.19712
22.90170,-0.21239
22.66063,-0.21469
22.41956,-0.20721
22.17849,-0.19612
21.93742,-0.19161
21.69635,-0.20053
21.45528,-0.21653
21.21421,-0.23129
20.97314,-0.25024
20.73207,-0.27619
20.49100,-0.29014
20.24993,-0.27927
20.00886,-0.26499
19.76779,-0.27476
19.52672,-0.30696
19.28564,-0.33492
19.04457,-0.34289
18.80350,-0.34371
18.56243,-0.35298
18.32136,-0.37111
18.08029,-0.39123
17.83922,-0.40141
17.59815,-0.39268
17.35708,-0.37879
17.11601,-0.38368
16.87494,-0.40615
16.63387,-0.41488
16.39280,-0.39252
16.15173,-0.36691
15.91066,-0.36936
15.66959,-0.39712
15.42852,-0.42618
15.18745,-0.44507
14.94637,-0.46485
14.70530,-0.49353
14.46423,-0.51784
14.22316,-0.52917
13.98209,-0.52579
13.74102,-0.50238
13.49995,-0.47253
13.25888,-0.46077
13.01781,-0.47428
12.77674,-0.49825
12.53567,-0.51256
12.29460,-0.50935
12.05353,-0.49750
11.81246,-0.48513
11.57139,-0.46562
11.33032,-0.43142
11.08925,-0.39159
10.84818,-0.36581
10.60710,-0.37188
10.36603,-0.41106
10.12496,-0.46275
9.88389,-0.49856
9.64282,-0.51081
9.40175,-0.51436
9.16068,-0.52699
8.91961,-0.53477
8.67854,-0.51818
8.43747,-0.49299
8.19640,-0.48535
7.95533,-0.48921
7.71426,-0.47878
7.47319,-0.45266
7.23212,-0.43586
6.99105,-0.43959
6.74998,-0.45805
6.50891,-0.47724
6.26783,-0.48324
6.02676,-0.47154
5.78569,-0.45179
5.54462,-0.44065
5.30355,-0.43941
5.06248,-0.43554
4.82141,-0.43444
4.58034,-0.44578
4.33927,-0.45427
4.09820,-0.45276
3.85713,-0.45250
3.61606,-0.45926
3.37499,-0.46658
3.13392,-0.46875
2.89285,-0.46127
2.65178,-0.44465
2.41071,-0.42945
2.16964,-0.42548
1.92856,-0.43542
1.68749,-0.45111
1.44642,-0.43304
1.20535,-0.42256
0.96428,-0.43799
0.72321,-0.46268
0.48214,-0.48045
0.24107,-0.44606
-0.00000,-0.08191
