399.69498,1.74135
399.45391,1.70328
399.21284,1.67037
398.97177,1.65798
398.73070,1.66645
398.48963,1.67918
398.24856,1.68091
398.00749,1.67303
397.76642,1.66883
397.52535,1.67792
397.28428,1.69240
397.04321,1.69589
396.80214,1.70281
396.56107,1.72111
396.32000,1.71248
396.07892,1.70692
395.83785,1.70623
395.59678,1.69096
395.35571,1.66269
395.11464,1.64056
394.87357,1.64517
394.63250,1.67209
394.39143,1.70012
394.15036,1.71839
393.90929,1.70410
393.66822,1.66860
393.42715,1.66744
393.18608,1.69049
392.94501,1.68296
392.70394,1.64593
392.46287,1.61496
392.22180,1.60227
391.98073,1.60064
391.73965,1.61614
391.49858,1.65398
391.25751,1.70062
391.01644,1.73665
390.77537,1.73377
390.53430,1.69553
390.29323,1.67066
390.05216,1.69171
389.81109,1.73599
389.57002,1.75307
389.32895,1.72813
389.08788,1.67423
388.84681,1.62912
388.60574,1.62264
388.36467,1.66355
388.12360,1.72129
387.88253,1.71239
387.64146,1.68513
387.40038,1.65312
387.15931,1.57756
386.91824,1.52621
386.67717,1.51979
386.43610,1.55249
386.19503,1.59245
385.95396,1.60487
385.71289,1.59353
385.47182,1.58403
385.23075,1.59425
384.98968,1.63279
384.74861,1.67920
384.50754,1.67179
384.26647,1.60644
384.02540,1.53756
383.78433,1.48189
383.54326,1.44121
383.30219,1.45621
383.06111,1.52146
382.82004,1.53902
382.57897,1.49615
382.33790,1.45631
382.09683,1.42817
381.85576,1.41984
381.61469,1.43731
381.37362,1.44810
381.13255,1.39861
380.89148,1.37545
380.65041,1.39903
380.40934,1.43194
380.16827,1.42988
379.92720,1.38676
379.68613,1.33468
379.44506,1.30974
379.20399,1.32583
378.96292,1.36679
378.72184,1.40666
378.48077,1.43885
378.23970,1.46752
377.99863,1.48485
377.75756,1.48894
377.51649,1.49415
377.27542,1.50299
377.03435,1.50842
376.79328,1.52753
376.55221,1.55679
376.31114,1.57760
376.07007,1.61060
375.82900,1.62287
375.58793,1.62057
375.34686,1.64410
375.10579,1.66591
374.86472,1.66994
374.62365,1.64975
374.38257,1.61773
374.14150,1.58779
373.90043,1.56924
373.65936,1.56080
373.41829,1.55838
373.17722,1.56957
372.93615,1.58839
372.69508,1.58102
372.45401,1.54676
372.21294,1.52579
371.97187,1.53550
371.73080,1.56477
371.48973,1.59455
371.24866,1.60328
371.00759,1.59100
370.76652,1.56953
370.52545,1.54215
370.28437,1.51316
370.04330,1.49520
369.80223,1.50582
369.56116,1.54754
369.32009,1.59575
369.07902,1.61452
368.83795,1.59257
368.59688,1.56837
368.35581,1.56106
368.11474,1.55021
367.87367,1.52975
367.63260,1.51042
367.39153,1.50114
367.15046,1.49328
366.90939,1.47323
366.66832,1.45805
366.42725,1.46945
366.18618,1.50215
365.94510,1.52753
365.70403,1.52000
365.46296,1.48725
365.22189,1.45868
364.98082,1.45334
364.73975,1.46694
364.49868,1.47908
364.25761,1.47770
364.01654,1.46888
363.77547,1.46567
363.53440,1.47561
363.29333,1.49002
363.05226,1.49193
362.81119,1.47425
362.57012,1.45229
362.32905,1.44608
362.08798,1.45709
361.84691,1.47771
361.60583,1.50285
361.36476,1.52772
361.12369,1.53263
360.88262,1.49871
360.64155,1.44957
360.40048,1.42621
360.15941,1.43965
359.91834,1.47156
359.67727,1.49479
359.43620,1.49486
359.19513,1.48150
358.95406,1.47063
358.71299,1.46699
358.47192,1.45817
358.23085,1.43371
357.98978,1.40393
357.74871,1.38567
357.50764,1.38515
357.26656,1.40058
357.02549,1.42833
356.78442,1.46017
356.54335,1.48247
356.30228,1.49325
356.06121,1.50302
355.82014,1.50821
355.57907,1.49689
355.33800,1.46846
355.09693,1.42946
354.85586,1.39083
354.61479,1.36905
354.37372,1.37423
354.13265,1.40113
353.89158,1.43228
353.65051,1.44914
353.40944,1.44454
353.16837,1.43001
352.92729,1.42178
352.68622,1.42856
352.44515,1.44482
352.20408,1.45065
351.96301,1.43631
351.72194,1.41702
351.48087,1.41525
351.23980,1.43553
350.99873,1.46139
350.75766,1.47954
350.51659,1.48560
350.27552,1.47157
350.03445,1.43905
349.79338,1.41368
349.55231,1.41918
349.31124,1.44288
349.07017,1.44669
348.82910,1.41925
348.58802,1.38863
348.34695,1.37862
348.10588,1.38232
347.86481,1.37969
347.62374,1.36956
347.38267,1.36900
347.14160,1.39180
346.90053,1.43843
346.65946,1.49812
346.41839,1.54324
346.17732,1.53708
345.93625,1.50377
345.69518,1.48249
345.45411,1.46544
345.21304,1.43576
344.97197,1.40979
344.73090,1.41084
344.48983,1.43111
344.24875,1.44363
344.00768,1.45017
343.76661,1.46210
343.52554,1.47090
343.28447,1.48054
343.04340,1.50835
342.80233,1.55407
342.56126,1.59307
342.32019,1.61568
342.07912,1.61362
341.83805,1.56834
341.59698,1.52721
341.35591,1.50880
341.11484,1.49445
340.87377,1.48519
340.63270,1.49331
340.39163,1.52874
340.15056,1.57170
339.90948,1.58480
339.66841,1.56321
339.42734,1.52640
339.18627,1.49474
338.94520,1.47583
338.70413,1.47092
338.46306,1.48306
338.22199,1.51338
337.98092,1.55148
337.73985,1.58395
337.49878,1.61340
337.25771,1.64082
337.01664,1.64602
336.77557,1.61695
336.53450,1.57782
336.29343,1.56599
336.05236,1.59638
335.81129,1.65399
335.57021,1.71399
335.32914,1.76100
335.08807,1.79148
334.84700,1.78129
334.60593,1.71559
334.36486,1.62074
334.12379,1.57432
333.88272,1.58967
333.64165,1.61485
333.40058,1.61661
333.15951,1.57612
332.91844,1.53018
332.67737,1.51607
332.43630,1.52010
332.19523,1.51810
331.95416,1.50600
331.71309,1.49580
331.47202,1.48756
331.23094,1.45949
330.98987,1.42297
330.74880,1.41035
330.50773,1.43558
330.26666,1.48366
330.02559,1.50800
329.78452,1.48745
329.54345,1.45706
329.30238,1.44636
329.06131,1.45442
328.82024,1.46936
328.57917,1.48824
328.33810,1.53035
328.09703,1.59317
327.85596,1.58941
327.61489,1.49013
327.37382,1.42823
327.13275,1.42311
326.89167,1.44139
326.65060,1.46116
326.40953,1.47751
326.16846,1.47609
325.92739,1.44919
325.68632,1.46667
325.44525,1.51748
325.20418,1.49091
324.96311,1.45240
324.72204,1.43994
324.48097,1.45565
324.23990,1.49646
323.99883,1.55044
323.75776,1.56227
323.51669,1.51421
323.27562,1.47526
323.03455,1.45424
322.79348,1.44366
322.55240,1.43416
322.31133,1.43782
322.07026,1.46357
321.82919,1.49852
321.58812,1.51832
321.34705,1.48914
321.10598,1.42616
320.86491,1.39824
320.62384,1.43596
320.38277,1.51374
320.14170,1.56376
319.90063,1.53651
319.65956,1.49351
319.41849,1.48243
319.17742,1.48750
318.93635,1.47363
318.69528,1.44570
318.45421,1.42369
318.21313,1.39315
317.97206,1.37074
317.73099,1.37387
317.48992,1.39464
317.24885,1.43371
317.00778,1.48793
316.76671,1.52896
316.52564,1.57840
316.28457,1.62444
316.04350,1.57295
315.80243,1.51977
315.56136,1.48822
315.32029,1.47663
315.07922,1.48556
314.83815,1.49443
314.59708,1.49777
314.35601,1.51121
314.11494,1.54097
313.87386,1.58863
313.63279,1.61855
313.39172,1.54268
313.15065,1.49364
312.90958,1.52856
312.66851,1.49349
312.42744,1.49502
312.18637,1.53898
311.94530,1.56413
311.70423,1.57374
311.46316,1.56603
311.22209,1.51813
310.98102,1.47896
310.73995,1.49170
310.49888,1.54837
310.25781,1.62192
310.01674,1.68355
309.77567,1.69786
309.53459,1.66949
309.29352,1.62724
309.05245,1.60637
308.81138,1.62334
308.57031,1.66923
308.32924,1.69622
308.08817,1.66399
307.84710,1.60183
307.60603,1.53315
307.36496,1.48459
307.12389,1.48687
306.88282,1.54797
306.64175,1.62442
306.40068,1.64673
306.15961,1.63151
305.91854,1.59726
305.67747,1.56547
305.43640,1.54497
305.19532,1.53358
304.95425,1.52994
304.71318,1.53329
304.47211,1.55008
304.23104,1.58155
303.98997,1.62074
303.74890,1.64231
303.50783,1.62093
303.26676,1.58279
303.02569,1.55672
302.78462,1.55318
302.54355,1.56652
302.30248,1.57045
302.06141,1.54330
301.82034,1.49480
301.57927,1.45783
301.33820,1.45762
301.09713,1.48147
300.85605,1.48464
300.61498,1.45094
300.37391,1.42194
300.13284,1.42198
299.89177,1.43043
299.65070,1.42905
299.40963,1.42642
299.16856,1.42625
298.92749,1.41384
298.68642,1.39110
298.44535,1.37450
298.20428,1.37633
297.96321,1.39787
297.72214,1.42169
297.48107,1.42707
297.24000,1.42518
296.99893,1.43193
296.75786,1.44748
296.51678,1.45745
296.27571,1.44042
296.03464,1.40465
295.79357,1.37822
295.55250,1.37764
295.31143,1.39466
295.07036,1.40063
294.82929,1.38423
294.58822,1.36800
294.34715,1.36963
294.10608,1.38612
293.86501,1.39780
293.62394,1.37837
293.38287,1.33614
293.14180,1.30509
292.90073,1.30484
292.65966,1.32903
292.41859,1.35389
292.17751,1.36712
291.93644,1.37174
291.69537,1.36678
291.45430,1.34896
291.21323,1.32241
290.97216,1.30130
290.73109,1.29670
290.49002,1.30368
290.24895,1.30942
290.00788,1.30936
289.76681,1.30752
289.52574,1.31026
289.28467,1.32160
289.04360,1.33657
288.80253,1.34177
288.56146,1.33073
288.32039,1.31376
288.07932,1.30409
287.83824,1.30038
287.59717,1.29121
287.35610,1.27509
287.11503,1.26474
286.87396,1.26676
286.63289,1.27152
286.39182,1.26854
286.15075,1.26052
285.90968,1.25288
285.66861,1.24573
285.42754,1.24069
285.18647,1.24126
284.94540,1.24682
284.70433,1.25075
284.46326,1.24778
284.22219,1.24397
283.98112,1.24948
283.74005,1.26027
283.49897,1.26021
283.25790,1.24682
283.01683,1.23752
282.77576,1.24670
282.53469,1.26726
282.29362,1.27924
282.05255,1.27619
281.81148,1.26680
281.57041,1.25743
281.32934,1.24809
281.08827,1.24077
280.84720,1.23984
280.60613,1.24394
280.36506,1.24709
280.12399,1.24800
279.88292,1.25274
279.64185,1.26227
279.40078,1.26561
279.15970,1.25619
278.91863,1.24661
278.67756,1.25133
278.43649,1.26510
278.19542,1.26905
277.95435,1.25623
277.71328,1.23889
277.47221,1.23201
277.23114,1.24100
276.99007,1.25988
276.74900,1.27600
276.50793,1.27876
276.26686,1.26905
276.02579,1.25991
275.78472,1.26264
275.54365,1.27573
275.30258,1.28743
275.06151,1.28980
274.82043,1.28601
274.57936,1.27776
274.33829,1.26092
274.09722,1.23802
273.85615,1.21918
273.61508,1.21298
273.37401,1.22504
273.13294,1.25510
272.89187,1.28736
272.65080,1.29695
272.40973,1.27932
272.16866,1.25379
271.92759,1.23626
271.68652,1.23030
271.44545,1.23531
271.20438,1.24715
270.96331,1.25612
270.72224,1.25779
270.48116,1.25902
270.24009,1.26435
269.99902,1.26852
269.75795,1.26772
269.51688,1.26508
269.27581,1.26464
269.03474,1.27282
268.79367,1.29518
268.55260,1.32663
268.31153,1.35708
268.07046,1.38077
267.82939,1.39173
267.58832,1.38302
267.34725,1.35700
267.10618,1.33177
266.86511,1.32486
266.62404,1.33516
266.38297,1.34897
266.14189,1.35601
265.90082,1.35712
265.65975,1.36015
265.41868,1.37020
265.17761,1.38486
264.93654,1.39532
264.69547,1.39662
264.45440,1.39686
264.21333,1.40704
263.97226,1.42224
263.73119,1.42528
263.49012,1.41456
263.24905,1.41059
263.00798,1.42741
262.76691,1.45512
262.52584,1.47515
262.28477,1.48790
262.04370,1.50690
261.80262,1.53509
261.56155,1.56366
261.32048,1.58809
261.07941,1.61475
260.83834,1.65032
260.59727,1.68860
260.35620,1.71514
260.11513,1.72893
259.87406,1.74211
259.63299,1.76052
259.39192,1.76651
259.15085,1.74143
258.90978,1.70373
258.66871,1.68659
258.42764,1.70926
258.18657,1.77762
257.94550,1.87733
257.70443,1.95863
257.46335,1.98695
257.22228,1.99487
256.98121,2.01012
256.74014,2.01015
256.49907,1.96188
256.25800,1.88887
256.01693,1.83008
255.77586,1.80751
255.53479,1.81196
255.29372,1.80832
255.05265,1.80704
254.81158,1.84584
254.57051,1.90995
254.32944,1.93990
254.08837,1.90522
253.84730,1.85372
253.60623,1.82000
253.36516,1.76836
253.12408,1.70730
252.88301,1.67574
252.64194,1.68728
252.40087,1.73766
252.15980,1.81025
251.91873,1.87458
251.67766,1.89422
251.43659,1.85874
251.19552,1.79970
250.95445,1.76203
250.71338,1.75384
250.47231,1.75122
250.23124,1.73829
249.99017,1.72048
249.74910,1.71182
249.50803,1.71085
249.26696,1.69922
249.02589,1.68324
248.78481,1.68888
248.54374,1.72452
248.30267,1.77486
248.06160,1.79698
247.82053,1.79030
247.57946,1.79182
247.33839,1.79440
247.09732,1.78326
246.85625,1.75782
246.61518,1.74184
246.37411,1.75952
246.13304,1.77676
245.89197,1.75479
245.65090,1.74965
245.40983,1.78978
245.16876,1.85654
244.92769,1.91159
244.68661,1.97637
244.44554,2.04847
244.20447,2.10390
243.96340,2.04891
243.72233,1.96852
243.48126,1.94763
243.24019,2.00340
242.99912,2.10353
242.75805,2.17221
242.51698,2.11127
242.27591,1.96705
242.03484,1.86421
241.79377,1.77933
241.55270,1.69225
241.31163,1.61416
241.07056,1.55157
240.82949,1.49468
240.58842,1.43496
240.34734,1.37768
240.10627,1.33111
239.86520,1.29781
239.62413,1.27523
239.38306,1.25921
239.14199,1.24658
238.90092,1.23313
238.65985,1.21440
238.41878,1.19095
238.17771,1.17019
237.93664,1.15819
237.69557,1.15225
237.45450,1.14251
237.21343,1.12416
236.97236,1.10515
236.73129,1.09043
236.49022,1.07187
236.24915,1.04201
236.00807,1.00962
235.76700,0.98869
235.52593,0.98125
235.28486,0.97839
235.04379,0.97476
234.80272,0.97619
234.56165,0.98857
234.32058,1.00736
234.07951,1.02290
233.83844,1.03372
233.59737,1.04219
233.35630,1.03931
233.11523,1.01381
232.87416,0.97580
232.63309,0.94729
232.39202,0.93702
232.15095,0.93645
231.90988,0.93537
231.66880,0.93390
231.42773,0.93699
231.18666,0.94439
230.94559,0.95060
230.70452,0.95195
230.46345,0.94693
230.22238,0.93446
229.98131,0.91748
229.74024,0.90359
229.49917,0.89892
229.25810,0.90310
229.01703,0.91096
228.77596,0.91769
228.53489,0.92073
228.29382,0.91864
228.05275,0.91495
227.81168,0.91687
227.57061,0.92153
227.32953,0.91639
227.08846,0.90057
226.84739,0.88602
226.60632,0.87802
226.36525,0.87539
226.12418,0.87960
225.88311,0.88930
225.64204,0.89455
225.40097,0.88889
225.15990,0.87980
224.91883,0.87461
224.67776,0.87216
224.43669,0.87225
224.19562,0.87742
223.95455,0.88586
223.71348,0.89185
223.47241,0.89361
223.23134,0.89496
222.99026,0.89969
222.74919,0.90691
222.50812,0.91203
222.26705,0.91285
222.02598,0.91207
221.78491,0.91298
221.54384,0.91633
221.30277,0.92110
221.06170,0.92576
220.82063,0.93058
220.57956,0.93774
220.33849,0.94777
220.09742,0.95889
219.85635,0.96867
219.61528,0.97353
219.37421,0.97204
219.13314,0.96915
218.89207,0.97136
218.65099,0.98234
218.40992,1.00334
218.16885,1.03054
217.92778,1.05239
217.68671,1.05710
217.44564,1.04631
217.20457,1.03305
216.96350,1.02966
216.72243,1.04322
216.48136,1.07717
216.24029,1.13010
215.99922,1.18511
215.75815,1.20612
215.51708,1.18311
215.27601,1.14716
215.03494,1.12193
214.79387,1.11722
214.55280,1.13467
214.31172,1.17097
214.07065,1.21845
213.82958,1.25609
213.58851,1.25956
213.34744,1.23862
213.10637,1.22051
212.86530,1.21971
212.62423,1.23577
212.38316,1.25642
212.14209,1.26527
211.90102,1.25536
211.65995,1.23777
211.41888,1.22845
211.17781,1.23317
210.93674,1.25083
210.69567,1.27607
210.45460,1.29234
210.21353,1.28314
209.97245,1.25908
209.73138,1.24260
209.49031,1.24681
209.24924,1.27385
209.00817,1.30189
208.76710,1.29757
208.52603,1.26224
208.28496,1.22360
208.04389,1.20175
207.80282,1.20165
207.56175,1.21797
207.32068,1.23783
207.07961,1.24365
206.83854,1.22792
206.59747,1.20130
206.35640,1.17973
206.11533,1.17376
205.87426,1.18640
205.63318,1.20222
205.39211,1.18937
205.15104,1.14860
204.90997,1.11123
204.66890,1.09374
204.42783,1.09427
204.18676,1.09958
203.94569,1.08892
203.70462,1.05873
203.46355,1.02984
203.22248,1.01842
202.98141,1.02302
202.74034,1.02873
202.49927,1.01926
202.25820,0.99113
202.01713,0.95590
201.77606,0.92899
201.53499,0.91827
201.29391,0.91983
201.05284,0.92137
200.81177,0.91150
200.57070,0.89105
200.32963,0.87214
200.08856,0.86531
199.84749,0.87063
199.60642,0.87680
199.36535,0.87074
199.12428,0.85375
198.88321,0.83924
198.64214,0.83545
198.40107,0.83778
198.16000,0.83041
197.91893,0.80473
197.67786,0.77629
197.43679,0.76352
197.19572,0.76836
196.95464,0.77552
196.71357,0.76650
196.47250,0.74577
196.23143,0.73211
195.99036,0.73250
195.74929,0.73847
195.50822,0.73625
195.26715,0.72326
195.02608,0.71148
194.78501,0.71106
194.54394,0.71865
194.30287,0.72092
194.06180,0.71060
193.82073,0.69462
193.57966,0.68263
193.33859,0.67659
193.09752,0.67234
192.85645,0.66751
192.61537,0.66439
192.37430,0.66450
192.13323,0.66430
191.89216,0.65879
191.65109,0.64890
191.41002,0.64071
191.16895,0.63618
190.92788,0.63072
190.68681,0.62267
190.44574,0.61772
190.20467,0.62019
189.96360,0.62530
189.72253,0.62538
189.48146,0.62205
189.24039,0.62272
188.99932,0.62766
188.75825,0.62978
188.51718,0.62741
188.27610,0.62772
188.03503,0.63286
187.79396,0.63287
187.55289,0.62144
187.31182,0.60949
187.07075,0.60727
186.82968,0.60863
186.58861,0.60228
186.34754,0.59072
186.10647,0.58486
185.86540,0.58655
185.62433,0.58841
185.38326,0.58712
185.14219,0.58823
184.90112,0.59513
184.66005,0.60231
184.41898,0.60519
184.17791,0.60865
183.93683,0.61723
183.69576,0.62499
183.45469,0.62522
183.21362,0.62216
182.97255,0.62094
182.73148,0.61852
182.49041,0.61284
182.24934,0.60844
182.00827,0.60721
181.76720,0.60610
181.52613,0.60590
181.28506,0.60972
181.04399,0.61466
180.80292,0.61737
180.56185,0.62231
180.32078,0.63157
180.07971,0.63780
179.83864,0.63753
179.59756,0.63737
179.35649,0.64176
179.11542,0.64847
178.87435,0.65459
178.63328,0.65781
178.39221,0.65641
178.15114,0.65285
177.91007,0.65242
177.66900,0.65793
177.42793,0.66895
177.18686,0.68408
176.94579,0.70316
176.70472,0.72715
176.46365,0.75463
176.22258,0.78082
175.98151,0.80223
175.74044,0.81847
175.49937,0.82920
175.25829,0.83643
175.01722,0.84560
174.77615,0.85864
174.53508,0.87099
174.29401,0.87790
174.05294,0.88123
173.81187,0.88957
173.57080,0.91133
173.32973,0.94412
173.08866,0.97259
172.84759,0.98309
172.60652,0.97644
172.36545,0.96226
172.12438,0.94921
171.88331,0.94119
171.64224,0.93825
171.40117,0.94125
171.16010,0.95218
170.91902,0.96949
170.67795,0.98620
170.43688,0.99359
170.19581,0.98823
169.95474,0.97573
169.71367,0.96345
169.47260,0.95132
169.23153,0.93572
168.99046,0.91829
168.74939,0.90509
168.50832,0.90051
168.26725,0.90486
168.02618,0.91547
167.78511,0.92899
167.54404,0.94267
167.30297,0.95229
167.06190,0.95306
166.82083,0.94704
166.57975,0.94100
166.33868,0.93642
166.09761,0.93255
165.85654,0.93374
165.61547,0.94484
165.37440,0.96380
165.13333,0.98293
164.89226,0.99154
164.65119,0.97939
164.41012,0.95315
164.16905,0.93361
163.92798,0.93430
163.68691,0.95675
163.44584,0.99478
163.20477,1.03608
162.96370,1.06133
162.72263,1.05281
162.48156,1.01781
162.24048,0.98206
161.99941,0.96161
161.75834,0.96122
161.51727,0.98283
161.27620,1.02270
161.03513,1.06332
160.79406,1.07839
160.55299,1.05808
160.31192,1.02074
160.07085,0.98977
159.82978,0.97852
159.58871,0.99061
159.34764,1.01756
159.10657,1.03841
158.86550,1.03556
158.62443,1.01547
158.38336,0.99623
158.14229,0.98523
157.90121,0.98112
157.66014,0.98098
157.41907,0.98016
157.17800,0.97262
156.93693,0.95574
156.69586,0.93496
156.45479,0.92265
156.21372,0.92804
155.97265,0.94301
155.73158,0.94344
155.49051,0.91845
155.24944,0.88747
155.00837,0.87384
154.76730,0.88209
154.52623,0.89983
154.28516,0.90804
154.04409,0.89533
153.80302,0.86892
153.56194,0.84322
153.32087,0.82603
153.07980,0.81799
152.83873,0.81450
152.59766,0.80698
152.35659,0.78878
152.11552,0.76227
151.87445,0.73687
151.63338,0.72089
151.39231,0.71608
151.15124,0.71571
150.91017,0.70826
150.66910,0.68875
150.42803,0.66504
150.18696,0.64903
149.94589,0.64492
149.70482,0.64568
149.46375,0.64053
149.22267,0.62763
148.98160,0.61487
148.74053,0.60885
148.49946,0.60761
148.25839,0.60318
148.01732,0.59263
147.77625,0.58320
147.53518,0.58183
147.29411,0.58639
147.05304,0.58881
146.81197,0.58467
146.57090,0.57851
146.32983,0.57718
146.08876,0.58149
145.84769,0.58589
145.60662,0.58525
145.36555,0.58181
145.12448,0.58257
144.88340,0.59074
144.64233,0.60246
144.40126,0.61173
144.16019,0.61663
143.91912,0.61905
143.67805,0.62061
143.43698,0.62126
143.19591,0.62070
142.95484,0.61871
142.71377,0.61365
142.47270,0.60286
142.23163,0.58703
141.99056,0.57173
141.74949,0.56080
141.50842,0.55152
141.26735,0.54069
141.02628,0.53182
140.78521,0.52997
140.54413,0.53373
140.30306,0.53726
140.06199,0.53869
139.82092,0.54034
139.57985,0.54203
139.33878,0.54053
139.09771,0.53616
138.85664,0.53459
138.61557,0.53905
138.37450,0.54591
138.13343,0.55182
137.89236,0.55995
137.65129,0.57365
137.41022,0.59061
137.16915,0.60849
136.92808,0.62861
136.68701,0.64819
136.44594,0.66035
136.20486,0.66778
135.96379,0.68166
135.72272,0.70505
135.48165,0.73155
135.24058,0.75812
134.99951,0.78655
134.75844,0.81648
134.51737,0.84708
134.27630,0.87817
134.03523,0.90530
133.79416,0.92469
133.55309,0.94237
133.31202,0.96605
133.07095,0.99240
132.82988,1.01288
132.58881,1.02842
132.34774,1.04681
132.10667,1.06890
131.86559,1.08655
131.62452,1.09445
131.38345,1.09876
131.14238,1.10665
130.90131,1.11814
130.66024,1.13175
130.41917,1.14337
130.17810,1.13996
129.93703,1.11073
129.69596,1.06456
129.45489,1.02061
129.21382,0.98651
128.97275,0.95359
128.73168,0.91257
128.49061,0.86723
128.24954,0.82574
128.00847,0.78878
127.76740,0.75415
127.52632,0.72440
127.28525,0.70307
127.04418,0.68712
126.80311,0.66844
126.56204,0.64390
126.32097,0.61951
126.07990,0.60151
125.83883,0.58857
125.59776,0.57693
125.35669,0.56815
125.11562,0.56539
124.87455,0.56601
124.63348,0.56345
124.39241,0.55446
124.15134,0.54138
123.91027,0.52859
123.66920,0.51762
123.42812,0.50538
123.18705,0.48935
122.94598,0.47309
122.70491,0.46261
122.46384,0.45917
122.22277,0.45860
121.98170,0.45677
121.74063,0.45443
121.49956,0.45572
121.25849,0.46263
121.01742,0.47349
120.77635,0.48667
120.53528,0.50181
120.29421,0.51748
120.05314,0.53183
119.81207,0.54467
119.57100,0.55623
119.32993,0.56629
119.08885,0.57623
118.84778,0.58940
118.60671,0.60809
118.36564,0.63148
118.12457,0.65681
117.88350,0.68176
117.64243,0.70819
117.40136,0.74355
117.16029,0.79359
116.91922,0.85062
116.67815,0.88803
116.43708,0.88127
116.19601,0.84674
115.95494,0.81330
115.71387,0.78598
115.47280,0.76006
115.23173,0.73632
114.99066,0.72013
114.74958,0.71409
114.50851,0.71392
114.26744,0.71313
114.02637,0.71185
113.78530,0.71563
113.54423,0.72469
113.30316,0.73003
113.06209,0.72199
112.82102,0.70054
112.57995,0.67526
112.33888,0.65596
112.09781,0.64617
111.85674,0.64567
111.61567,0.65516
111.37460,0.67684
111.13353,0.71155
110.89246,0.74740
110.65139,0.75571
110.41031,0.73073
110.16924,0.69684
109.92817,0.67084
109.68710,0.65829
109.44603,0.66169
109.20496,0.68124
108.96389,0.70991
108.72282,0.72189
108.48175,0.68427
108.24068,0.61859
107.99961,0.56204
107.75854,0.52700
107.51747,0.51729
107.27640,0.52955
107.03533,0.55085
106.79426,0.56078
106.55319,0.53891
106.31212,0.49219
106.07104,0.44692
105.82997,0.41955
105.58890,0.41559
105.34783,0.42956
105.10676,0.44388
104.86569,0.43819
104.62462,0.41084
104.38355,0.38156
104.14248,0.36491
103.90141,0.36236
103.66034,0.36890
103.41927,0.37386
103.17820,0.36737
102.93713,0.35126
102.69606,0.33496
102.45499,0.32686
102.21392,0.33036
101.97285,0.34053
101.73177,0.34402
101.49070,0.33126
101.24963,0.31001
101.00856,0.29487
100.76749,0.29477
100.52642,0.30821
100.28535,0.31908
100.04428,0.31116
99.80321,0.29373
99.56214,0.28579
99.32107,0.29358
99.08000,0.30699
98.83893,0.30389
98.59786,0.27870
98.35679,0.25428
98.11572,0.24905
97.87465,0.26050
97.63358,0.26835
97.39250,0.25914
97.15143,0.24820
96.91036,0.25394
96.66929,0.27536
96.42822,0.29247
96.18715,0.28910
95.94608,0.28108
95.70501,0.28864
95.46394,0.30756
95.22287,0.31822
94.98180,0.31643
94.74073,0.31891
94.49966,0.33240
94.25859,0.34201
94.01752,0.33493
93.77645,0.32428
93.53538,0.32764
93.29431,0.33948
93.05323,0.33974
92.81216,0.33105
92.57109,0.33386
92.33002,0.34876
92.08895,0.35293
91.84788,0.34473
91.60681,0.34877
91.36574,0.36655
91.12467,0.37719
90.88360,0.38087
90.64253,0.39664
90.40146,0.42414
90.16039,0.45152
89.91932,0.48503
89.67825,0.52922
89.43718,0.56949
89.19611,0.60296
88.95504,0.63706
88.71396,0.66108
88.47289,0.67180
88.23182,0.68293
87.99075,0.69139
87.74968,0.68580
87.50861,0.67275
87.26754,0.65954
87.02647,0.63480
86.78540,0.59042
86.54433,0.53896
86.30326,0.49556
86.06219,0.46445
85.82112,0.43953
85.58005,0.41395
85.33898,0.38816
85.09791,0.36510
84.85684,0.34315
84.61577,0.31923
84.37469,0.29387
84.13362,0.27038
83.89255,0.25264
83.65148,0.24313
83.41041,0.24050
83.16934,0.24017
82.92827,0.23765
82.68720,0.23147
82.44613,0.22437
82.20506,0.22085
81.96399,0.22242
81.72292,0.22646
81.48185,0.22968
81.24078,0.23092
80.99971,0.23063
80.75864,0.22943
80.51757,0.22765
80.27650,0.22618
80.03542,0.22577
79.79435,0.22471
79.55328,0.22071
79.31221,0.21519
79.07114,0.21233
78.83007,0.21369
78.58900,0.21618
78.34793,0.21513
78.10686,0.20773
77.86579,0.19556
77.62472,0.18449
77.38365,0.17992
77.14258,0.18158
76.90151,0.18383
76.66044,0.18125
76.41937,0.17389
76.17830,0.16622
75.93723,0.16237
75.69615,0.16337
75.45508,0.16714
75.21401,0.16898
74.97294,0.16466
74.73187,0.15532
74.49080,0.14794
74.24973,0.14926
74.00866,0.15981
73.76759,0.17429
73.52652,0.18630
73.28545,0.19158
73.04438,0.18961
72.80331,0.18522
72.56224,0.18462
72.32117,0.18808
72.08010,0.18895
71.83903,0.18062
71.59796,0.16349
71.35688,0.14412
71.11581,0.13073
70.87474,0.12955
70.63367,0.14223
70.39260,0.16681
70.15153,0.20204
69.91046,0.24812
69.66939,0.30152
69.42832,0.34720
69.18725,0.35951
68.94618,0.33127
68.70511,0.28638
68.46404,0.24837
68.22297,0.22387
67.98190,0.20806
67.74083,0.19540
67.49976,0.18430
67.25869,0.17408
67.01761,0.16223
66.77654,0.14707
66.53547,0.13080
66.29440,0.11755
66.05333,0.11033
65.81226,0.11023
65.57119,0.11612
65.33012,0.12533
65.08905,0.13673
64.84798,0.15199
64.60691,0.17248
64.36584,0.19620
64.12477,0.21945
63.88370,0.24032
63.64263,0.25779
63.40156,0.26892
63.16049,0.27050
62.91942,0.26245
62.67834,0.24703
62.43727,0.22606
62.19620,0.19994
61.95513,0.16884
61.71406,0.13473
61.47299,0.10101
61.23192,0.07093
60.99085,0.04740
60.74978,0.03374
60.50871,0.03337
60.26764,0.04736
60.02657,0.07178
59.78550,0.10011
59.54443,0.13098
59.30336,0.17012
59.06229,0.22095
58.82122,0.27043
58.58015,0.28087
58.33907,0.23865
58.09800,0.18355
57.85693,0.13682
57.61586,0.09941
57.37479,0.07123
57.13372,0.05626
56.89265,0.06050
56.65158,0.08826
56.41051,0.14219
56.16944,0.23346
55.92837,0.33295
55.68730,0.26481
55.44623,0.15847
55.20516,0.08850
54.96409,0.05099
54.72302,0.04041
54.48195,0.05884
54.24088,0.11818
53.99980,0.24149
53.75873,0.36936
53.51766,0.24590
53.27659,0.12430
53.03552,0.06033
52.79445,0.03570
52.55338,0.04805
52.31231,0.10476
52.07124,0.21524
51.83017,0.29027
51.58910,0.16264
51.34803,0.05293
51.10696,0.01803
50.86589,0.05419
50.62482,0.16620
50.38375,0.26991
50.14268,0.18038
49.90161,0.09232
49.66053,0.07381
49.41946,0.13393
49.17839,0.27181
48.93732,0.26055
48.69625,0.09983
48.45518,0.02842
48.21411,0.05648
47.97304,0.15635
47.73197,0.19708
47.49090,0.09365
47.24983,0.03563
47.00876,0.07325
46.76769,0.12467
46.52662,0.06879
46.28555,0.02597
46.04448,0.05973
45.80341,0.09620
45.56234,0.06974
45.32126,0.05969
45.08019,0.09645
44.83912,0.10620
44.59805,0.06083
44.35698,0.04409
44.11591,0.06911
43.87484,0.08775
43.63377,0.08475
43.39270,0.07731
43.15163,0.06584
42.91056,0.05472
42.66949,0.05622
42.42842,0.06699
42.18735,0.07867
41.94628,0.09587
41.70521,0.12217
41.46414,0.14430
41.22307,0.14082
40.98199,0.11585
40.74092,0.09771
40.49985,0.09749
40.25878,0.10230
40.01771,0.10516
39.77664,0.11037
39.53557,0.11289
39.29450,0.10775
39.05343,0.10168
38.81236,0.10055
38.57129,0.10647
38.33022,0.12080
38.08915,0.13724
37.84808,0.14311
37.60701,0.13063
37.36594,0.10542
37.12487,0.08795
36.88380,0.09485
36.64272,0.11879
36.40165,0.13742
36.16058,0.13993
35.91951,0.13130
35.67844,0.11879
35.43737,0.11151
35.19630,0.11899
34.95523,0.13911
34.71416,0.15681
34.47309,0.15363
34.23202,0.12964
33.99095,0.11424
33.74988,0.13025
33.50881,0.17057
33.26774,0.20030
33.02667,0.18203
32.78560,0.12203
32.54453,0.06237
32.30345,0.02417
32.06238,-0.00388
31.82131,-0.03130
31.58024,-0.04306
31.33917,-0.03500
31.09810,-0.02953
30.85703,-0.04476
30.61596,-0.07110
30.37489,-0.08714
30.13382,-0.09169
29.89275,-0.09476
29.65168,-0.09197
29.41061,-0.06206
29.16954,-0.00504
28.92847,0.05174
28.68740,0.08796
28.44633,0.10057
28.20526,0.08676
27.96418,0.05061
27.72311,0.01381
27.48204,-0.00847
27.24097,-0.01944
26.99990,-0.04111
26.75883,-0.08141
26.51776,-0.11385
26.27669,-0.11185
26.03562,-0.08628
25.79455,-0.07517
25.55348,-0.10403
25.31241,-0.17468
25.07134,-0.25328
24.83027,-0.28702
24.58920,-0.26044
24.34813,-0.20235
24.10706,-0.15347
23.86599,-0.11056
23.62491,-0.05987
23.38384,-0.02781
23.14277,-0.03188
22.90170,-0.07958
22.66063,-0.17146
22.41956,-0.26964
22.17849,-0.30138
21.93742,-0.26677
21.69635,-0.23752
21.45528,-0.24495
21.21421,-0.26857
20.97314,-0.29058
20.73207,-0.30358
20.49100,-0.30498
20.24993,-0.28633
20.00886,-0.23775
19.76779,-0.18864
19.52672,-0.19384
19.28564,-0.26712
19.04457,-0.34787
18.80350,-0.36816
18.56243,-0.33842
18.32136,-0.28249
18.08029,-0.22116
17.83922,-0.18315
17.59815,-0.18003
17.35708,-0.20592
17.11601,-0.24314
16.87494,-0.25490
16.63387,-0.22597
16.39280,-0.18201
16.15173,-0.14173
15.91066,-0.11230
15.66959,-0.09932
15.42852,-0.09538
15.18745,-0.08415
14.94637,-0.06576
14.70530,-0.06094
14.46423,-0.07971
14.22316,-0.11436
13.98209,-0.14444
13.74102,-0.15158
13.49995,-0.14248
13.25888,-0.12640
13.01781,-0.11158
12.77674,-0.12573
12.53567,-0.15101
12.29460,-0.12571
12.05353,-0.06470
11.81246,-0.02414
11.57139,-0.02022
11.33032,-0.05221
11.08925,-0.08571
10.84818,-0.07598
10.60710,-0.02262
10.36603,0.02250
10.12496,0.02767
9.88389,-0.01621
9.64282,-0.07766
9.40175,-0.11642
9.16068,-0.13318
8.91961,-0.14214
8.67854,-0.13541
8.43747,-0.09718
8.19640,-0.10852
7.95533,-0.16377
7.71426,-0.19223
7.47319,-0.15952
7.23212,-0.09724
6.99105,-0.06211
6.74998,-0.07612
6.50891,-0.12380
6.26783,-0.15277
6.02676,-0.14430
5.78569,-0.13249
5.54462,-0.13632
5.30355,-0.15328
5.06248,-0.16073
4.82141,-0.14624
4.58034,-0.12323
4.33927,-0.09668
4.09820,-0.06343
3.85713,-0.04215
3.61606,-0.05264
3.37499,-0.07987
3.13392,-0.08773
2.89285,-0.06308
2.65178,-0.04176
2.41071,-0.03770
2.16964,-0.04501
1.92856,-0.03729
1.68749,-0.02490
1.44642,-0.03054
1.20535,-0.06568
0.96428,-0.12883
0.72321,-0.18860
0.48214,-0.23006
0.24107,-0.23675
-0.00000,-0.05862
