399.69498,1.59477
399.45391,1.60415
399.21284,1.60889
398.97177,1.60339
398.73070,1.59628
398.48963,1.58956
398.24856,1.57330
398.00749,1.55024
397.76642,1.53526
397.52535,1.53258
397.28428,1.53456
397.04321,1.53783
396.80214,1.54713
396.56107,1.56094
396.32000,1.56856
396.07892,1.56661
395.83785,1.55928
395.59678,1.54883
395.35571,1.53891
395.11464,1.53510
394.87357,1.53829
394.63250,1.54241
394.39143,1.54284
394.15036,1.54090
393.90929,1.53996
393.66822,1.54206
393.42715,1.54400
393.18608,1.54066
392.94501,1.53690
392.70394,1.54433
392.46287,1.56214
392.22180,1.57187
391.98073,1.55961
391.73965,1.53482
391.49858,1.51755
391.25751,1.51880
391.01644,1.53195
390.77537,1.53989
390.53430,1.53633
390.29323,1.53044
390.05216,1.52717
389.81109,1.52556
389.57002,1.53396
389.32895,1.55844
389.08788,1.58076
388.84681,1.57578
388.60574,1.55296
388.36467,1.53436
388.12360,1.52008
387.88253,1.50631
387.64146,1.49672
387.40038,1.49098
387.15931,1.48047
386.91824,1.46179
386.67717,1.44657
386.43610,1.44509
386.19503,1.45004
385.95396,1.44916
385.71289,1.44233
385.47182,1.43775
385.23075,1.43181
384.98968,1.41517
384.74861,1.39894
384.50754,1.39979
384.26647,1.41179
384.02540,1.41478
383.78433,1.40358
383.54326,1.39300
383.30219,1.39346
383.06111,1.40034
382.82004,1.40048
382.57897,1.38133
382.33790,1.34516
382.09683,1.30697
381.85576,1.27685
381.61469,1.26080
381.37362,1.26455
381.13255,1.28542
380.89148,1.30957
380.65041,1.32398
380.40934,1.33092
380.16827,1.33972
379.92720,1.34776
379.68613,1.34394
379.44506,1.33196
379.20399,1.32770
378.96292,1.33905
378.72184,1.35805
378.48077,1.37238
378.23970,1.37941
377.99863,1.38193
377.75756,1.37953
377.51649,1.37445
377.27542,1.37270
377.03435,1.37306
376.79328,1.36853
376.55221,1.35826
376.31114,1.34909
376.07007,1.34823
375.82900,1.35829
375.58793,1.37427
375.34686,1.38936
375.10579,1.40537
374.86472,1.42690
374.62365,1.44881
374.38257,1.45928
374.14150,1.45572
373.90043,1.44713
373.65936,1.44176
373.41829,1.44072
373.17722,1.44070
372.93615,1.43818
372.69508,1.43328
372.45401,1.42765
372.21294,1.42186
371.97187,1.42087
371.73080,1.43187
371.48973,1.45046
371.24866,1.46169
371.00759,1.46210
370.76652,1.46283
370.52545,1.46739
370.28437,1.46686
370.04330,1.45686
369.80223,1.44464
369.56116,1.44024
369.32009,1.44771
369.07902,1.46099
368.83795,1.46772
368.59688,1.46257
368.35581,1.45173
368.11474,1.44328
367.87367,1.44042
367.63260,1.44058
367.39153,1.43509
367.15046,1.41603
366.90939,1.39017
366.66832,1.37575
366.42725,1.38131
366.18618,1.39739
365.94510,1.40908
365.70403,1.40953
365.46296,1.40090
365.22189,1.38920
364.98082,1.38054
364.73975,1.37860
364.49868,1.38167
364.25761,1.38264
364.01654,1.37684
363.77547,1.36727
363.53440,1.35783
363.29333,1.34862
363.05226,1.33916
362.81119,1.33197
362.57012,1.32932
362.32905,1.32884
362.08798,1.32731
361.84691,1.32536
361.60583,1.32602
361.36476,1.32799
361.12369,1.32577
360.88262,1.31806
360.64155,1.31123
360.40048,1.31175
360.15941,1.31801
359.91834,1.32352
359.67727,1.32427
359.43620,1.32008
359.19513,1.31334
358.95406,1.30849
358.71299,1.30923
358.47192,1.31305
358.23085,1.31218
357.98978,1.30369
357.74871,1.29495
357.50764,1.29605
357.26656,1.30727
357.02549,1.31675
356.78442,1.31407
356.54335,1.30267
356.30228,1.29175
356.06121,1.28459
355.82014,1.28019
355.57907,1.28027
355.33800,1.28877
355.09693,1.30512
354.85586,1.32221
354.61479,1.33164
354.37372,1.33019
354.13265,1.32231
353.89158,1.31400
353.65051,1.30746
353.40944,1.30250
353.16837,1.29804
352.92729,1.29422
352.68622,1.29387
352.44515,1.29996
352.20408,1.31081
351.96301,1.31835
351.72194,1.31479
351.48087,1.30250
351.23980,1.29127
350.99873,1.28705
350.75766,1.28730
350.51659,1.28656
350.27552,1.28396
350.03445,1.28308
349.79338,1.28469
349.55231,1.28445
349.31124,1.27969
349.07017,1.27498
348.82910,1.27951
348.58802,1.29772
348.34695,1.32266
348.10588,1.34099
347.86481,1.34472
347.62374,1.33626
347.38267,1.32216
347.14160,1.30728
346.90053,1.29441
346.65946,1.28599
346.41839,1.28522
346.17732,1.29355
345.93625,1.30803
345.69518,1.32341
345.45411,1.33602
345.21304,1.34490
344.97197,1.35060
344.73090,1.35436
344.48983,1.35771
344.24875,1.36106
344.00768,1.36205
343.76661,1.35818
343.52554,1.35049
343.28447,1.34343
343.04340,1.34130
342.80233,1.34244
342.56126,1.34215
342.32019,1.34271
342.07912,1.35147
341.83805,1.36783
341.59698,1.38136
341.35591,1.38412
341.11484,1.37967
340.87377,1.37856
340.63270,1.38735
340.39163,1.40210
340.15056,1.41123
339.90948,1.40960
339.66841,1.40576
339.42734,1.40957
339.18627,1.42092
338.94520,1.43220
338.70413,1.43590
338.46306,1.43032
338.22199,1.42113
337.98092,1.41539
337.73985,1.41393
337.49878,1.41552
337.25771,1.42195
337.01664,1.43144
336.77557,1.43668
336.53450,1.43434
336.29343,1.42681
336.05236,1.41704
335.81129,1.41155
335.57021,1.41962
335.32914,1.44195
335.08807,1.46497
334.84700,1.47210
334.60593,1.46323
334.36486,1.45088
334.12379,1.43961
333.88272,1.42626
333.64165,1.41149
333.40058,1.39859
333.15951,1.38708
332.91844,1.37461
332.67737,1.36204
332.43630,1.35503
332.19523,1.35797
331.95416,1.36540
331.71309,1.36617
331.47202,1.35744
331.23094,1.34782
330.98987,1.34631
330.74880,1.35472
330.50773,1.36660
330.26666,1.36989
330.02559,1.35579
329.78452,1.32798
329.54345,1.30108
329.30238,1.29026
329.06131,1.30047
328.82024,1.32124
328.57917,1.33417
328.33810,1.33070
328.09703,1.31750
327.85596,1.30417
327.61489,1.29695
327.37382,1.29992
327.13275,1.31261
326.89167,1.32818
326.65060,1.33664
326.40953,1.33236
326.16846,1.31882
325.92739,1.30604
325.68632,1.30384
325.44525,1.31424
325.20418,1.32695
324.96311,1.32684
324.72204,1.31429
324.48097,1.30913
324.23990,1.32400
323.99883,1.34419
323.75776,1.34493
323.51669,1.32826
323.27562,1.31713
323.03455,1.32012
322.79348,1.32822
322.55240,1.33532
322.31133,1.34618
322.07026,1.36738
321.82919,1.39621
321.58812,1.41485
321.34705,1.40354
321.10598,1.36749
320.86491,1.33487
320.62384,1.32454
320.38277,1.32975
320.14170,1.33303
319.90063,1.32822
319.65956,1.32067
319.41849,1.31597
319.17742,1.31917
318.93635,1.33118
318.69528,1.34274
318.45421,1.34582
318.21313,1.34155
317.97206,1.32942
317.73099,1.31014
317.48992,1.29707
317.24885,1.30179
317.00778,1.32004
316.76671,1.34261
316.52564,1.36486
316.28457,1.37942
316.04350,1.38099
315.80243,1.37565
315.56136,1.36641
315.32029,1.35260
315.07922,1.34350
314.83815,1.34392
314.59708,1.34613
314.35601,1.35372
314.11494,1.37473
313.87386,1.40091
313.63279,1.41642
313.39172,1.41601
313.15065,1.40213
312.90958,1.38413
312.66851,1.37960
312.42744,1.39758
312.18637,1.42675
311.94530,1.44282
311.70423,1.43001
311.46316,1.39943
311.22209,1.37825
310.98102,1.38231
310.73995,1.40847
310.49888,1.43986
310.25781,1.45752
310.01674,1.45748
309.77567,1.45264
309.53459,1.45328
309.29352,1.45308
309.05245,1.44225
308.81138,1.42103
308.57031,1.40218
308.32924,1.40307
308.08817,1.41718
307.84710,1.41708
307.60603,1.39352
307.36496,1.36877
307.12389,1.36483
306.88282,1.37902
306.64175,1.39448
306.40068,1.40057
306.15961,1.39533
305.91854,1.38360
305.67747,1.37837
305.43640,1.39102
305.19532,1.41754
304.95425,1.44011
304.71318,1.44776
304.47211,1.44582
304.23104,1.44288
303.98997,1.43983
303.74890,1.42713
303.50783,1.39889
303.26676,1.36870
303.02569,1.35758
302.78462,1.36948
302.54355,1.38797
302.30248,1.39859
302.06141,1.40341
301.82034,1.40556
301.57927,1.39745
301.33820,1.37687
301.09713,1.35473
300.85605,1.33990
300.61498,1.33288
300.37391,1.33224
300.13284,1.33560
299.89177,1.33772
299.65070,1.33707
299.40963,1.33791
299.16856,1.34194
298.92749,1.34540
298.68642,1.34460
298.44535,1.33635
298.20428,1.31680
297.96321,1.29055
297.72214,1.27278
297.48107,1.27224
297.24000,1.27969
296.99893,1.27999
296.75786,1.27220
296.51678,1.26837
296.27571,1.27319
296.03464,1.27529
295.79357,1.26339
295.55250,1.24215
295.31143,1.22557
295.07036,1.22349
294.82929,1.23543
294.58822,1.24998
294.34715,1.25342
294.10608,1.24526
293.86501,1.23695
293.62394,1.23427
293.38287,1.23155
293.14180,1.22315
292.90073,1.21238
292.65966,1.20798
292.41859,1.21421
292.17751,1.22507
291.93644,1.22956
291.69537,1.22417
291.45430,1.21623
291.21323,1.21257
290.97216,1.21140
290.73109,1.20743
290.49002,1.19951
290.24895,1.19116
290.00788,1.18605
289.76681,1.18485
289.52574,1.18620
289.28467,1.18814
289.04360,1.18942
288.80253,1.19042
288.56146,1.19131
288.32039,1.19103
288.07932,1.19013
287.83824,1.19176
287.59717,1.19617
287.35610,1.19790
287.11503,1.19247
286.87396,1.18208
286.63289,1.17204
286.39182,1.16408
286.15075,1.15717
285.90968,1.15248
285.66861,1.15301
285.42754,1.15839
285.18647,1.16344
284.94540,1.16404
284.70433,1.16154
284.46326,1.15891
284.22219,1.15601
283.98112,1.15135
283.74005,1.14635
283.49897,1.14535
283.25790,1.14997
283.01683,1.15691
282.77576,1.16241
282.53469,1.16672
282.29362,1.17228
282.05255,1.17916
281.81148,1.18415
281.57041,1.18374
281.32934,1.17802
281.08827,1.17076
280.84720,1.16554
280.60613,1.16320
280.36506,1.16320
280.12399,1.16385
279.88292,1.16146
279.64185,1.15425
279.40078,1.14661
279.15970,1.14509
278.91863,1.15124
278.67756,1.16085
278.43649,1.16852
278.19542,1.17146
277.95435,1.16965
277.71328,1.16551
277.47221,1.16325
277.23114,1.16518
276.99007,1.16911
276.74900,1.17068
276.50793,1.16812
276.26686,1.16478
276.02579,1.16482
275.78472,1.16740
275.54365,1.16866
275.30258,1.16687
275.06151,1.16319
274.82043,1.15969
274.57936,1.15814
274.33829,1.15909
274.09722,1.16115
273.85615,1.16255
273.61508,1.16312
273.37401,1.16314
273.13294,1.16256
272.89187,1.16194
272.65080,1.16258
272.40973,1.16630
272.16866,1.17429
271.92759,1.18463
271.68652,1.19218
271.44545,1.19249
271.20438,1.18548
270.96331,1.17552
270.72224,1.16883
270.48116,1.16954
270.24009,1.17734
269.99902,1.19012
269.75795,1.20637
269.51688,1.22239
269.27581,1.23054
269.03474,1.22743
268.79367,1.22163
268.55260,1.22437
268.31153,1.23600
268.07046,1.24839
267.82939,1.25628
267.58832,1.25947
267.34725,1.25696
267.10618,1.24825
266.86511,1.23875
266.62404,1.23691
266.38297,1.24596
266.14189,1.26086
265.90082,1.27363
265.65975,1.28208
265.41868,1.29095
265.17761,1.30345
264.93654,1.31555
264.69547,1.32186
264.45440,1.32402
264.21333,1.32808
263.97226,1.33655
263.73119,1.34716
263.49012,1.35691
263.24905,1.36513
263.00798,1.37394
262.76691,1.38635
262.52584,1.40290
262.28477,1.42058
262.04370,1.43481
261.80262,1.44265
261.56155,1.44913
261.32048,1.46600
261.07941,1.49939
260.83834,1.54042
260.59727,1.57149
260.35620,1.58689
260.11513,1.60009
259.87406,1.62199
259.63299,1.64757
259.39192,1.67160
259.15085,1.69533
258.90978,1.71587
258.66871,1.72600
258.42764,1.73099
258.18657,1.74797
257.94550,1.78295
257.70443,1.82355
257.46335,1.85275
257.22228,1.86129
256.98121,1.84572
256.74014,1.81996
256.49907,1.80802
256.25800,1.81378
256.01693,1.81912
255.77586,1.80355
255.53479,1.77104
255.29372,1.75038
255.05265,1.76069
254.81158,1.79139
254.57051,1.80654
254.32944,1.78147
254.08837,1.73556
253.84730,1.70105
253.60623,1.68555
253.36516,1.68067
253.12408,1.67852
252.88301,1.67555
252.64194,1.66752
252.40087,1.64725
252.15980,1.61462
251.91873,1.58184
251.67766,1.56253
251.43659,1.56098
251.19552,1.57305
250.95445,1.59252
250.71338,1.61327
250.47231,1.62924
250.23124,1.63947
249.99017,1.65218
249.74910,1.67343
249.50803,1.69360
249.26696,1.69231
249.02589,1.66328
248.78481,1.62302
248.54374,1.59183
248.30267,1.57712
248.06160,1.56901
247.82053,1.55529
247.57946,1.54125
247.33839,1.54021
247.09732,1.55543
246.85625,1.58037
246.61518,1.60746
246.37411,1.63043
246.13304,1.64469
245.89197,1.65343
245.65090,1.66283
245.40983,1.67250
245.16876,1.68272
244.92769,1.70248
244.68661,1.73958
244.44554,1.79100
244.20447,1.84789
243.96340,1.90440
243.72233,1.96184
243.48126,2.02455
243.24019,2.08408
242.99912,2.10661
242.75805,2.09353
242.51698,2.06488
242.27591,1.96025
242.03484,1.81684
241.79377,1.69353
241.55270,1.60418
241.31163,1.54774
241.07056,1.51328
240.82949,1.48145
240.58842,1.43671
240.34734,1.38187
240.10627,1.33228
239.86520,1.29700
239.62413,1.27097
239.38306,1.24381
239.14199,1.21349
238.90092,1.18656
238.65985,1.16573
238.41878,1.14564
238.17771,1.12287
237.93664,1.10226
237.69557,1.08778
237.45450,1.07575
237.21343,1.06215
236.97236,1.04957
236.73129,1.04130
236.49022,1.03392
236.24915,1.02219
236.00807,1.00706
235.76700,0.99362
235.52593,0.98341
235.28486,0.97366
235.04379,0.96286
234.80272,0.95318
234.56165,0.94702
234.32058,0.94453
234.07951,0.94410
233.83844,0.94301
233.59737,0.93843
233.35630,0.93092
233.11523,0.92508
232.87416,0.92409
232.63309,0.92617
232.39202,0.92766
232.15095,0.92681
231.90988,0.92353
231.66880,0.91794
231.42773,0.91077
231.18666,0.90325
230.94559,0.89628
230.70452,0.89083
230.46345,0.88833
230.22238,0.88951
229.98131,0.89295
229.74024,0.89525
229.49917,0.89338
229.25810,0.88772
229.01703,0.88104
228.77596,0.87488
228.53489,0.86913
228.29382,0.86324
228.05275,0.85709
227.81168,0.85278
227.57061,0.85404
227.32953,0.86066
227.08846,0.86683
226.84739,0.86808
226.60632,0.86573
226.36525,0.86236
226.12418,0.85865
225.88311,0.85569
225.64204,0.85462
225.40097,0.85496
225.15990,0.85715
224.91883,0.86231
224.67776,0.86789
224.43669,0.86905
224.19562,0.86515
223.95455,0.85995
223.71348,0.85644
223.47241,0.85466
223.23134,0.85402
222.99026,0.85521
222.74919,0.85942
222.50812,0.86617
222.26705,0.87329
222.02598,0.87975
221.78491,0.88602
221.54384,0.89171
221.30277,0.89551
221.06170,0.89737
220.82063,0.89853
220.57956,0.90068
220.33849,0.90572
220.09742,0.91434
219.85635,0.92518
219.61528,0.93656
219.37421,0.94797
219.13314,0.95877
218.89207,0.96758
218.65099,0.97479
218.40992,0.98349
218.16885,0.99559
217.92778,1.00875
217.68671,1.01958
217.44564,1.02743
217.20457,1.03294
216.96350,1.03718
216.72243,1.04368
216.48136,1.05602
216.24029,1.07353
215.99922,1.09329
215.75815,1.11333
215.51708,1.13058
215.27601,1.14151
215.03494,1.14733
214.79387,1.15220
214.55280,1.15820
214.31172,1.16477
214.07065,1.17119
213.82958,1.17808
213.58851,1.18604
213.34744,1.19402
213.10637,1.20070
212.86530,1.20654
212.62423,1.21346
212.38316,1.22387
212.14209,1.23843
211.90102,1.25252
211.65995,1.25678
211.41888,1.24649
211.17781,1.22889
210.93674,1.21586
210.69567,1.21395
210.45460,1.22339
210.21353,1.23884
209.97245,1.24828
209.73138,1.24041
209.49031,1.21865
209.24924,1.19914
209.00817,1.19458
208.76710,1.20398
208.52603,1.21428
208.28496,1.21273
208.04389,1.20094
207.80282,1.18955
207.56175,1.18399
207.32068,1.18241
207.07961,1.18083
206.83854,1.17721
206.59747,1.17121
206.35640,1.16260
206.11533,1.15239
205.87426,1.14367
205.63318,1.13834
205.39211,1.13309
205.15104,1.12180
204.90997,1.10306
204.66890,1.08203
204.42783,1.06469
204.18676,1.05310
203.94569,1.04521
203.70462,1.03617
203.46355,1.02197
203.22248,1.00431
202.98141,0.98869
202.74034,0.97699
202.49927,0.96549
202.25820,0.95135
202.01713,0.93640
201.77606,0.92370
201.53499,0.91398
201.29391,0.90562
201.05284,0.89555
200.81177,0.88199
200.57070,0.86773
200.32963,0.85784
200.08856,0.85357
199.84749,0.85017
199.60642,0.84155
199.36535,0.82677
199.12428,0.81052
198.88321,0.79760
198.64214,0.78877
198.40107,0.78103
198.16000,0.77167
197.91893,0.76211
197.67786,0.75633
197.43679,0.75564
197.19572,0.75611
196.95464,0.75120
196.71357,0.73895
196.47250,0.72477
196.23143,0.71501
195.99036,0.71059
195.74929,0.70715
195.50822,0.70056
195.26715,0.69109
195.02608,0.68190
194.78501,0.67529
194.54394,0.67088
194.30287,0.66670
194.06180,0.66174
193.82073,0.65708
193.57966,0.65383
193.33859,0.65106
193.09752,0.64679
192.85645,0.64105
192.61537,0.63572
192.37430,0.63111
192.13323,0.62540
191.89216,0.61875
191.65109,0.61484
191.41002,0.61557
191.16895,0.61690
190.92788,0.61379
190.68681,0.60759
190.44574,0.60371
190.20467,0.60344
189.96360,0.60267
189.72253,0.59868
189.48146,0.59423
189.24039,0.59256
188.99932,0.59220
188.75825,0.58988
188.51718,0.58606
188.27610,0.58346
188.03503,0.58241
187.79396,0.58111
187.55289,0.57930
187.31182,0.57842
187.07075,0.57885
186.82968,0.57937
186.58861,0.57904
186.34754,0.57827
186.10647,0.57754
185.86540,0.57645
185.62433,0.57467
185.38326,0.57296
185.14219,0.57228
184.90112,0.57268
184.66005,0.57401
184.41898,0.57628
184.17791,0.57916
183.93683,0.58230
183.69576,0.58551
183.45469,0.58771
183.21362,0.58810
182.97255,0.58816
182.73148,0.58922
182.49041,0.58979
182.24934,0.58873
182.00827,0.58785
181.76720,0.58791
181.52613,0.58696
181.28506,0.58512
181.04399,0.58564
180.80292,0.58980
180.56185,0.59528
180.32078,0.59985
180.07971,0.60331
179.83864,0.60628
179.59756,0.60946
179.35649,0.61341
179.11542,0.61809
178.87435,0.62279
178.63328,0.62714
178.39221,0.63208
178.15114,0.63906
177.91007,0.64798
177.66900,0.65720
177.42793,0.66629
177.18686,0.67677
176.94579,0.68941
176.70472,0.70302
176.46365,0.71675
176.22258,0.73180
175.98151,0.74932
175.74044,0.76772
175.49937,0.78416
175.25829,0.79868
175.01722,0.81419
174.77615,0.83176
174.53508,0.84880
174.29401,0.86291
174.05294,0.87471
173.81187,0.88616
173.57080,0.89829
173.32973,0.91058
173.08866,0.92152
172.84759,0.93006
172.60652,0.93702
172.36545,0.94436
172.12438,0.95222
171.88331,0.95727
171.64224,0.95598
171.40117,0.94999
171.16010,0.94454
170.91902,0.94221
170.67795,0.94150
170.43688,0.94094
170.19581,0.94157
169.95474,0.94437
169.71367,0.94695
169.47260,0.94467
169.23153,0.93469
168.99046,0.91900
168.74939,0.90340
168.50832,0.89318
168.26725,0.88982
168.02618,0.89155
167.78511,0.89557
167.54404,0.89919
167.30297,0.90034
167.06190,0.89842
166.82083,0.89454
166.57975,0.89028
166.33868,0.88706
166.09761,0.88690
165.85654,0.89197
165.61547,0.90297
165.37440,0.91781
165.13333,0.93159
164.89226,0.93908
164.65119,0.93956
164.41012,0.93781
164.16905,0.93915
163.92798,0.94537
163.68691,0.95534
163.44584,0.96749
163.20477,0.98060
162.96370,0.99235
162.72263,0.99948
162.48156,1.00157
162.24048,1.00240
161.99941,1.00513
161.75834,1.00843
161.51727,1.01049
161.27620,1.01304
161.03513,1.01691
160.79406,1.01815
160.55299,1.01265
160.31192,1.00209
160.07085,0.99266
159.82978,0.98980
159.58871,0.99436
159.34764,1.00186
159.10657,1.00408
158.86550,0.99442
158.62443,0.97528
158.38336,0.95717
158.14229,0.94959
157.90121,0.95388
157.66014,0.96284
157.41907,0.96642
157.17800,0.96012
156.93693,0.94760
156.69586,0.93534
156.45479,0.92792
156.21372,0.92604
155.97265,0.92616
155.73158,0.92311
155.49051,0.91450
155.24944,0.90241
155.00837,0.89117
154.76730,0.88353
154.52623,0.87798
154.28516,0.86984
154.04409,0.85560
153.80302,0.83616
153.56194,0.81606
153.32087,0.79994
153.07980,0.78916
152.83873,0.78032
152.59766,0.76825
152.35659,0.75193
152.11552,0.73572
151.87445,0.72385
151.63338,0.71564
151.39231,0.70655
151.15124,0.69308
150.91017,0.67653
150.66910,0.66138
150.42803,0.65029
150.18696,0.64114
149.94589,0.62979
149.70482,0.61554
149.46375,0.60220
149.22267,0.59358
148.98160,0.58943
148.74053,0.58617
148.49946,0.58087
148.25839,0.57429
148.01732,0.56934
147.77625,0.56696
147.53518,0.56472
147.29411,0.56029
147.05304,0.55510
146.81197,0.55276
146.57090,0.55487
146.32983,0.55972
146.08876,0.56432
145.84769,0.56685
145.60662,0.56799
145.36555,0.57015
145.12448,0.57455
144.88340,0.57946
144.64233,0.58284
144.40126,0.58551
144.16019,0.58911
143.91912,0.59303
143.67805,0.59570
143.43698,0.59669
143.19591,0.59527
142.95484,0.58967
142.71377,0.57988
142.47270,0.56896
142.23163,0.55974
141.99056,0.55202
141.74949,0.54375
141.50842,0.53440
141.26735,0.52626
141.02628,0.52144
140.78521,0.51891
140.54413,0.51612
140.30306,0.51271
140.06199,0.51042
139.82092,0.51002
139.57985,0.51124
139.33878,0.51437
139.09771,0.51931
138.85664,0.52424
138.61557,0.52795
138.37450,0.53218
138.13343,0.53932
137.89236,0.54938
137.65129,0.56067
137.41022,0.57197
137.16915,0.58338
136.92808,0.59612
136.68701,0.61131
136.44594,0.62857
136.20486,0.64719
135.96379,0.66829
135.72272,0.69358
135.48165,0.72213
135.24058,0.75072
134.99951,0.77734
134.75844,0.80253
134.51737,0.82788
134.27630,0.85472
134.03523,0.88388
133.79416,0.91512
133.55309,0.94680
133.31202,0.97593
133.07095,1.00086
132.82988,1.02394
132.58881,1.04821
132.34774,1.07226
132.10667,1.09114
131.86559,1.10196
131.62452,1.10847
131.38345,1.11669
131.14238,1.12320
130.90131,1.11617
130.66024,1.09362
130.41917,1.06970
130.17810,1.05579
129.93703,1.04667
129.69596,1.02888
129.45489,0.99718
129.21382,0.95827
128.97275,0.92167
128.73168,0.89132
128.49061,0.86355
128.24954,0.83162
128.00847,0.79409
127.76740,0.75754
127.52632,0.72880
127.28525,0.70745
127.04418,0.68858
126.80311,0.66973
126.56204,0.65103
126.32097,0.63183
126.07990,0.61164
125.83883,0.59224
125.59776,0.57552
125.35669,0.56096
125.11562,0.54696
124.87455,0.53344
124.63348,0.52161
124.39241,0.51221
124.15134,0.50475
123.91027,0.49858
123.66920,0.49346
123.42812,0.48884
123.18705,0.48359
122.94598,0.47712
122.70491,0.47016
122.46384,0.46426
122.22277,0.46049
121.98170,0.45886
121.74063,0.45898
121.49956,0.46075
121.25849,0.46369
121.01742,0.46679
120.77635,0.47012
120.53528,0.47527
120.29421,0.48299
120.05314,0.49222
119.81207,0.50212
119.57100,0.51335
119.32993,0.52714
119.08885,0.54431
118.84778,0.56551
118.60671,0.59193
118.36564,0.62507
118.12457,0.66410
117.88350,0.70442
117.64243,0.74078
117.40136,0.77061
117.16029,0.79256
116.91922,0.80423
116.67815,0.80422
116.43708,0.79476
116.19601,0.78024
115.95494,0.76513
115.71387,0.75332
115.47280,0.74693
115.23173,0.74425
114.99066,0.74086
114.74958,0.73443
114.50851,0.72545
114.26744,0.71342
114.02637,0.69762
113.78530,0.68040
113.54423,0.66522
113.30316,0.65324
113.06209,0.64491
112.82102,0.64226
112.57995,0.64771
112.33888,0.66158
112.09781,0.68144
111.85674,0.70225
111.61567,0.71666
111.37460,0.71829
111.13353,0.70802
110.89246,0.69429
110.65139,0.68463
110.41031,0.68045
110.16924,0.67977
109.92817,0.68122
109.68710,0.68358
109.44603,0.68271
109.20496,0.67256
108.96389,0.65090
108.72282,0.62283
108.48175,0.59693
108.24068,0.57887
107.99961,0.56869
107.75854,0.56250
107.51747,0.55555
107.27640,0.54380
107.03533,0.52538
106.79426,0.50229
106.55319,0.47998
106.31212,0.46408
106.07104,0.45624
105.82997,0.45154
105.58890,0.44152
105.34783,0.42309
105.10676,0.40246
104.86569,0.38790
104.62462,0.38222
104.38355,0.38214
104.14248,0.38151
103.90141,0.37542
103.66034,0.36410
103.41927,0.35200
103.17820,0.34289
102.93713,0.33754
102.69606,0.33449
102.45499,0.33080
102.21392,0.32454
101.97285,0.31726
101.73177,0.31220
101.49070,0.31074
101.24963,0.31162
101.00856,0.31106
100.76749,0.30517
100.52642,0.29499
100.28535,0.28652
100.04428,0.28403
99.80321,0.28548
99.56214,0.28554
99.32107,0.28204
99.08000,0.27756
98.83893,0.27506
98.59786,0.27465
98.35679,0.27394
98.11572,0.27079
97.87465,0.26673
97.63358,0.26629
97.39250,0.27126
97.15143,0.27667
96.91036,0.27595
96.66929,0.27116
96.42822,0.27092
96.18715,0.27863
95.94608,0.28817
95.70501,0.29306
95.46394,0.29638
95.22287,0.30374
94.98180,0.31263
94.74073,0.31644
94.49966,0.31591
94.25859,0.31756
94.01752,0.32213
93.77645,0.32416
93.53538,0.32271
93.29431,0.32398
93.05323,0.33006
92.81216,0.33408
92.57109,0.33150
92.33002,0.32738
92.08895,0.32639
91.84788,0.32758
91.60681,0.33089
91.36574,0.33787
91.12467,0.34700
90.88360,0.35840
90.64253,0.37735
90.40146,0.40522
90.16039,0.43648
89.91932,0.46921
89.67825,0.50732
89.43718,0.55066
89.19611,0.59539
88.95504,0.63956
88.71396,0.67799
88.47289,0.70268
88.23182,0.71341
87.99075,0.71431
87.74968,0.70388
87.50861,0.67888
87.26754,0.64150
87.02647,0.59765
86.78540,0.55238
86.54433,0.50938
86.30326,0.47241
86.06219,0.44383
85.82112,0.42169
85.58005,0.40110
85.33898,0.37894
85.09791,0.35547
84.85684,0.33235
84.61577,0.31154
84.37469,0.29444
84.13362,0.28080
83.89255,0.26953
83.65148,0.26014
83.41041,0.25249
83.16934,0.24603
82.92827,0.24021
82.68720,0.23500
82.44613,0.23093
82.20506,0.22842
81.96399,0.22686
81.72292,0.22475
81.48185,0.22116
81.24078,0.21716
80.99971,0.21489
80.75864,0.21475
80.51757,0.21452
80.27650,0.21218
80.03542,0.20832
79.79435,0.20470
79.55328,0.20199
79.31221,0.19984
79.07114,0.19806
78.83007,0.19725
78.58900,0.19814
78.34793,0.19996
78.10686,0.19994
77.86579,0.19615
77.62472,0.18972
77.38365,0.18311
77.14258,0.17769
76.90151,0.17402
76.66044,0.17259
76.41937,0.17309
76.17830,0.17389
75.93723,0.17327
75.69615,0.17098
75.45508,0.16795
75.21401,0.16480
74.97294,0.16164
74.73187,0.15934
74.49080,0.15959
74.24973,0.16294
74.00866,0.16770
73.76759,0.17158
73.52652,0.17371
73.28545,0.17418
73.04438,0.17341
72.80331,0.17244
72.56224,0.17234
72.32117,0.17264
72.08010,0.17151
71.83903,0.16807
71.59796,0.16330
71.35688,0.15889
71.11581,0.15617
70.87474,0.15575
70.63367,0.15810
70.39260,0.16475
70.15153,0.17773
69.91046,0.19724
69.66939,0.22029
69.42832,0.24142
69.18725,0.25438
68.94618,0.25464
68.70511,0.24222
68.46404,0.22228
68.22297,0.20229
67.98190,0.18753
67.74083,0.17859
67.49976,0.17290
67.25869,0.16805
67.01761,0.16338
66.77654,0.15895
66.53547,0.15431
66.29440,0.14902
66.05333,0.14414
65.81226,0.14227
65.57119,0.14528
65.33012,0.15287
65.08905,0.16336
64.84798,0.17499
64.60691,0.18601
64.36584,0.19504
64.12477,0.20114
63.88370,0.20294
63.64263,0.19972
63.40156,0.19340
63.16049,0.18743
62.91942,0.18372
62.67834,0.18211
62.43727,0.18171
62.19620,0.18135
61.95513,0.17979
61.71406,0.17622
61.47299,0.17070
61.23192,0.16359
60.99085,0.15494
60.74978,0.14486
60.50871,0.13438
60.26764,0.12492
60.02657,0.11689
59.78550,0.10990
59.54443,0.10413
59.30336,0.10109
59.06229,0.10249
58.82122,0.10866
58.58015,0.11887
58.33907,0.13379
58.09800,0.15529
57.85693,0.18111
57.61586,0.19986
57.37479,0.19844
57.13372,0.17770
56.89265,0.14886
56.65158,0.12157
56.41051,0.10239
56.16944,0.09563
55.92837,0.10290
55.68730,0.12342
55.44623,0.15378
55.20516,0.18331
54.96409,0.19250
54.72302,0.17281
54.48195,0.13991
54.24088,0.11354
53.99980,0.10571
53.75873,0.12082
53.51766,0.15572
53.27659,0.19546
53.03552,0.20963
52.79445,0.18297
52.55338,0.14373
52.31231,0.12249
52.07124,0.13208
51.83017,0.17132
51.58910,0.21241
51.34803,0.20393
51.10696,0.15575
50.86589,0.12137
50.62482,0.12201
50.38375,0.15393
50.14268,0.19232
49.90161,0.19150
49.66053,0.15133
49.41946,0.12095
49.17839,0.12670
48.93732,0.15684
48.69625,0.16372
48.45518,0.13248
48.21411,0.11438
47.97304,0.14041
47.73197,0.18789
47.49090,0.18696
47.24983,0.14296
47.00876,0.12350
46.76769,0.13656
46.52662,0.13688
46.28555,0.11381
46.04448,0.10447
45.80341,0.11265
45.56234,0.11398
45.32126,0.10867
45.08019,0.11227
44.83912,0.11842
44.59805,0.11671
44.35698,0.11578
44.11591,0.12145
43.87484,0.12779
43.63377,0.13427
43.39270,0.14174
43.15163,0.14286
42.91056,0.13738
42.66949,0.13671
42.42842,0.14632
42.18735,0.15944
41.94628,0.16522
41.70521,0.16131
41.46414,0.15488
41.22307,0.15223
40.98199,0.15275
40.74092,0.15261
40.49985,0.15024
40.25878,0.14856
40.01771,0.15470
39.77664,0.17220
39.53557,0.19350
39.29450,0.20485
39.05343,0.20264
38.81236,0.19902
38.57129,0.20794
38.33022,0.22984
38.08915,0.25055
37.84808,0.25669
37.60701,0.24988
37.36594,0.23921
37.12487,0.22673
36.88380,0.20944
36.64272,0.19083
36.40165,0.18106
36.16058,0.18441
35.91951,0.19293
35.67844,0.19840
35.43737,0.20021
35.19630,0.19684
34.95523,0.18862
34.71416,0.18426
34.47309,0.18615
34.23202,0.18613
33.99095,0.18659
33.74988,0.20090
33.50881,0.22632
33.26774,0.24101
33.02667,0.23517
32.78560,0.22481
32.54453,0.22544
32.30345,0.23382
32.06238,0.24051
31.82131,0.23972
31.58024,0.22756
31.33917,0.20496
31.09810,0.18260
30.85703,0.17300
30.61596,0.17561
30.37489,0.17584
30.13382,0.16252
29.89275,0.14278
29.65168,0.13191
29.41061,0.13753
29.16954,0.15391
28.92847,0.16577
28.68740,0.15969
28.44633,0.14030
28.20526,0.12914
27.96418,0.13467
27.72311,0.14301
27.48204,0.13871
27.24097,0.12136
26.99990,0.10437
26.75883,0.09860
26.51776,0.09699
26.27669,0.07979
26.03562,0.03860
25.79455,-0.00942
25.55348,-0.03556
25.31241,-0.02948
25.07134,-0.01230
24.83027,-0.00477
24.58920,0.00165
24.34813,0.02286
24.10706,0.05014
23.86599,0.06229
23.62491,0.05041
23.38384,0.01745
23.14277,-0.02962
22.90170,-0.07412
22.66063,-0.09130
22.41956,-0.07132
22.17849,-0.03176
21.93742,-0.00263
21.69635,-0.00524
21.45528,-0.03642
21.21421,-0.06762
20.97314,-0.07052
20.73207,-0.04440
20.49100,-0.01307
20.24993,-0.00046
20.00886,-0.01344
19.76779,-0.04274
19.52672,-0.07490
19.28564,-0.10002
19.04457,-0.11329
18.80350,-0.11422
18.56243,-0.10631
18.32136,-0.09742
18.08029,-0.09868
17.83922,-0.11706
17.59815,-0.14885
17.35708,-0.18355
17.11601,-0.20823
16.87494,-0.20709
16.63387,-0.17943
16.39280,-0.14612
16.15173,-0.12704
15.91066,-0.13275
15.66959,-0.15934
15.42852,-0.18564
15.18745,-0.19062
14.94637,-0.17747
14.70530,-0.16521
14.46423,-0.16305
14.22316,-0.16071
13.98209,-0.14417
13.74102,-0.11680
13.49995,-0.09258
13.25888,-0.08354
13.01781,-0.09486
12.77674,-0.11991
12.53567,-0.14646
12.29460,-0.17304
12.05353,-0.20477
11.81246,-0.23649
11.57139,-0.25439
11.33032,-0.25063
11.08925,-0.23633
10.84818,-0.22589
10.60710,-0.22058
10.36603,-0.21119
10.12496,-0.18755
9.88389,-0.15571
9.64282,-0.14233
9.40175,-0.16689
9.16068,-0.21502
8.91961,-0.24753
8.67854,-0.25348
8.43747,-0.25321
8.19640,-0.25093
7.95533,-0.23297
7.71426,-0.19947
7.47319,-0.17066
7.23212,-0.15676
6.99105,-0.15363
6.74998,-0.16254
6.50891,-0.19080
6.26783,-0.23574
6.02676,-0.27826
5.78569,-0.29002
5.54462,-0.26928
5.30355,-0.24216
5.06248,-0.22794
4.82141,-0.22681
4.58034,-0.22602
4.33927,-0.21541
4.09820,-0.19646
3.85713,-0.18102
3.61606,-0.17737
3.37499,-0.17950
3.13392,-0.17967
2.89285,-0.18085
2.65178,-0.18822
2.41071,-0.20884
2.16964,-0.24293
1.92856,-0.26756
1.68749,-0.26528
1.44642,-0.23196
1.20535,-0.19037
0.96428,-0.16447
0.72321,-0.17149
0.48214,-0.23197
0.24107,-0.27296
-0.00000,-0.21844
