399.69498,1.57333
399.45391,1.57788
399.21284,1.57455
398.97177,1.56371
398.73070,1.54663
398.48963,1.53248
398.24856,1.53217
398.00749,1.54166
397.76642,1.54714
397.52535,1.54794
397.28428,1.55420
397.04321,1.56532
396.80214,1.57044
396.56107,1.56711
396.32000,1.56553
396.07892,1.57255
395.83785,1.58079
395.59678,1.57779
395.35571,1.56376
395.11464,1.55339
394.87357,1.55872
394.63250,1.57518
394.39143,1.58429
394.15036,1.57334
393.90929,1.55113
393.66822,1.53455
393.42715,1.52905
393.18608,1.52956
392.94501,1.53232
392.70394,1.53612
392.46287,1.53885
392.22180,1.54125
391.98073,1.54716
391.73965,1.55489
391.49858,1.55503
391.25751,1.54409
391.01644,1.53052
390.77537,1.52072
390.53430,1.51255
390.29323,1.50424
390.05216,1.49958
389.81109,1.50164
389.57002,1.50622
389.32895,1.50722
389.08788,1.50526
388.84681,1.50478
388.60574,1.50646
388.36467,1.50585
388.12360,1.49811
387.88253,1.48851
387.64146,1.48793
387.40038,1.49678
387.15931,1.50531
386.91824,1.50151
386.67717,1.48087
386.43610,1.45452
386.19503,1.43838
385.95396,1.43691
385.71289,1.43931
385.47182,1.42982
385.23075,1.40672
384.98968,1.38204
384.74861,1.36436
384.50754,1.35276
384.26647,1.34150
384.02540,1.32739
383.78433,1.31375
383.54326,1.30531
383.30219,1.30274
383.06111,1.30295
382.82004,1.30166
382.57897,1.29776
382.33790,1.29487
382.09683,1.29505
381.85576,1.29451
381.61469,1.29039
381.37362,1.28741
381.13255,1.29123
380.89148,1.30035
380.65041,1.30876
380.40934,1.31260
380.16827,1.31317
379.92720,1.31243
379.68613,1.30898
379.44506,1.30206
379.20399,1.29464
378.96292,1.29107
378.72184,1.29675
378.48077,1.31592
378.23970,1.34245
377.99863,1.35953
377.75756,1.36011
377.51649,1.35679
377.27542,1.36004
377.03435,1.36455
376.79328,1.36331
376.55221,1.35946
376.31114,1.35673
376.07007,1.35207
375.82900,1.34594
375.58793,1.34584
375.34686,1.35574
375.10579,1.37229
374.86472,1.38979
374.62365,1.40625
374.38257,1.42148
374.14150,1.43374
373.90043,1.44264
373.65936,1.45005
373.41829,1.45360
373.17722,1.44669
372.93615,1.43033
372.69508,1.41508
372.45401,1.40652
372.21294,1.40140
371.97187,1.39829
371.73080,1.39841
371.48973,1.39825
371.24866,1.39345
371.00759,1.38737
370.76652,1.38619
370.52545,1.38873
370.28437,1.38778
370.04330,1.38077
369.80223,1.37380
369.56116,1.37301
369.32009,1.37821
369.07902,1.38687
368.83795,1.39936
368.59688,1.41492
368.35581,1.42676
368.11474,1.42732
367.87367,1.41479
367.63260,1.39258
367.39153,1.36565
367.15046,1.34202
366.90939,1.33320
366.66832,1.34276
366.42725,1.35965
366.18618,1.36869
365.94510,1.36402
365.70403,1.35018
365.46296,1.33464
365.22189,1.32364
364.98082,1.32010
364.73975,1.32183
364.49868,1.32356
364.25761,1.32051
364.01654,1.31350
363.77547,1.31048
363.53440,1.31849
363.29333,1.33317
363.05226,1.34020
362.81119,1.33167
362.57012,1.31498
362.32905,1.30102
362.08798,1.29293
361.84691,1.28867
361.60583,1.28724
361.36476,1.28916
361.12369,1.29304
360.88262,1.29591
360.64155,1.29688
360.40048,1.29676
360.15941,1.29560
359.91834,1.29302
359.67727,1.28974
359.43620,1.28755
359.19513,1.28771
358.95406,1.28943
358.71299,1.29012
358.47192,1.28854
358.23085,1.28626
357.98978,1.28433
357.74871,1.28037
357.50764,1.27207
357.26656,1.26300
357.02549,1.26011
356.78442,1.26433
356.54335,1.26902
356.30228,1.26945
356.06121,1.26796
355.82014,1.26828
355.57907,1.27149
355.33800,1.27684
355.09693,1.28144
354.85586,1.28178
354.61479,1.27765
354.37372,1.27270
354.13265,1.27100
353.89158,1.27373
353.65051,1.27729
353.40944,1.27417
353.16837,1.26277
352.92729,1.25282
352.68622,1.25223
352.44515,1.25658
352.20408,1.25734
351.96301,1.25447
351.72194,1.25435
351.48087,1.26038
351.23980,1.27053
350.99873,1.28017
350.75766,1.28528
350.51659,1.28529
350.27552,1.28356
350.03445,1.28390
349.79338,1.28636
349.55231,1.28746
349.31124,1.28534
349.07017,1.28291
348.82910,1.28402
348.58802,1.28806
348.34695,1.29143
348.10588,1.29349
347.86481,1.29626
347.62374,1.29709
347.38267,1.29186
347.14160,1.28561
346.90053,1.28764
346.65946,1.29681
346.41839,1.30201
346.17732,1.29774
345.93625,1.29008
345.69518,1.28783
345.45411,1.29375
345.21304,1.30330
344.97197,1.31207
344.73090,1.32114
344.48983,1.33129
344.24875,1.33801
344.00768,1.33667
343.76661,1.32983
343.52554,1.32568
343.28447,1.33083
343.04340,1.34526
342.80233,1.36085
342.56126,1.36705
342.32019,1.36170
342.07912,1.35185
341.83805,1.34545
341.59698,1.34670
341.35591,1.35545
341.11484,1.36806
340.87377,1.37897
340.63270,1.38289
340.39163,1.37855
340.15056,1.37223
339.90948,1.37342
339.66841,1.38331
339.42734,1.39137
339.18627,1.38975
338.94520,1.38666
338.70413,1.39414
338.46306,1.41032
338.22199,1.42488
337.98092,1.43402
337.73985,1.43774
337.49878,1.43245
337.25771,1.41986
337.01664,1.41143
336.77557,1.41404
336.53450,1.41958
336.29343,1.41706
336.05236,1.40797
335.81129,1.40135
335.57021,1.40280
335.32914,1.40974
335.08807,1.41224
334.84700,1.40461
334.60593,1.39473
334.36486,1.39184
334.12379,1.39175
333.88272,1.38477
333.64165,1.37366
333.40058,1.37086
333.15951,1.38037
332.91844,1.39159
332.67737,1.39156
332.43630,1.37920
332.19523,1.36469
331.95416,1.35756
331.71309,1.35922
331.47202,1.36264
331.23094,1.35675
330.98987,1.33911
330.74880,1.32020
330.50773,1.31076
330.26666,1.31000
330.02559,1.30807
329.78452,1.29849
329.54345,1.28479
329.30238,1.27591
329.06131,1.27834
328.82024,1.29047
328.57917,1.30324
328.33810,1.30976
328.09703,1.31100
327.85596,1.30918
327.61489,1.30397
327.37382,1.29775
327.13275,1.29673
326.89167,1.30212
326.65060,1.30498
326.40953,1.29625
326.16846,1.27994
325.92739,1.26816
325.68632,1.26684
325.44525,1.27322
325.20418,1.28320
324.96311,1.29443
324.72204,1.30337
324.48097,1.30576
324.23990,1.30120
323.99883,1.29301
323.75776,1.28423
323.51669,1.27668
323.27562,1.27208
323.03455,1.27157
322.79348,1.27381
322.55240,1.27613
322.31133,1.27788
322.07026,1.28110
321.82919,1.28803
321.58812,1.29899
321.34705,1.31258
321.10598,1.32561
320.86491,1.33644
320.62384,1.34551
320.38277,1.35033
320.14170,1.34701
319.90063,1.33799
319.65956,1.33105
319.41849,1.32777
319.17742,1.32104
318.93635,1.30760
318.69528,1.29506
318.45421,1.29228
318.21313,1.30044
317.97206,1.31507
317.73099,1.33208
317.48992,1.34795
317.24885,1.35636
317.00778,1.35065
316.76671,1.33250
316.52564,1.31314
316.28457,1.30337
316.04350,1.30713
315.80243,1.32111
315.56136,1.33760
315.32029,1.34635
315.07922,1.34203
314.83815,1.33357
314.59708,1.33269
314.35601,1.34041
314.11494,1.34779
313.87386,1.34711
313.63279,1.33929
313.39172,1.32825
313.15065,1.32014
312.90958,1.32189
312.66851,1.33373
312.42744,1.34850
312.18637,1.35899
311.94530,1.36249
311.70423,1.36068
311.46316,1.35845
311.22209,1.35957
310.98102,1.36345
310.73995,1.36950
310.49888,1.37922
310.25781,1.39190
310.01674,1.40300
309.77567,1.40709
309.53459,1.40335
309.29352,1.39712
309.05245,1.39244
308.81138,1.38693
308.57031,1.37757
308.32924,1.36831
308.08817,1.36604
307.84710,1.37020
307.60603,1.37271
307.36496,1.36958
307.12389,1.36559
306.88282,1.36555
306.64175,1.36813
306.40068,1.36800
306.15961,1.36502
305.91854,1.36742
305.67747,1.38072
305.43640,1.39800
305.19532,1.40350
304.95425,1.39032
304.71318,1.37067
304.47211,1.35855
304.23104,1.35364
303.98997,1.34855
303.74890,1.34122
303.50783,1.33232
303.26676,1.32039
303.02569,1.30950
302.78462,1.30783
302.54355,1.31374
302.30248,1.31819
302.06141,1.31839
301.82034,1.31859
301.57927,1.32266
301.33820,1.33151
301.09713,1.34319
300.85605,1.35038
300.61498,1.34526
300.37391,1.33238
300.13284,1.32367
299.89177,1.32082
299.65070,1.31488
299.40963,1.30222
299.16856,1.28875
298.92749,1.27920
298.68642,1.27409
298.44535,1.27384
298.20428,1.27785
297.96321,1.28278
297.72214,1.28571
297.48107,1.28530
297.24000,1.27981
296.99893,1.26973
296.75786,1.25986
296.51678,1.25392
296.27571,1.25080
296.03464,1.24788
295.79357,1.24389
295.55250,1.23815
295.31143,1.23128
295.07036,1.22513
294.82929,1.21987
294.58822,1.21467
294.34715,1.21131
294.10608,1.21188
293.86501,1.21308
293.62394,1.20884
293.38287,1.19940
293.14180,1.19203
292.90073,1.19194
292.65966,1.19685
292.41859,1.20119
292.17751,1.20185
291.93644,1.19927
291.69537,1.19578
291.45430,1.19393
291.21323,1.19411
290.97216,1.19420
290.73109,1.19238
290.49002,1.18894
290.24895,1.18540
290.00788,1.18331
289.76681,1.18381
289.52574,1.18632
289.28467,1.18775
289.04360,1.18494
288.80253,1.17861
288.56146,1.17316
288.32039,1.17240
288.07932,1.17587
287.83824,1.17854
287.59717,1.17564
287.35610,1.16811
287.11503,1.16097
286.87396,1.15773
286.63289,1.15777
286.39182,1.15821
286.15075,1.15708
285.90968,1.15457
285.66861,1.15177
285.42754,1.14982
285.18647,1.14976
284.94540,1.15142
284.70433,1.15250
284.46326,1.15016
284.22219,1.14396
283.98112,1.13653
283.74005,1.13184
283.49897,1.13281
283.25790,1.13882
283.01683,1.14558
282.77576,1.14901
282.53469,1.14905
282.29362,1.14813
282.05255,1.14789
281.81148,1.14922
281.57041,1.15109
281.32934,1.15027
281.08827,1.14625
280.84720,1.14374
280.60613,1.14595
280.36506,1.14951
280.12399,1.15026
279.88292,1.14918
279.64185,1.14816
279.40078,1.14576
279.15970,1.14163
278.91863,1.13964
278.67756,1.14307
278.43649,1.14968
278.19542,1.15413
277.95435,1.15451
277.71328,1.15407
277.47221,1.15612
277.23114,1.16022
276.99007,1.16352
276.74900,1.16374
276.50793,1.16128
276.26686,1.15865
276.02579,1.15822
275.78472,1.16075
275.54365,1.16506
275.30258,1.16806
275.06151,1.16675
274.82043,1.16178
274.57936,1.15713
274.33829,1.15566
274.09722,1.15701
273.85615,1.15970
273.61508,1.16272
273.37401,1.16482
273.13294,1.16523
272.89187,1.16601
272.65080,1.17032
272.40973,1.17733
272.16866,1.18221
271.92759,1.18256
271.68652,1.18136
271.44545,1.18171
271.20438,1.18272
270.96331,1.18266
270.72224,1.18228
270.48116,1.18276
270.24009,1.18366
269.99902,1.18481
269.75795,1.18718
269.51688,1.19153
269.27581,1.19766
269.03474,1.20511
268.79367,1.21330
268.55260,1.22072
268.31153,1.22569
268.07046,1.22843
267.82939,1.23134
267.58832,1.23664
267.34725,1.24387
267.10618,1.25031
266.86511,1.25504
266.62404,1.26115
266.38297,1.27196
266.14189,1.28615
265.90082,1.29825
265.65975,1.30362
265.41868,1.30166
265.17761,1.29593
264.93654,1.29381
264.69547,1.30143
264.45440,1.31667
264.21333,1.33048
263.97226,1.33846
263.73119,1.34690
263.49012,1.36391
263.24905,1.38764
263.00798,1.40591
262.76691,1.40856
262.52584,1.39950
262.28477,1.39374
262.04370,1.40412
261.80262,1.43110
261.56155,1.46262
261.32048,1.48563
261.07941,1.50016
260.83834,1.51688
260.59727,1.54324
260.35620,1.57912
260.11513,1.61968
259.87406,1.65773
259.63299,1.68678
259.39192,1.70470
259.15085,1.71597
258.90978,1.72632
258.66871,1.74056
258.42764,1.76298
258.18657,1.79021
257.94550,1.80895
257.70443,1.81023
257.46335,1.80502
257.22228,1.81073
256.98121,1.82535
256.74014,1.83139
256.49907,1.82461
256.25800,1.81808
256.01693,1.82187
255.77586,1.83213
255.53479,1.83292
255.29372,1.81067
255.05265,1.77437
254.81158,1.74175
254.57051,1.70918
254.32944,1.66594
254.08837,1.62397
253.84730,1.60652
253.60623,1.61450
253.36516,1.62383
253.12408,1.61711
252.88301,1.60409
252.64194,1.60455
252.40087,1.62121
252.15980,1.63390
251.91873,1.62315
251.67766,1.59494
251.43659,1.57013
251.19552,1.56036
250.95445,1.56305
250.71338,1.57143
250.47231,1.58173
250.23124,1.58921
249.99017,1.58677
249.74910,1.57455
249.50803,1.55895
249.26696,1.54538
249.02589,1.53904
248.78481,1.54494
248.54374,1.56061
248.30267,1.57328
248.06160,1.57282
247.82053,1.56572
247.57946,1.56566
247.33839,1.57660
247.09732,1.59263
246.85625,1.60783
246.61518,1.61960
246.37411,1.62416
246.13304,1.61872
245.89197,1.60543
245.65090,1.59237
245.40983,1.59391
245.16876,1.61934
244.92769,1.66282
244.68661,1.70971
244.44554,1.75027
244.20447,1.78600
243.96340,1.82232
243.72233,1.85658
243.48126,1.88554
243.24019,1.91897
242.99912,1.96112
242.75805,1.99694
242.51698,2.02318
242.27591,2.04048
242.03484,1.94338
241.79377,1.80276
241.55270,1.70442
241.31163,1.63493
241.07056,1.57268
240.82949,1.51125
240.58842,1.45225
240.34734,1.40109
240.10627,1.36225
239.86520,1.33258
239.62413,1.30417
239.38306,1.27479
239.14199,1.24724
238.90092,1.22087
238.65985,1.19305
238.41878,1.16471
238.17771,1.13995
237.93664,1.12144
237.69557,1.10730
237.45450,1.09272
237.21343,1.07491
236.97236,1.05560
236.73129,1.03844
236.49022,1.02550
236.24915,1.01631
236.00807,1.00861
235.76700,0.99959
235.52593,0.98824
235.28486,0.97688
235.04379,0.96847
234.80272,0.96244
234.56165,0.95526
234.32058,0.94604
234.07951,0.93822
233.83844,0.93427
233.59737,0.93229
233.35630,0.92962
233.11523,0.92668
232.87416,0.92509
232.63309,0.92369
232.39202,0.91942
232.15095,0.91239
231.90988,0.90676
231.66880,0.90520
231.42773,0.90538
231.18666,0.90387
230.94559,0.90086
230.70452,0.89793
230.46345,0.89424
230.22238,0.88862
229.98131,0.88298
229.74024,0.88013
229.49917,0.87991
229.25810,0.87984
229.01703,0.87789
228.77596,0.87352
228.53489,0.86777
228.29382,0.86267
228.05275,0.85915
227.81168,0.85636
227.57061,0.85412
227.32953,0.85340
227.08846,0.85401
226.84739,0.85459
226.60632,0.85432
226.36525,0.85265
226.12418,0.84898
225.88311,0.84384
225.64204,0.83867
225.40097,0.83456
225.15990,0.83247
224.91883,0.83300
224.67776,0.83598
224.43669,0.84108
224.19562,0.84797
223.95455,0.85508
223.71348,0.85960
223.47241,0.86039
223.23134,0.85955
222.99026,0.86006
222.74919,0.86318
222.50812,0.86748
222.26705,0.87004
222.02598,0.87008
221.78491,0.87040
221.54384,0.87380
221.30277,0.87982
221.06170,0.88591
220.82063,0.89065
220.57956,0.89505
220.33849,0.90105
220.09742,0.90930
219.85635,0.91881
219.61528,0.92860
219.37421,0.93846
219.13314,0.94811
218.89207,0.95727
218.65099,0.96658
218.40992,0.97670
218.16885,0.98797
217.92778,1.00171
217.68671,1.01881
217.44564,1.03550
217.20457,1.04580
216.96350,1.05017
216.72243,1.05592
216.48136,1.06781
216.24029,1.08378
215.99922,1.10050
215.75815,1.11677
215.51708,1.13172
215.27601,1.14521
215.03494,1.15812
214.79387,1.16994
214.55280,1.17842
214.31172,1.18298
214.07065,1.18584
213.82958,1.18884
213.58851,1.19234
213.34744,1.19642
213.10637,1.20143
212.86530,1.20859
212.62423,1.22005
212.38316,1.23666
212.14209,1.25583
211.90102,1.27255
211.65995,1.28193
211.41888,1.28178
211.17781,1.27489
210.93674,1.26771
210.69567,1.26447
210.45460,1.26326
210.21353,1.26018
209.97245,1.25578
209.73138,1.25394
209.49031,1.25608
209.24924,1.26010
209.00817,1.26296
208.76710,1.26148
208.52603,1.25343
208.28496,1.24064
208.04389,1.22978
207.80282,1.22734
207.56175,1.23310
207.32068,1.23787
207.07961,1.23040
206.83854,1.20908
206.59747,1.18331
206.35640,1.16270
206.11533,1.14992
205.87426,1.14220
205.63318,1.13572
205.39211,1.12848
205.15104,1.12045
204.90997,1.11116
204.66890,1.09841
204.42783,1.08135
204.18676,1.06319
203.94569,1.04845
203.70462,1.03913
203.46355,1.03465
203.22248,1.03314
202.98141,1.03145
202.74034,1.02550
202.49927,1.01239
202.25820,0.99240
202.01713,0.96888
201.77606,0.94703
201.53499,0.93116
201.29391,0.92120
201.05284,0.91296
200.81177,0.90281
200.57070,0.89035
200.32963,0.87663
200.08856,0.86266
199.84749,0.84993
199.60642,0.83913
199.36535,0.82873
199.12428,0.81681
198.88321,0.80423
198.64214,0.79368
198.40107,0.78600
198.16000,0.77881
197.91893,0.76972
197.67786,0.75973
197.43679,0.75157
197.19572,0.74520
196.95464,0.73760
196.71357,0.72713
196.47250,0.71603
196.23143,0.70784
195.99036,0.70398
195.74929,0.70248
195.50822,0.69929
195.26715,0.69119
195.02608,0.67882
194.78501,0.66630
194.54394,0.65796
194.30287,0.65538
194.06180,0.65651
193.82073,0.65721
193.57966,0.65429
193.33859,0.64809
193.09752,0.64182
192.85645,0.63833
192.61537,0.63679
192.37430,0.63356
192.13323,0.62673
191.89216,0.61852
191.65109,0.61295
191.41002,0.61155
191.16895,0.61149
190.92788,0.60860
190.68681,0.60227
190.44574,0.59568
190.20467,0.59133
189.96360,0.58849
189.72253,0.58529
189.48146,0.58181
189.24039,0.57982
188.99932,0.57984
188.75825,0.58012
188.51718,0.57872
188.27610,0.57581
188.03503,0.57332
187.79396,0.57240
187.55289,0.57192
187.31182,0.57006
187.07075,0.56730
186.82968,0.56606
186.58861,0.56720
186.34754,0.56889
186.10647,0.56925
185.86540,0.56894
185.62433,0.56951
185.38326,0.57056
185.14219,0.57053
184.90112,0.56967
184.66005,0.56977
184.41898,0.57108
184.17791,0.57208
183.93683,0.57215
183.69576,0.57242
183.45469,0.57345
183.21362,0.57414
182.97255,0.57357
182.73148,0.57260
182.49041,0.57268
182.24934,0.57375
182.00827,0.57472
181.76720,0.57542
181.52613,0.57665
181.28506,0.57843
181.04399,0.57971
180.80292,0.58005
180.56185,0.58049
180.32078,0.58244
180.07971,0.58598
179.83864,0.59002
179.59756,0.59421
179.35649,0.59952
179.11542,0.60630
178.87435,0.61373
178.63328,0.62135
178.39221,0.62947
178.15114,0.63842
177.91007,0.64827
177.66900,0.65872
177.42793,0.66911
177.18686,0.67901
176.94579,0.68846
176.70472,0.69811
176.46365,0.70943
176.22258,0.72331
175.98151,0.73860
175.74044,0.75489
175.49937,0.77436
175.25829,0.79675
175.01722,0.81698
174.77615,0.83242
174.53508,0.84646
174.29401,0.86125
174.05294,0.87520
173.81187,0.88930
173.57080,0.90676
173.32973,0.92642
173.08866,0.94420
172.84759,0.95953
172.60652,0.97303
172.36545,0.98139
172.12438,0.98181
171.88331,0.97758
171.64224,0.97330
171.40117,0.96991
171.16010,0.96741
170.91902,0.96652
170.67795,0.96555
170.43688,0.96101
170.19581,0.95281
169.95474,0.94460
169.71367,0.93832
169.47260,0.93292
169.23153,0.92784
168.99046,0.92405
168.74939,0.92106
168.50832,0.91613
168.26725,0.90832
168.02618,0.90075
167.78511,0.89691
167.54404,0.89673
167.30297,0.89811
167.06190,0.90051
166.82083,0.90497
166.57975,0.91126
166.33868,0.91695
166.09761,0.92051
165.85654,0.92382
165.61547,0.92977
165.37440,0.93819
165.13333,0.94612
164.89226,0.95127
164.65119,0.95365
164.41012,0.95451
164.16905,0.95642
163.92798,0.96306
163.68691,0.97524
163.44584,0.98841
163.20477,0.99732
162.96370,1.00249
162.72263,1.00876
162.48156,1.01831
162.24048,1.02831
161.99941,1.03504
161.75834,1.03757
161.51727,1.03720
161.27620,1.03514
161.03513,1.03129
160.79406,1.02532
160.55299,1.01867
160.31192,1.01421
160.07085,1.01350
159.82978,1.01520
159.58871,1.01666
159.34764,1.01639
159.10657,1.01451
158.86550,1.01121
158.62443,1.00615
158.38336,1.00022
158.14229,0.99543
157.90121,0.99185
157.66014,0.98714
157.41907,0.98022
157.17800,0.97291
156.93693,0.96664
156.69586,0.96029
156.45479,0.95234
156.21372,0.94336
155.97265,0.93551
155.73158,0.93005
155.49051,0.92580
155.24944,0.92016
155.00837,0.91164
154.76730,0.90045
154.52623,0.88720
154.28516,0.87280
154.04409,0.85849
153.80302,0.84439
153.56194,0.82948
153.32087,0.81397
153.07980,0.80018
152.83873,0.78940
152.59766,0.77901
152.35659,0.76456
152.11552,0.74479
151.87445,0.72323
151.63338,0.70451
151.39231,0.69059
151.15124,0.68065
150.91017,0.67252
150.66910,0.66354
150.42803,0.65182
150.18696,0.63775
149.94589,0.62347
149.70482,0.61102
149.46375,0.60117
149.22267,0.59343
148.98160,0.58640
148.74053,0.57892
148.49946,0.57100
148.25839,0.56343
148.01732,0.55711
147.77625,0.55281
147.53518,0.55093
147.29411,0.55078
147.05304,0.55049
146.81197,0.54879
146.57090,0.54672
146.32983,0.54666
146.08876,0.55000
145.84769,0.55588
145.60662,0.56200
145.36555,0.56669
145.12448,0.57038
144.88340,0.57473
144.64233,0.58028
144.40126,0.58542
144.16019,0.58805
143.91912,0.58800
143.67805,0.58712
143.43698,0.58674
143.19591,0.58592
142.95484,0.58284
142.71377,0.57704
142.47270,0.56948
142.23163,0.56105
141.99056,0.55204
141.74949,0.54275
141.50842,0.53382
141.26735,0.52603
141.02628,0.51997
140.78521,0.51542
140.54413,0.51170
140.30306,0.50898
140.06199,0.50818
139.82092,0.50945
139.57985,0.51189
139.33878,0.51467
139.09771,0.51771
138.85664,0.52144
138.61557,0.52642
138.37450,0.53272
138.13343,0.53970
137.89236,0.54704
137.65129,0.55551
137.41022,0.56608
137.16915,0.57890
136.92808,0.59392
136.68701,0.61138
136.44594,0.63085
136.20486,0.65098
135.96379,0.67152
135.72272,0.69448
135.48165,0.72160
135.24058,0.75123
134.99951,0.77988
134.75844,0.80664
134.51737,0.83367
134.27630,0.86253
134.03523,0.89200
133.79416,0.91946
133.55309,0.94388
133.31202,0.96809
133.07095,0.99767
132.82988,1.03566
132.58881,1.07792
132.34774,1.11485
132.10667,1.13938
131.86559,1.15292
131.62452,1.16122
131.38345,1.16520
131.14238,1.16147
130.90131,1.15068
130.66024,1.13696
130.41917,1.12060
130.17810,1.09963
129.93703,1.07585
129.69596,1.05228
129.45489,1.02686
129.21382,0.99450
128.97275,0.95461
128.73168,0.91227
128.49061,0.87306
128.24954,0.83889
128.00847,0.80771
127.76740,0.77707
127.52632,0.74740
127.28525,0.72092
127.04418,0.69828
126.80311,0.67785
126.56204,0.65769
126.32097,0.63699
126.07990,0.61624
125.83883,0.59689
125.59776,0.58029
125.35669,0.56632
125.11562,0.55367
124.87455,0.54099
124.63348,0.52749
124.39241,0.51316
124.15134,0.49918
123.91027,0.48746
123.66920,0.47893
123.42812,0.47287
123.18705,0.46781
122.94598,0.46272
122.70491,0.45732
122.46384,0.45210
122.22277,0.44797
121.98170,0.44552
121.74063,0.44455
121.49956,0.44466
121.25849,0.44626
121.01742,0.45033
120.77635,0.45707
120.53528,0.46553
120.29421,0.47482
120.05314,0.48497
119.81207,0.49682
119.57100,0.51135
119.32993,0.52916
119.08885,0.55014
118.84778,0.57388
118.60671,0.60056
118.36564,0.63082
118.12457,0.66408
117.88350,0.69743
117.64243,0.72770
117.40136,0.75389
117.16029,0.77588
116.91922,0.79224
116.67815,0.80219
116.43708,0.80734
116.19601,0.80842
115.95494,0.80373
115.71387,0.79299
115.47280,0.77901
115.23173,0.76415
114.99066,0.74859
114.74958,0.73260
114.50851,0.71781
114.26744,0.70526
114.02637,0.69389
113.78530,0.68267
113.54423,0.67342
113.30316,0.66988
113.06209,0.67332
112.82102,0.68023
112.57995,0.68528
112.33888,0.68688
112.09781,0.68868
111.85674,0.69458
111.61567,0.70379
111.37460,0.71278
111.13353,0.72044
110.89246,0.72785
110.65139,0.73375
110.41031,0.73410
110.16924,0.72661
109.92817,0.71266
109.68710,0.69484
109.44603,0.67456
109.20496,0.65276
108.96389,0.63125
108.72282,0.61166
108.48175,0.59423
108.24068,0.57862
107.99961,0.56461
107.75854,0.55130
107.51747,0.53722
107.27640,0.52189
107.03533,0.50628
106.79426,0.49137
106.55319,0.47737
106.31212,0.46395
106.07104,0.45050
105.82997,0.43651
105.58890,0.42270
105.34783,0.41068
105.10676,0.40115
104.86569,0.39362
104.62462,0.38766
104.38355,0.38301
104.14248,0.37858
103.90141,0.37313
103.66034,0.36637
103.41927,0.35820
103.17820,0.34800
102.93713,0.33578
102.69606,0.32339
102.45499,0.31354
102.21392,0.30800
101.97285,0.30643
101.73177,0.30652
101.49070,0.30543
101.24963,0.30204
101.00856,0.29745
100.76749,0.29264
100.52642,0.28673
100.28535,0.27908
100.04428,0.27189
99.80321,0.26839
99.56214,0.26928
99.32107,0.27172
99.08000,0.27127
98.83893,0.26565
98.59786,0.25734
98.35679,0.25149
98.11572,0.25130
97.87465,0.25575
97.63358,0.26029
97.39250,0.26055
97.15143,0.25694
96.91036,0.25471
96.66929,0.25908
96.42822,0.27054
96.18715,0.28356
95.94608,0.29067
95.70501,0.29091
95.46394,0.29142
95.22287,0.29831
94.98180,0.30966
94.74073,0.31766
94.49966,0.31757
94.25859,0.31378
94.01752,0.31351
93.77645,0.31786
93.53538,0.32155
93.29431,0.32107
93.05323,0.31952
92.81216,0.32073
92.57109,0.32311
92.33002,0.32219
92.08895,0.31815
91.84788,0.31624
91.60681,0.31950
91.36574,0.32566
91.12467,0.33253
90.88360,0.34279
90.64253,0.36014
90.40146,0.38466
90.16039,0.41410
89.91932,0.44767
89.67825,0.48690
89.43718,0.53145
89.19611,0.57611
88.95504,0.61733
88.71396,0.65775
88.47289,0.69380
88.23182,0.71082
87.99075,0.70402
87.74968,0.68355
87.50861,0.65345
87.26754,0.61298
87.02647,0.57001
86.78540,0.53218
86.54433,0.49770
86.30326,0.46385
86.06219,0.43353
85.82112,0.40844
85.58005,0.38574
85.33898,0.36369
85.09791,0.34368
84.85684,0.32612
84.61577,0.30972
84.37469,0.29476
84.13362,0.28315
83.89255,0.27463
83.65148,0.26639
83.41041,0.25667
83.16934,0.24679
82.92827,0.23884
82.68720,0.23316
82.44613,0.22835
82.20506,0.22305
81.96399,0.21745
81.72292,0.21295
81.48185,0.21026
81.24078,0.20859
80.99971,0.20683
80.75864,0.20469
80.51757,0.20239
80.27650,0.19993
80.03542,0.19710
79.79435,0.19385
79.55328,0.19052
79.31221,0.18779
79.07114,0.18609
78.83007,0.18490
78.58900,0.18297
78.34793,0.17947
78.10686,0.17476
77.86579,0.16987
77.62472,0.16568
77.38365,0.16257
77.14258,0.16036
76.90151,0.15860
76.66044,0.15733
76.41937,0.15690
76.17830,0.15686
75.93723,0.15620
75.69615,0.15500
75.45508,0.15440
75.21401,0.15471
74.97294,0.15492
74.73187,0.15472
74.49080,0.15557
74.24973,0.15866
74.00866,0.16251
73.76759,0.16397
73.52652,0.16171
73.28545,0.15785
73.04438,0.15570
72.80331,0.15653
72.56224,0.15864
72.32117,0.15900
72.08010,0.15660
71.83903,0.15383
71.59796,0.15390
71.35688,0.15784
71.11581,0.16413
70.87474,0.17008
70.63367,0.17353
70.39260,0.17460
70.15153,0.17637
69.91046,0.18307
69.66939,0.19674
69.42832,0.21494
69.18725,0.23127
68.94618,0.23857
68.70511,0.23333
68.46404,0.21808
68.22297,0.19966
67.98190,0.18448
67.74083,0.17499
67.49976,0.17017
67.25869,0.16784
67.01761,0.16571
66.77654,0.16161
66.53547,0.15446
66.29440,0.14517
66.05333,0.13608
65.81226,0.12950
65.57119,0.12708
65.33012,0.13024
65.08905,0.13994
64.84798,0.15545
64.60691,0.17424
64.36584,0.19330
64.12477,0.20941
63.88370,0.21864
63.64263,0.21817
63.40156,0.20887
63.16049,0.19488
62.91942,0.18088
62.67834,0.16995
62.43727,0.16297
62.19620,0.15882
61.95513,0.15556
61.71406,0.15179
61.47299,0.14697
61.23192,0.14116
60.99085,0.13565
60.74978,0.13329
60.50871,0.13617
60.26764,0.14306
60.02657,0.15063
59.78550,0.15637
59.54443,0.15923
59.30336,0.15839
59.06229,0.15387
58.82122,0.14774
58.58015,0.14285
58.33907,0.14022
58.09800,0.13860
57.85693,0.13655
57.61586,0.13380
57.37479,0.13010
57.13372,0.12484
56.89265,0.11858
56.65158,0.11295
56.41051,0.10856
56.16944,0.10538
55.92837,0.10473
55.68730,0.10875
55.44623,0.11777
55.20516,0.12996
54.96409,0.14285
54.72302,0.15459
54.48195,0.16428
54.24088,0.17179
53.99980,0.17712
53.75873,0.17945
53.51766,0.17703
53.27659,0.16867
53.03552,0.15490
52.79445,0.13792
52.55338,0.12179
52.31231,0.11182
52.07124,0.11205
51.83017,0.12389
51.58910,0.14642
51.34803,0.17483
51.10696,0.19598
50.86589,0.19277
50.62482,0.16536
50.38375,0.13289
50.14268,0.11149
49.90161,0.10853
49.66053,0.12737
49.41946,0.16696
49.17839,0.20875
48.93732,0.20918
48.69625,0.16526
48.45518,0.12804
48.21411,0.12487
47.97304,0.15706
47.73197,0.19772
47.49090,0.19169
47.24983,0.14932
47.00876,0.12730
46.76769,0.14200
46.52662,0.17092
46.28555,0.17465
46.04448,0.15332
45.80341,0.14197
45.56234,0.14900
45.32126,0.15081
45.08019,0.13357
44.83912,0.12049
44.59805,0.12885
44.35698,0.14098
44.11591,0.13745
43.87484,0.13568
43.63377,0.14647
43.39270,0.15083
43.15163,0.14254
42.91056,0.14099
42.66949,0.14849
42.42842,0.15142
42.18735,0.15282
41.94628,0.16157
41.70521,0.16963
41.46414,0.16799
41.22307,0.16421
40.98199,0.16603
40.74092,0.16865
40.49985,0.16855
40.25878,0.17292
40.01771,0.18593
39.77664,0.19888
39.53557,0.20267
39.29450,0.20075
39.05343,0.20227
38.81236,0.21223
38.57129,0.23171
38.33022,0.25697
38.08915,0.27760
37.84808,0.28336
37.60701,0.27283
37.36594,0.25489
37.12487,0.24225
36.88380,0.23999
36.64272,0.24398
36.40165,0.24892
36.16058,0.25258
35.91951,0.25503
35.67844,0.25713
35.43737,0.25859
35.19630,0.25752
34.95523,0.25299
34.71416,0.24740
34.47309,0.24476
34.23202,0.24527
33.99095,0.24418
33.74988,0.23999
33.50881,0.23933
33.26774,0.24566
33.02667,0.25006
32.78560,0.24472
32.54453,0.23754
32.30345,0.23802
32.06238,0.24253
31.82131,0.24301
31.58024,0.23710
31.33917,0.22616
31.09810,0.21200
30.85703,0.19773
30.61596,0.18634
30.37489,0.17673
30.13382,0.16584
29.89275,0.15586
29.65168,0.15310
29.41061,0.15654
29.16954,0.15702
28.92847,0.14951
28.68740,0.13898
28.44633,0.13186
28.20526,0.12621
27.96418,0.11757
27.72311,0.10852
27.48204,0.10407
27.24097,0.09927
26.99990,0.08328
26.75883,0.05644
26.51776,0.03034
26.27669,0.01146
26.03562,-0.00298
25.79455,-0.01452
25.55348,-0.01925
25.31241,-0.01408
25.07134,-0.00534
24.83027,-0.00735
24.58920,-0.02345
24.34813,-0.03787
24.10706,-0.03872
23.86599,-0.03547
23.62491,-0.04817
23.38384,-0.08218
23.14277,-0.11799
22.90170,-0.13309
22.66063,-0.12806
22.41956,-0.11899
22.17849,-0.11391
21.93742,-0.11137
21.69635,-0.11164
21.45528,-0.11748
21.21421,-0.12793
20.97314,-0.13976
20.73207,-0.15317
20.49100,-0.16968
20.24993,-0.18390
20.00886,-0.18772
19.76779,-0.18381
19.52672,-0.17973
19.28564,-0.17640
19.04457,-0.17307
18.80350,-0.17461
18.56243,-0.18231
18.32136,-0.18922
18.08029,-0.19004
17.83922,-0.18523
17.59815,-0.18092
17.35708,-0.18489
17.11601,-0.19683
16.87494,-0.20914
16.63387,-0.21640
16.39280,-0.21781
16.15173,-0.21421
15.91066,-0.20638
15.66959,-0.19565
15.42852,-0.18820
15.18745,-0.19123
14.94637,-0.20155
14.70530,-0.20985
14.46423,-0.21865
14.22316,-0.23714
13.98209,-0.25987
13.74102,-0.27284
13.49995,-0.27308
13.25888,-0.27035
13.01781,-0.27307
12.77674,-0.27980
12.53567,-0.28566
12.29460,-0.29164
12.05353,-0.29811
11.81246,-0.29475
11.57139,-0.27530
11.33032,-0.25027
11.08925,-0.23475
10.84818,-0.23520
10.60710,-0.24816
10.36603,-0.26093
10.12496,-0.26149
9.88389,-0.25477
9.64282,-0.25531
9.40175,-0.26573
9.16068,-0.27755
8.91961,-0.28482
8.67854,-0.29020
8.43747,-0.30276
8.19640,-0.32904
7.95533,-0.36317
7.71426,-0.38727
7.47319,-0.38513
7.23212,-0.36404
6.99105,-0.35281
6.74998,-0.36408
6.50891,-0.37936
6.26783,-0.37281
6.02676,-0.35341
5.78569,-0.34894
5.54462,-0.35652
5.30355,-0.35629
5.06248,-0.35486
4.82141,-0.35020
4.58034,-0.34654
4.33927,-0.33929
4.09820,-0.33527
3.85713,-0.34844
3.61606,-0.36634
3.37499,-0.36236
3.13392,-0.35500
2.89285,-0.36769
2.65178,-0.39356
2.41071,-0.40713
2.16964,-0.40348
1.92856,-0.39951
1.68749,-0.37691
1.44642,-0.37297
1.20535,-0.38392
0.96428,-0.38224
0.72321,-0.39273
0.48214,-0.44666
0.24107,-0.44220
-0.00000,-0.29340
