399.69498,1.63337
399.45391,1.65250
399.21284,1.64116
398.97177,1.60630
398.73070,1.56724
398.48963,1.53758
398.24856,1.52654
398.00749,1.54019
397.76642,1.57352
397.52535,1.60713
397.28428,1.62192
397.04321,1.61832
396.80214,1.61524
396.56107,1.62505
396.32000,1.63855
396.07892,1.63653
395.83785,1.61378
395.59678,1.58646
395.35571,1.57236
395.11464,1.57463
394.87357,1.58263
394.63250,1.58047
394.39143,1.56176
394.15036,1.53762
393.90929,1.52413
393.66822,1.52941
393.42715,1.55440
393.18608,1.59082
392.94501,1.61784
392.70394,1.62480
392.46287,1.61944
392.22180,1.60241
391.98073,1.57793
391.73965,1.55910
391.49858,1.54973
391.25751,1.54368
391.01644,1.53401
390.77537,1.52273
390.53430,1.52082
390.29323,1.53475
390.05216,1.55635
389.81109,1.56348
389.57002,1.54259
389.32895,1.50899
389.08788,1.48546
388.84681,1.47618
388.60574,1.47092
388.36467,1.46141
388.12360,1.44908
387.88253,1.44362
387.64146,1.45266
387.40038,1.47619
387.15931,1.50440
386.91824,1.51126
386.67717,1.48061
386.43610,1.43915
386.19503,1.42202
385.95396,1.43883
385.71289,1.47232
385.47182,1.48906
385.23075,1.47467
384.98968,1.45069
384.74861,1.43934
384.50754,1.44066
384.26647,1.44532
384.02540,1.45069
383.78433,1.45645
383.54326,1.45314
383.30219,1.43080
383.06111,1.39569
382.82004,1.36242
382.57897,1.34058
382.33790,1.33108
382.09683,1.32885
381.85576,1.33112
381.61469,1.34184
381.37362,1.35622
381.13255,1.35735
380.89148,1.34345
380.65041,1.33178
380.40934,1.33190
380.16827,1.33588
379.92720,1.33410
379.68613,1.32775
379.44506,1.32519
379.20399,1.33206
378.96292,1.34498
378.72184,1.35204
378.48077,1.34652
378.23970,1.33770
377.99863,1.34023
377.75756,1.36290
377.51649,1.40320
377.27542,1.44231
377.03435,1.45575
376.79328,1.44095
376.55221,1.42214
376.31114,1.41780
376.07007,1.41970
375.82900,1.41393
375.58793,1.40626
375.34686,1.41149
375.10579,1.43015
374.86472,1.44745
374.62365,1.44903
374.38257,1.43412
374.14150,1.41524
373.90043,1.40653
373.65936,1.41312
373.41829,1.42985
373.17722,1.44467
372.93615,1.44599
372.69508,1.43305
372.45401,1.41759
372.21294,1.40952
371.97187,1.40992
371.73080,1.41727
371.48973,1.42990
371.24866,1.44247
371.00759,1.44849
370.76652,1.44794
370.52545,1.44781
370.28437,1.45334
370.04330,1.46071
369.80223,1.46091
369.56116,1.45156
369.32009,1.44258
369.07902,1.44391
368.83795,1.45167
368.59688,1.45581
368.35581,1.45502
368.11474,1.45328
367.87367,1.45187
367.63260,1.45307
367.39153,1.46026
367.15046,1.46878
366.90939,1.46650
366.66832,1.44825
366.42725,1.41959
366.18618,1.39166
365.94510,1.37579
365.70403,1.37459
365.46296,1.37854
365.22189,1.37821
364.98082,1.37675
364.73975,1.38244
364.49868,1.39622
364.25761,1.40912
364.01654,1.40957
363.77547,1.39638
363.53440,1.38164
363.29333,1.37908
363.05226,1.39070
362.81119,1.40581
362.57012,1.41272
362.32905,1.40783
362.08798,1.39583
361.84691,1.38591
361.60583,1.38112
361.36476,1.37534
361.12369,1.36671
360.88262,1.36308
360.64155,1.36759
360.40048,1.37000
360.15941,1.36148
359.91834,1.34758
359.67727,1.33715
359.43620,1.33101
359.19513,1.32818
358.95406,1.33265
358.71299,1.34524
358.47192,1.35814
358.23085,1.36687
357.98978,1.37370
357.74871,1.37508
357.50764,1.36368
357.26656,1.34241
357.02549,1.32075
356.78442,1.30361
356.54335,1.29317
356.30228,1.29178
356.06121,1.29754
355.82014,1.30576
355.57907,1.31526
355.33800,1.32446
355.09693,1.32697
354.85586,1.32199
354.61479,1.31970
354.37372,1.32708
354.13265,1.33816
353.89158,1.34385
353.65051,1.34674
353.40944,1.35648
353.16837,1.37183
352.92729,1.37902
352.68622,1.36798
352.44515,1.34330
352.20408,1.31828
351.96301,1.30329
351.72194,1.30008
351.48087,1.30274
351.23980,1.30524
350.99873,1.30949
350.75766,1.32129
350.51659,1.33781
350.27552,1.34504
350.03445,1.33315
349.79338,1.31083
349.55231,1.29514
349.31124,1.29286
349.07017,1.29928
348.82910,1.30873
348.58802,1.32026
348.34695,1.33263
348.10588,1.33938
347.86481,1.33622
347.62374,1.32884
347.38267,1.32610
347.14160,1.33011
346.90053,1.33725
346.65946,1.34359
346.41839,1.34620
346.17732,1.34563
345.93625,1.34721
345.69518,1.35579
345.45411,1.37010
345.21304,1.38343
344.97197,1.38883
344.73090,1.38370
344.48983,1.37272
344.24875,1.36622
344.00768,1.36921
343.76661,1.37292
343.52554,1.36762
343.28447,1.36095
343.04340,1.36658
342.80233,1.38200
342.56126,1.39328
342.32019,1.39650
342.07912,1.39805
341.83805,1.39855
341.59698,1.39604
341.35591,1.39614
341.11484,1.40476
340.87377,1.41903
340.63270,1.43050
340.39163,1.43336
340.15056,1.42839
339.90948,1.42344
339.66841,1.42567
339.42734,1.43265
339.18627,1.43408
338.94520,1.42367
338.70413,1.41155
338.46306,1.41401
338.22199,1.43381
337.98092,1.45644
337.73985,1.46594
337.49878,1.46478
337.25771,1.46415
337.01664,1.46504
336.77557,1.46367
336.53450,1.46558
336.29343,1.47580
336.05236,1.48562
335.81129,1.48436
335.57021,1.47121
335.32914,1.45360
335.08807,1.43953
334.84700,1.42777
334.60593,1.41115
334.36486,1.39033
334.12379,1.37602
333.88272,1.37962
333.64165,1.40286
333.40058,1.43157
333.15951,1.44796
332.91844,1.44782
332.67737,1.43815
332.43630,1.42750
332.19523,1.42210
331.95416,1.42126
331.71309,1.41748
331.47202,1.40676
331.23094,1.39374
330.98987,1.38301
330.74880,1.37256
330.50773,1.36124
330.26666,1.35691
330.02559,1.36853
329.78452,1.39018
329.54345,1.40402
329.30238,1.40015
329.06131,1.38215
328.82024,1.35787
328.57917,1.33577
328.33810,1.32521
328.09703,1.33257
327.85596,1.35362
327.61489,1.37131
327.37382,1.36791
327.13275,1.34883
326.89167,1.33810
326.65060,1.34642
326.40953,1.36004
326.16846,1.35863
325.92739,1.34177
325.68632,1.32657
325.44525,1.32485
325.20418,1.33312
324.96311,1.33536
324.72204,1.32277
324.48097,1.30900
324.23990,1.31122
323.99883,1.32940
323.75776,1.34932
323.51669,1.35928
323.27562,1.36059
323.03455,1.36101
322.79348,1.36501
322.55240,1.37150
322.31133,1.37621
322.07026,1.37442
321.82919,1.36352
321.58812,1.34936
321.34705,1.34112
321.10598,1.34051
320.86491,1.34362
320.62384,1.34241
320.38277,1.33015
320.14170,1.31442
319.90063,1.31419
319.65956,1.33704
319.41849,1.37118
319.17742,1.39970
318.93635,1.41406
318.69528,1.40882
318.45421,1.38366
318.21313,1.35286
317.97206,1.33492
317.73099,1.34050
317.48992,1.36152
317.24885,1.37425
317.00778,1.36703
316.76671,1.34853
316.52564,1.33028
316.28457,1.32125
316.04350,1.32563
315.80243,1.34010
315.56136,1.36196
315.32029,1.39438
315.07922,1.42988
314.83815,1.43437
314.59708,1.39488
314.35601,1.35235
314.11494,1.33960
313.87386,1.35733
313.63279,1.38934
313.39172,1.41646
313.15065,1.42974
312.90958,1.43135
312.66851,1.42615
312.42744,1.42031
312.18637,1.41772
311.94530,1.41329
311.70423,1.39991
311.46316,1.38128
311.22209,1.37033
310.98102,1.37791
310.73995,1.40600
310.49888,1.44490
310.25781,1.47565
310.01674,1.48704
309.77567,1.49058
309.53459,1.50113
309.29352,1.51215
309.05245,1.50657
308.81138,1.48290
308.57031,1.45935
308.32924,1.45099
308.08817,1.45299
307.84710,1.44851
307.60603,1.43176
307.36496,1.41648
307.12389,1.41753
306.88282,1.43291
306.64175,1.44565
306.40068,1.44674
306.15961,1.44627
305.91854,1.45462
305.67747,1.46713
305.43640,1.46740
305.19532,1.45033
304.95425,1.43131
304.71318,1.42251
304.47211,1.42095
304.23104,1.41940
303.98997,1.41536
303.74890,1.41048
303.50783,1.40980
303.26676,1.41614
303.02569,1.42498
302.78462,1.43017
302.54355,1.43071
302.30248,1.42690
302.06141,1.41739
301.82034,1.40359
301.57927,1.38894
301.33820,1.37472
301.09713,1.36270
300.85605,1.35558
300.61498,1.35300
300.37391,1.35347
300.13284,1.35398
299.89177,1.34779
299.65070,1.33289
299.40963,1.31864
299.16856,1.31599
298.92749,1.32548
298.68642,1.33644
298.44535,1.33711
298.20428,1.32527
297.96321,1.31099
297.72214,1.30698
297.48107,1.31479
297.24000,1.32458
296.99893,1.32559
296.75786,1.31599
296.51678,1.30445
296.27571,1.30081
296.03464,1.30458
295.79357,1.30526
295.55250,1.29597
295.31143,1.28180
295.07036,1.27125
294.82929,1.26784
294.58822,1.26948
294.34715,1.27172
294.10608,1.27187
293.86501,1.26946
293.62394,1.26566
293.38287,1.26343
293.14180,1.26430
292.90073,1.26586
292.65966,1.26507
292.41859,1.26125
292.17751,1.25505
291.93644,1.24723
291.69537,1.23844
291.45430,1.22939
291.21323,1.22113
290.97216,1.21522
290.73109,1.21274
290.49002,1.21395
290.24895,1.21848
290.00788,1.22299
289.76681,1.22170
289.52574,1.21528
289.28467,1.21344
289.04360,1.22163
288.80253,1.23138
288.56146,1.22947
288.32039,1.21473
288.07932,1.19981
287.83824,1.19681
287.59717,1.20554
287.35610,1.21551
287.11503,1.21835
286.87396,1.21579
286.63289,1.21306
286.39182,1.21097
286.15075,1.20750
285.90968,1.20202
285.66861,1.19508
285.42754,1.18702
285.18647,1.17961
284.94540,1.17627
284.70433,1.17875
284.46326,1.18484
284.22219,1.19016
283.98112,1.19213
283.74005,1.19194
283.49897,1.19253
283.25790,1.19487
283.01683,1.19726
282.77576,1.19969
282.53469,1.20568
282.29362,1.21689
282.05255,1.22720
281.81148,1.22659
281.57041,1.21259
281.32934,1.19329
281.08827,1.17904
280.84720,1.17517
280.60613,1.18136
280.36506,1.19308
280.12399,1.20332
279.88292,1.20738
279.64185,1.20783
279.40078,1.21025
279.15970,1.21448
278.91863,1.21544
278.67756,1.21128
278.43649,1.20428
278.19542,1.19651
277.95435,1.18993
277.71328,1.18779
277.47221,1.19140
277.23114,1.19708
276.99007,1.20075
276.74900,1.20337
276.50793,1.20827
276.26686,1.21496
276.02579,1.21899
275.78472,1.21685
275.54365,1.20859
275.30258,1.19658
275.06151,1.18361
274.82043,1.17285
274.57936,1.16816
274.33829,1.17188
274.09722,1.18244
273.85615,1.19500
273.61508,1.20352
273.37401,1.20448
273.13294,1.20049
272.89187,1.19839
272.65080,1.20168
272.40973,1.20753
272.16866,1.21235
271.92759,1.21680
271.68652,1.22256
271.44545,1.22817
271.20438,1.23122
270.96331,1.23215
270.72224,1.23350
270.48116,1.23650
270.24009,1.23912
269.99902,1.23902
269.75795,1.23769
269.51688,1.23788
269.27581,1.23909
269.03474,1.23985
268.79367,1.24252
268.55260,1.25001
268.31153,1.26037
268.07046,1.26919
267.82939,1.27393
267.58832,1.27394
267.34725,1.27109
267.10618,1.27120
266.86511,1.27913
266.62404,1.29238
266.38297,1.30319
266.14189,1.30705
265.90082,1.30676
265.65975,1.30751
265.41868,1.31243
265.17761,1.32203
264.93654,1.33465
264.69547,1.34743
264.45440,1.35756
264.21333,1.36354
263.97226,1.36623
263.73119,1.36904
263.49012,1.37581
263.24905,1.38824
263.00798,1.40692
262.76691,1.43311
262.52584,1.46401
262.28477,1.49006
262.04370,1.50664
261.80262,1.52096
261.56155,1.53723
261.32048,1.54715
261.07941,1.54617
260.83834,1.54590
260.59727,1.55949
260.35620,1.58695
260.11513,1.61843
259.87406,1.64854
259.63299,1.68396
259.39192,1.72943
259.15085,1.76854
258.90978,1.78084
258.66871,1.77766
258.42764,1.78029
258.18657,1.79332
257.94550,1.81072
257.70443,1.82379
257.46335,1.83367
257.22228,1.85639
256.98121,1.89187
256.74014,1.90573
256.49907,1.87471
256.25800,1.82861
256.01693,1.80441
255.77586,1.79929
255.53479,1.78848
255.29372,1.76698
255.05265,1.75330
254.81158,1.75738
254.57051,1.76608
254.32944,1.76356
254.08837,1.75360
253.84730,1.74722
253.60623,1.74199
253.36516,1.72926
253.12408,1.70998
252.88301,1.69534
252.64194,1.68952
252.40087,1.68417
252.15980,1.67176
251.91873,1.65522
251.67766,1.64306
251.43659,1.64256
251.19552,1.65244
250.95445,1.65877
250.71338,1.65290
250.47231,1.64311
250.23124,1.63384
249.99017,1.61956
249.74910,1.60210
249.50803,1.59474
249.26696,1.60964
249.02589,1.64396
248.78481,1.67632
248.54374,1.68550
248.30267,1.67076
248.06160,1.64547
247.82053,1.62758
247.57946,1.62728
247.33839,1.63936
247.09732,1.64975
246.85625,1.64920
246.61518,1.64334
246.37411,1.64770
246.13304,1.66615
245.89197,1.68169
245.65090,1.68388
245.40983,1.68334
245.16876,1.69185
244.92769,1.71038
244.68661,1.73663
244.44554,1.77595
244.20447,1.83551
243.96340,1.91365
243.72233,1.99864
243.48126,2.06804
243.24019,2.09444
242.99912,2.08545
242.75805,2.08368
242.51698,2.03628
242.27591,1.88537
242.03484,1.74953
241.79377,1.66566
241.55270,1.61866
241.31163,1.58518
241.07056,1.55195
240.82949,1.52206
240.58842,1.49774
240.34734,1.46900
240.10627,1.42531
239.86520,1.37050
239.62413,1.31857
239.38306,1.27805
239.14199,1.24798
238.90092,1.22376
238.65985,1.20152
238.41878,1.17922
238.17771,1.15676
237.93664,1.13569
237.69557,1.11765
237.45450,1.10247
237.21343,1.08845
236.97236,1.07393
236.73129,1.05788
236.49022,1.04075
236.24915,1.02515
236.00807,1.01384
235.76700,1.00675
235.52593,1.00191
235.28486,0.99818
235.04379,0.99442
234.80272,0.98838
234.56165,0.97946
234.32058,0.97060
234.07951,0.96452
233.83844,0.95976
233.59737,0.95371
233.35630,0.94741
233.11523,0.94346
232.87416,0.94147
232.63309,0.93957
232.39202,0.93817
232.15095,0.93906
231.90988,0.94166
231.66880,0.94306
231.42773,0.94132
231.18666,0.93704
230.94559,0.93150
230.70452,0.92419
230.46345,0.91422
230.22238,0.90353
229.98131,0.89553
229.74024,0.89030
229.49917,0.88542
229.25810,0.88206
229.01703,0.88474
228.77596,0.89293
228.53489,0.89874
228.29382,0.89633
228.05275,0.88816
227.81168,0.87885
227.57061,0.86973
227.32953,0.86156
227.08846,0.85681
226.84739,0.85678
226.60632,0.85958
226.36525,0.86251
226.12418,0.86470
225.88311,0.86603
225.64204,0.86570
225.40097,0.86391
225.15990,0.86227
224.91883,0.86112
224.67776,0.85896
224.43669,0.85642
224.19562,0.85696
223.95455,0.86182
223.71348,0.86846
223.47241,0.87438
223.23134,0.87877
222.99026,0.88099
222.74919,0.88184
222.50812,0.88391
222.26705,0.88774
222.02598,0.89153
221.78491,0.89545
221.54384,0.90146
221.30277,0.90830
221.06170,0.91204
220.82063,0.91269
220.57956,0.91543
220.33849,0.92344
220.09742,0.93340
219.85635,0.94065
219.61528,0.94624
219.37421,0.95493
219.13314,0.96828
218.89207,0.98307
218.65099,0.99530
218.40992,1.00426
218.16885,1.01229
217.92778,1.02121
217.68671,1.03035
217.44564,1.03930
217.20457,1.05017
216.96350,1.06366
216.72243,1.07543
216.48136,1.08178
216.24029,1.08564
215.99922,1.09358
215.75815,1.11015
215.51708,1.13493
215.27601,1.16235
215.03494,1.18539
214.79387,1.20141
214.55280,1.21150
214.31172,1.21443
214.07065,1.20927
213.82958,1.20302
213.58851,1.20519
213.34744,1.21890
213.10637,1.24259
212.86530,1.27144
212.62423,1.29397
212.38316,1.29960
212.14209,1.29215
211.90102,1.28309
211.65995,1.27756
211.41888,1.27468
211.17781,1.27583
210.93674,1.28342
210.69567,1.29396
210.45460,1.29872
210.21353,1.29294
209.97245,1.28088
209.73138,1.26897
209.49031,1.26060
209.24924,1.25743
209.00817,1.25934
208.76710,1.26283
208.52603,1.26153
208.28496,1.25219
208.04389,1.23980
207.80282,1.23250
207.56175,1.23384
207.32068,1.24004
207.07961,1.24182
206.83854,1.23246
206.59747,1.21507
206.35640,1.19840
206.11533,1.18594
205.87426,1.17391
205.63318,1.15874
205.39211,1.14141
205.15104,1.12509
204.90997,1.11304
204.66890,1.10648
204.42783,1.10112
204.18676,1.09044
203.94569,1.07473
203.70462,1.06050
203.46355,1.05088
203.22248,1.04366
202.98141,1.03617
202.74034,1.02729
202.49927,1.01673
202.25820,1.00440
202.01713,0.98904
201.77606,0.96933
201.53499,0.94814
201.29391,0.93118
201.05284,0.91960
200.81177,0.90848
200.57070,0.89390
200.32963,0.87764
200.08856,0.86373
199.84749,0.85428
199.60642,0.84836
199.36535,0.84162
199.12428,0.82918
198.88321,0.81172
198.64214,0.79541
198.40107,0.78559
198.16000,0.78239
197.91893,0.78075
197.67786,0.77536
197.43679,0.76627
197.19572,0.75820
196.95464,0.75446
196.71357,0.75195
196.47250,0.74422
196.23143,0.73014
195.99036,0.71593
195.74929,0.70769
195.50822,0.70497
195.26715,0.70216
195.02608,0.69559
194.78501,0.68756
194.54394,0.68178
194.30287,0.67802
194.06180,0.67353
193.82073,0.66746
193.57966,0.66160
193.33859,0.65763
193.09752,0.65475
192.85645,0.65090
192.61537,0.64634
192.37430,0.64346
192.13323,0.64197
191.89216,0.63776
191.65109,0.62915
191.41002,0.62061
191.16895,0.61707
190.92788,0.61746
190.68681,0.61647
190.44574,0.61177
190.20467,0.60663
189.96360,0.60415
189.72253,0.60301
189.48146,0.60090
189.24039,0.59894
188.99932,0.59929
188.75825,0.60073
188.51718,0.60031
188.27610,0.59802
188.03503,0.59567
187.79396,0.59301
187.55289,0.58888
187.31182,0.58487
187.07075,0.58364
186.82968,0.58460
186.58861,0.58484
186.34754,0.58360
186.10647,0.58238
185.86540,0.58148
185.62433,0.57971
185.38326,0.57742
185.14219,0.57652
184.90112,0.57719
184.66005,0.57738
184.41898,0.57683
184.17791,0.57811
183.93683,0.58213
183.69576,0.58618
183.45469,0.58802
183.21362,0.58871
182.97255,0.58986
182.73148,0.59140
182.49041,0.59286
182.24934,0.59481
182.00827,0.59775
181.76720,0.60045
181.52613,0.60088
181.28506,0.59880
181.04399,0.59606
180.80292,0.59388
180.56185,0.59285
180.32078,0.59472
180.07971,0.60038
179.83864,0.60734
179.59756,0.61286
179.35649,0.61718
179.11542,0.62151
178.87435,0.62639
178.63328,0.63331
178.39221,0.64368
178.15114,0.65563
177.91007,0.66538
177.66900,0.67185
177.42793,0.67739
177.18686,0.68460
176.94579,0.69471
176.70472,0.70850
176.46365,0.72614
176.22258,0.74573
175.98151,0.76449
175.74044,0.78208
175.49937,0.80016
175.25829,0.81890
175.01722,0.83689
174.77615,0.85315
174.53508,0.86685
174.29401,0.87768
174.05294,0.88723
173.81187,0.89710
173.57080,0.90728
173.32973,0.91779
173.08866,0.92976
172.84759,0.94397
172.60652,0.95996
172.36545,0.97581
172.12438,0.98834
171.88331,0.99582
171.64224,0.99993
171.40117,1.00109
171.16010,0.99520
170.91902,0.98125
170.67795,0.96611
170.43688,0.95606
170.19581,0.95094
169.95474,0.94874
169.71367,0.94878
169.47260,0.94882
169.23153,0.94572
168.99046,0.93997
168.74939,0.93383
168.50832,0.92671
168.26725,0.91856
168.02618,0.91359
167.78511,0.91477
167.54404,0.91885
167.30297,0.92107
167.06190,0.92121
166.82083,0.92221
166.57975,0.92547
166.33868,0.92936
166.09761,0.93143
165.85654,0.93140
165.61547,0.93118
165.37440,0.93239
165.13333,0.93591
164.89226,0.94266
164.65119,0.95231
164.41012,0.96174
164.16905,0.96700
163.92798,0.96804
163.68691,0.96911
163.44584,0.97355
163.20477,0.98065
162.96370,0.98861
162.72263,0.99885
162.48156,1.01440
162.24048,1.03281
161.99941,1.04452
161.75834,1.04366
161.51727,1.03678
161.27620,1.03435
161.03513,1.03839
160.79406,1.04294
160.55299,1.04221
160.31192,1.03450
160.07085,1.02137
159.82978,1.00646
159.58871,0.99367
159.34764,0.98668
159.10657,0.98806
158.86550,0.99618
158.62443,1.00463
158.38336,1.00632
158.14229,0.99850
157.90121,0.98460
157.66014,0.97082
157.41907,0.96147
157.17800,0.95826
156.93693,0.96058
156.69586,0.96363
156.45479,0.95991
156.21372,0.94677
155.97265,0.92981
155.73158,0.91721
155.49051,0.91251
155.24944,0.91186
155.00837,0.90766
154.76730,0.89644
154.52623,0.88151
154.28516,0.86693
154.04409,0.85343
153.80302,0.84023
153.56194,0.82699
153.32087,0.81389
153.07980,0.80162
152.83873,0.79091
152.59766,0.78100
152.35659,0.76934
152.11552,0.75437
151.87445,0.73754
151.63338,0.72102
151.39231,0.70524
151.15124,0.69046
150.91017,0.67825
150.66910,0.66900
150.42803,0.65977
150.18696,0.64722
149.94589,0.63170
149.70482,0.61680
149.46375,0.60588
149.22267,0.59952
148.98160,0.59511
148.74053,0.58887
148.49946,0.57934
148.25839,0.56918
148.01732,0.56278
147.77625,0.56221
147.53518,0.56484
147.29411,0.56512
147.05304,0.56067
146.81197,0.55500
146.57090,0.55286
146.32983,0.55496
146.08876,0.55833
145.84769,0.56091
145.60662,0.56394
145.36555,0.56916
145.12448,0.57584
144.88340,0.58160
144.64233,0.58550
144.40126,0.58872
144.16019,0.59233
143.91912,0.59561
143.67805,0.59732
143.43698,0.59762
143.19591,0.59697
142.95484,0.59373
142.71377,0.58558
142.47270,0.57353
142.23163,0.56176
141.99056,0.55270
141.74949,0.54480
141.50842,0.53585
141.26735,0.52668
141.02628,0.51992
140.78521,0.51669
140.54413,0.51583
140.30306,0.51551
140.06199,0.51479
139.82092,0.51392
139.57985,0.51429
139.33878,0.51725
139.09771,0.52206
138.85664,0.52653
138.61557,0.53034
138.37450,0.53573
138.13343,0.54387
137.89236,0.55291
137.65129,0.56115
137.41022,0.57014
137.16915,0.58232
136.92808,0.59703
136.68701,0.61240
136.44594,0.62934
136.20486,0.64962
135.96379,0.67168
135.72272,0.69277
135.48165,0.71406
135.24058,0.73842
134.99951,0.76497
134.75844,0.79060
134.51737,0.81526
134.27630,0.84192
134.03523,0.87263
133.79416,0.90753
133.55309,0.94530
133.31202,0.98205
133.07095,1.01444
132.82988,1.04575
132.58881,1.08019
132.34774,1.11172
132.10667,1.13138
131.86559,1.14281
131.62452,1.15425
131.38345,1.16286
131.14238,1.16154
130.90131,1.15295
130.66024,1.14306
130.41917,1.13083
130.17810,1.11279
129.93703,1.08571
129.69596,1.04722
129.45489,1.00226
129.21382,0.96061
128.97275,0.92677
128.73168,0.89712
128.49061,0.86553
128.24954,0.83002
128.00847,0.79433
127.76740,0.76355
127.52632,0.73920
127.28525,0.71789
127.04418,0.69537
126.80311,0.67173
126.56204,0.65007
126.32097,0.63128
126.07990,0.61357
125.83883,0.59578
125.59776,0.57868
125.35669,0.56389
125.11562,0.55266
124.87455,0.54429
124.63348,0.53592
124.39241,0.52513
124.15134,0.51220
123.91027,0.49931
123.66920,0.48877
123.42812,0.48145
123.18705,0.47580
122.94598,0.46983
122.70491,0.46398
122.46384,0.46001
122.22277,0.45808
121.98170,0.45713
121.74063,0.45684
121.49956,0.45760
121.25849,0.45940
121.01742,0.46234
120.77635,0.46713
120.53528,0.47413
120.29421,0.48256
120.05314,0.49113
119.81207,0.49999
119.57100,0.51164
119.32993,0.52888
119.08885,0.55169
118.84778,0.57725
118.60671,0.60367
118.36564,0.63187
118.12457,0.66292
117.88350,0.69538
117.64243,0.72627
117.40136,0.75284
117.16029,0.77396
116.91922,0.79055
116.67815,0.80216
116.43708,0.80404
116.19601,0.79245
115.95494,0.77111
115.71387,0.74786
115.47280,0.72759
115.23173,0.71153
114.99066,0.70039
114.74958,0.69571
114.50851,0.69856
114.26744,0.70706
114.02637,0.71510
113.78530,0.71598
113.54423,0.70789
113.30316,0.69409
113.06209,0.67952
112.82102,0.66819
112.57995,0.66210
112.33888,0.66169
112.09781,0.66693
111.85674,0.67768
111.61567,0.69197
111.37460,0.70476
111.13353,0.71032
110.89246,0.70644
110.65139,0.69629
110.41031,0.68606
110.16924,0.67972
109.92817,0.67712
109.68710,0.67662
109.44603,0.67641
109.20496,0.67335
108.96389,0.66363
108.72282,0.64513
108.48175,0.61900
108.24068,0.59043
107.99961,0.56697
107.75854,0.55367
107.51747,0.54885
107.27640,0.54484
107.03533,0.53311
106.79426,0.51030
106.55319,0.48102
106.31212,0.45382
106.07104,0.43472
105.82997,0.42521
105.58890,0.42322
105.34783,0.42321
105.10676,0.41803
104.86569,0.40498
104.62462,0.38862
104.38355,0.37472
104.14248,0.36524
103.90141,0.35948
103.66034,0.35568
103.41927,0.35131
103.17820,0.34412
102.93713,0.33391
102.69606,0.32317
102.45499,0.31532
102.21392,0.31171
101.97285,0.31024
101.73177,0.30744
101.49070,0.30162
101.24963,0.29430
101.00856,0.28871
100.76749,0.28714
100.52642,0.28875
100.28535,0.28908
100.04428,0.28356
99.80321,0.27318
99.56214,0.26458
99.32107,0.26368
99.08000,0.26957
98.83893,0.27413
98.59786,0.26969
98.35679,0.25887
98.11572,0.25169
97.87465,0.25362
97.63358,0.26021
97.39250,0.26234
97.15143,0.25814
96.91036,0.25512
96.66929,0.25888
96.42822,0.26642
96.18715,0.27131
95.94608,0.27358
95.70501,0.27927
95.46394,0.28999
95.22287,0.29973
94.98180,0.30415
94.74073,0.30768
94.49966,0.31539
94.25859,0.32354
94.01752,0.32450
93.77645,0.31969
93.53538,0.31830
93.29431,0.32315
93.05323,0.32670
92.81216,0.32357
92.57109,0.31892
92.33002,0.31833
92.08895,0.32073
91.84788,0.32450
91.60681,0.33068
91.36574,0.33774
91.12467,0.34285
90.88360,0.34939
90.64253,0.36450
90.40146,0.38897
90.16039,0.41625
89.91932,0.44396
89.67825,0.47822
89.43718,0.52130
89.19611,0.56653
88.95504,0.61154
88.71396,0.65988
88.47289,0.70073
88.23182,0.71440
87.99075,0.70286
87.74968,0.67885
87.50861,0.64558
87.26754,0.60681
87.02647,0.57054
86.78540,0.53759
86.54433,0.50448
86.30326,0.47271
86.06219,0.44430
85.82112,0.41706
85.58005,0.39041
85.33898,0.36716
85.09791,0.34736
84.85684,0.32791
84.61577,0.30810
84.37469,0.29009
84.13362,0.27512
83.89255,0.26287
83.65148,0.25291
83.41041,0.24482
83.16934,0.23822
82.92827,0.23301
82.68720,0.22817
82.44613,0.22173
82.20506,0.21367
81.96399,0.20667
81.72292,0.20263
81.48185,0.20089
81.24078,0.20054
80.99971,0.20144
80.75864,0.20277
80.51757,0.20345
80.27650,0.20347
80.03542,0.20268
79.79435,0.19996
79.55328,0.19479
79.31221,0.18861
79.07114,0.18376
78.83007,0.18167
78.58900,0.18162
78.34793,0.18118
78.10686,0.17826
77.86579,0.17253
77.62472,0.16510
77.38365,0.15804
77.14258,0.15399
76.90151,0.15394
76.66044,0.15573
76.41937,0.15642
76.17830,0.15550
75.93723,0.15424
75.69615,0.15296
75.45508,0.15137
75.21401,0.15020
74.97294,0.15031
74.73187,0.15101
74.49080,0.15096
74.24973,0.15022
74.00866,0.15036
73.76759,0.15229
73.52652,0.15428
73.28545,0.15386
73.04438,0.15160
72.80331,0.15081
72.56224,0.15346
72.32117,0.15822
72.08010,0.16219
71.83903,0.16313
71.59796,0.16039
71.35688,0.15497
71.11581,0.14892
70.87474,0.14483
70.63367,0.14560
70.39260,0.15378
70.15153,0.17024
69.91046,0.19354
69.66939,0.21950
69.42832,0.24137
69.18725,0.25290
68.94618,0.25214
68.70511,0.24126
68.46404,0.22397
68.22297,0.20433
67.98190,0.18642
67.74083,0.17297
67.49976,0.16393
67.25869,0.15706
67.01761,0.14999
66.77654,0.14179
66.53547,0.13334
66.29440,0.12678
66.05333,0.12399
65.81226,0.12510
65.57119,0.12870
65.33012,0.13399
65.08905,0.14180
64.84798,0.15263
64.60691,0.16491
64.36584,0.17638
64.12477,0.18541
63.88370,0.19039
63.64263,0.19028
63.40156,0.18622
63.16049,0.18050
62.91942,0.17411
62.67834,0.16659
62.43727,0.15816
62.19620,0.15078
61.95513,0.14600
61.71406,0.14242
61.47299,0.13733
61.23192,0.13107
60.99085,0.12693
60.74978,0.12627
60.50871,0.12665
60.26764,0.12505
60.02657,0.12075
59.78550,0.11420
59.54443,0.10538
59.30336,0.09549
59.06229,0.08885
58.82122,0.09079
58.58015,0.10337
58.33907,0.12447
58.09800,0.15080
57.85693,0.17951
57.61586,0.20391
57.37479,0.21104
57.13372,0.19382
56.89265,0.16110
56.65158,0.12607
56.41051,0.09700
56.16944,0.07817
55.92837,0.07220
55.68730,0.08098
55.44623,0.10469
55.20516,0.13818
54.96409,0.16569
54.72302,0.16705
54.48195,0.14264
54.24088,0.11337
53.99980,0.09662
53.75873,0.09970
53.51766,0.12203
53.27659,0.15683
53.03552,0.18881
52.79445,0.19355
52.55338,0.16474
52.31231,0.12654
52.07124,0.10026
51.83017,0.09553
51.58910,0.11512
51.34803,0.14972
51.10696,0.16756
50.86589,0.14222
50.62482,0.09785
50.38375,0.07050
50.14268,0.07988
49.90161,0.12652
49.66053,0.17005
49.41946,0.15006
49.17839,0.10440
48.93732,0.09406
48.69625,0.12942
48.45518,0.17162
48.21411,0.15283
47.97304,0.10005
47.73197,0.08099
47.49090,0.10901
47.24983,0.14295
47.00876,0.13341
46.76769,0.10754
46.52662,0.10061
46.28555,0.09955
46.04448,0.08470
45.80341,0.07600
45.56234,0.09319
45.32126,0.11468
45.08019,0.10643
44.83912,0.08753
44.59805,0.08952
44.35698,0.10025
44.11591,0.10051
43.87484,0.10430
43.63377,0.11350
43.39270,0.10811
43.15163,0.09771
42.91056,0.10601
42.66949,0.12470
42.42842,0.13018
42.18735,0.12658
41.94628,0.12499
41.70521,0.12241
41.46414,0.11943
41.22307,0.12074
40.98199,0.12448
40.74092,0.12862
40.49985,0.13618
40.25878,0.14748
40.01771,0.15642
39.77664,0.15595
39.53557,0.14591
39.29450,0.13628
39.05343,0.13835
38.81236,0.15164
38.57129,0.16518
38.33022,0.17117
38.08915,0.17272
37.84808,0.17648
37.60701,0.18314
37.36594,0.18922
37.12487,0.19190
36.88380,0.18910
36.64272,0.18378
36.40165,0.18489
36.16058,0.19348
35.91951,0.19803
35.67844,0.19008
35.43737,0.17450
35.19630,0.16088
34.95523,0.15481
34.71416,0.15627
34.47309,0.16185
34.23202,0.16995
33.99095,0.18044
33.74988,0.18973
33.50881,0.19729
33.26774,0.21010
33.02667,0.22610
32.78560,0.22485
32.54453,0.19166
32.30345,0.14814
32.06238,0.12603
31.82131,0.12615
31.58024,0.12179
31.33917,0.09317
31.09810,0.04820
30.85703,0.01469
30.61596,0.01480
30.37489,0.04358
30.13382,0.07931
29.89275,0.10551
29.65168,0.11845
29.41061,0.12535
29.16954,0.13474
28.92847,0.14486
28.68740,0.14561
28.44633,0.12989
28.20526,0.10013
27.96418,0.07101
27.72311,0.05941
27.48204,0.06861
27.24097,0.08347
26.99990,0.08204
26.75883,0.05721
26.51776,0.02494
26.27669,0.00981
26.03562,0.02222
25.79455,0.04635
25.55348,0.05505
25.31241,0.03964
25.07134,0.01030
24.83027,-0.01941
24.58920,-0.03730
24.34813,-0.03847
24.10706,-0.03062
23.86599,-0.02657
23.62491,-0.03630
23.38384,-0.06058
23.14277,-0.08215
22.90170,-0.08221
22.66063,-0.06617
22.41956,-0.05388
22.17849,-0.06121
21.93742,-0.08736
21.69635,-0.11490
21.45528,-0.12987
21.21421,-0.13620
20.97314,-0.14150
20.73207,-0.14371
20.49100,-0.13976
20.24993,-0.13861
20.00886,-0.15462
19.76779,-0.18989
19.52672,-0.22899
19.28564,-0.25559
19.04457,-0.26813
18.80350,-0.27112
18.56243,-0.25810
18.32136,-0.22135
18.08029,-0.17347
17.83922,-0.13636
17.59815,-0.11724
17.35708,-0.11466
17.11601,-0.12741
16.87494,-0.15441
16.63387,-0.18865
16.39280,-0.21449
16.15173,-0.22198
15.91066,-0.22593
15.66959,-0.24066
15.42852,-0.25839
15.18745,-0.27016
14.94637,-0.27395
14.70530,-0.28054
14.46423,-0.31125
14.22316,-0.34759
13.98209,-0.31399
13.74102,-0.25734
13.49995,-0.22632
13.25888,-0.22790
13.01781,-0.23829
12.77674,-0.22689
12.53567,-0.19926
12.29460,-0.17667
12.05353,-0.17723
11.81246,-0.19768
11.57139,-0.21632
11.33032,-0.21912
11.08925,-0.20831
10.84818,-0.20171
10.60710,-0.21294
10.36603,-0.23237
10.12496,-0.24029
9.88389,-0.24321
9.64282,-0.24499
9.40175,-0.24122
9.16068,-0.23985
8.91961,-0.23517
8.67854,-0.23215
8.43747,-0.24709
8.19640,-0.27340
7.95533,-0.29033
7.71426,-0.29769
7.47319,-0.28671
7.23212,-0.26291
6.99105,-0.24855
6.74998,-0.24080
6.50891,-0.23206
6.26783,-0.22738
6.02676,-0.23094
5.78569,-0.24541
5.54462,-0.26011
5.30355,-0.25579
5.06248,-0.23141
4.82141,-0.20568
4.58034,-0.19875
4.33927,-0.21364
4.09820,-0.22566
3.85713,-0.21621
3.61606,-0.21674
3.37499,-0.22486
3.13392,-0.22320
2.89285,-0.22669
2.65178,-0.24886
2.41071,-0.26263
2.16964,-0.24709
1.92856,-0.22440
1.68749,-0.20794
1.44642,-0.20435
1.20535,-0.21755
0.96428,-0.23698
0.72321,-0.26151
0.48214,-0.28463
0.24107,-0.27659
-0.00000,-0.19569
