399.69498,1.78377
399.45391,1.77365
399.21284,1.74848
398.97177,1.72894
398.73070,1.73585
398.48963,1.77496
398.24856,1.82429
398.00749,1.83881
397.76642,1.86681
397.52535,1.84222
397.28428,1.77742
397.04321,1.76345
396.80214,1.80437
396.56107,1.82891
396.32000,1.76623
396.07892,1.73320
395.83785,1.75583
395.59678,1.79807
395.35571,1.77206
395.11464,1.73568
394.87357,1.72982
394.63250,1.76019
394.39143,1.79266
394.15036,1.78628
393.90929,1.74680
393.66822,1.69755
393.42715,1.65700
393.18608,1.64696
392.94501,1.67479
392.70394,1.71208
392.46287,1.71811
392.22180,1.70426
391.98073,1.68780
391.73965,1.65922
391.49858,1.63470
391.25751,1.63894
391.01644,1.65674
390.77537,1.65641
390.53430,1.64966
390.29323,1.65718
390.05216,1.67805
389.81109,1.72214
389.57002,1.79386
389.32895,1.84035
389.08788,1.77719
388.84681,1.68673
388.60574,1.64995
388.36467,1.63477
388.12360,1.60954
387.88253,1.58718
387.64146,1.58868
387.40038,1.62176
387.15931,1.66982
386.91824,1.70570
386.67717,1.73359
386.43610,1.74158
386.19503,1.69315
385.95396,1.61207
385.71289,1.54661
385.47182,1.50797
385.23075,1.48273
384.98968,1.48797
384.74861,1.53283
384.50754,1.58253
384.26647,1.59513
384.02540,1.55346
383.78433,1.49619
383.54326,1.45555
383.30219,1.44024
383.06111,1.44555
382.82004,1.46132
382.57897,1.46804
382.33790,1.45077
382.09683,1.43844
381.85576,1.45647
381.61469,1.49293
381.37362,1.49602
381.13255,1.44733
380.89148,1.40022
380.65041,1.39929
380.40934,1.44340
380.16827,1.49097
379.92720,1.49938
379.68613,1.48058
379.44506,1.47926
379.20399,1.52884
378.96292,1.63107
378.72184,1.69798
378.48077,1.61044
378.23970,1.51615
377.99863,1.47511
377.75756,1.48188
377.51649,1.50519
377.27542,1.51475
377.03435,1.49414
376.79328,1.46048
376.55221,1.45155
376.31114,1.47579
376.07007,1.51106
375.82900,1.54275
375.58793,1.59450
375.34686,1.68018
375.10579,1.74776
374.86472,1.74931
374.62365,1.70783
374.38257,1.65623
374.14150,1.63489
373.90043,1.63130
373.65936,1.61096
373.41829,1.58336
373.17722,1.55705
372.93615,1.55410
372.69508,1.58348
372.45401,1.56637
372.21294,1.56086
371.97187,1.58974
371.73080,1.62693
371.48973,1.63206
371.24866,1.59206
371.00759,1.55028
370.76652,1.55581
370.52545,1.60984
370.28437,1.66237
370.04330,1.67498
369.80223,1.65609
369.56116,1.61394
369.32009,1.56019
369.07902,1.51072
368.83795,1.49037
368.59688,1.50536
368.35581,1.52659
368.11474,1.51492
367.87367,1.47558
367.63260,1.45130
367.39153,1.46826
367.15046,1.51884
366.90939,1.57226
366.66832,1.59915
366.42725,1.59465
366.18618,1.57362
365.94510,1.55116
365.70403,1.53529
365.46296,1.53279
365.22189,1.54980
364.98082,1.57861
364.73975,1.59329
364.49868,1.58033
364.25761,1.56465
364.01654,1.56752
363.77547,1.57704
363.53440,1.56491
363.29333,1.55319
363.05226,1.57443
362.81119,1.59512
362.57012,1.57136
362.32905,1.51874
362.08798,1.46747
361.84691,1.43384
361.60583,1.42255
361.36476,1.42794
361.12369,1.43579
360.88262,1.43874
360.64155,1.44710
360.40048,1.46790
360.15941,1.48613
359.91834,1.48952
359.67727,1.48848
359.43620,1.50220
359.19513,1.53294
358.95406,1.56158
358.71299,1.56926
358.47192,1.55278
358.23085,1.52552
357.98978,1.50961
357.74871,1.51935
357.50764,1.54271
357.26656,1.54311
357.02549,1.50519
356.78442,1.46236
356.54335,1.44382
356.30228,1.43846
356.06121,1.42144
355.82014,1.40416
355.57907,1.41354
355.33800,1.44220
355.09693,1.46314
354.85586,1.46661
354.61479,1.45784
354.37372,1.43936
354.13265,1.41862
353.89158,1.40613
353.65051,1.40574
353.40944,1.41558
353.16837,1.42930
352.92729,1.43926
352.68622,1.44318
352.44515,1.44652
352.20408,1.45900
351.96301,1.48278
351.72194,1.50766
351.48087,1.52286
351.23980,1.51838
350.99873,1.49248
350.75766,1.46232
350.51659,1.43834
350.27552,1.42246
350.03445,1.41770
349.79338,1.43023
349.55231,1.45556
349.31124,1.49097
349.07017,1.53224
348.82910,1.56626
348.58802,1.56436
348.34695,1.50981
348.10588,1.44970
347.86481,1.43217
347.62374,1.46742
347.38267,1.51981
347.14160,1.52072
346.90053,1.46709
346.65946,1.41799
346.41839,1.39887
346.17732,1.40008
345.93625,1.41080
345.69518,1.42977
345.45411,1.46075
345.21304,1.49710
344.97197,1.52931
344.73090,1.56088
344.48983,1.57394
344.24875,1.54549
344.00768,1.50554
343.76661,1.47560
343.52554,1.47345
343.28447,1.50638
343.04340,1.55171
342.80233,1.56810
342.56126,1.55872
342.32019,1.56289
342.07912,1.58244
341.83805,1.58428
341.59698,1.57083
341.35591,1.55279
341.11484,1.53733
340.87377,1.53275
340.63270,1.53195
340.39163,1.52839
340.15056,1.54756
339.90948,1.61423
339.66841,1.66761
339.42734,1.64068
339.18627,1.61668
338.94520,1.58783
338.70413,1.55637
338.46306,1.54159
338.22199,1.54812
337.98092,1.57095
337.73985,1.56563
337.49878,1.56440
337.25771,1.60064
337.01664,1.66291
336.77557,1.70687
336.53450,1.66686
336.29343,1.60323
336.05236,1.57481
335.81129,1.58492
335.57021,1.60260
335.32914,1.64268
335.08807,1.72229
334.84700,1.75866
334.60593,1.65928
334.36486,1.54786
334.12379,1.48042
333.88272,1.45015
333.64165,1.46454
333.40058,1.49464
333.15951,1.50346
332.91844,1.51320
332.67737,1.53473
332.43630,1.54997
332.19523,1.55408
331.95416,1.57446
331.71309,1.62688
331.47202,1.67550
331.23094,1.66063
330.98987,1.59236
330.74880,1.55172
330.50773,1.56890
330.26666,1.59851
330.02559,1.57258
329.78452,1.52148
329.54345,1.50453
329.30238,1.52491
329.06131,1.55217
328.82024,1.56806
328.57917,1.56013
328.33810,1.53727
328.09703,1.53464
327.85596,1.56088
327.61489,1.56251
327.37382,1.54566
327.13275,1.52200
326.89167,1.48808
326.65060,1.46058
326.40953,1.46573
326.16846,1.50862
325.92739,1.56062
325.68632,1.57663
325.44525,1.53917
325.20418,1.52362
324.96311,1.53320
324.72204,1.51751
324.48097,1.46797
324.23990,1.42612
323.99883,1.41844
323.75776,1.45044
323.51669,1.51324
323.27562,1.56613
323.03455,1.57261
322.79348,1.55259
322.55240,1.52189
322.31133,1.48300
322.07026,1.46297
321.82919,1.47619
321.58812,1.48119
321.34705,1.43701
321.10598,1.40691
320.86491,1.40724
320.62384,1.42141
320.38277,1.43454
320.14170,1.43673
319.90063,1.42375
319.65956,1.41499
319.41849,1.42753
319.17742,1.45443
318.93635,1.47167
318.69528,1.47924
318.45421,1.51918
318.21313,1.58786
317.97206,1.59294
317.73099,1.58376
317.48992,1.58070
317.24885,1.59160
317.00778,1.61939
316.76671,1.65886
316.52564,1.68831
316.28457,1.67425
316.04350,1.63014
315.80243,1.58288
315.56136,1.54252
315.32029,1.50137
315.07922,1.49832
314.83815,1.55503
314.59708,1.60989
314.35601,1.63765
314.11494,1.66702
313.87386,1.70372
313.63279,1.75969
313.39172,1.75576
313.15065,1.66933
312.90958,1.58261
312.66851,1.56441
312.42744,1.60829
312.18637,1.65525
311.94530,1.60057
311.70423,1.50757
311.46316,1.45154
311.22209,1.44902
310.98102,1.48402
310.73995,1.55056
310.49888,1.62795
310.25781,1.61950
310.01674,1.59236
309.77567,1.54920
309.53459,1.48848
309.29352,1.45889
309.05245,1.49085
308.81138,1.55846
308.57031,1.58484
308.32924,1.61018
308.08817,1.64151
307.84710,1.53757
307.60603,1.46395
307.36496,1.47618
307.12389,1.54849
306.88282,1.64539
306.64175,1.68508
306.40068,1.60030
306.15961,1.53641
305.91854,1.51454
305.67747,1.50102
305.43640,1.49698
305.19532,1.52056
304.95425,1.58310
304.71318,1.67097
304.47211,1.72910
304.23104,1.72007
303.98997,1.68325
303.74890,1.65765
303.50783,1.62914
303.26676,1.59274
303.02569,1.57505
302.78462,1.58166
302.54355,1.59961
302.30248,1.61922
302.06141,1.62454
301.82034,1.60213
301.57927,1.55975
301.33820,1.52407
301.09713,1.51698
300.85605,1.52582
300.61498,1.52399
300.37391,1.50574
300.13284,1.49374
299.89177,1.50488
299.65070,1.51254
299.40963,1.48676
299.16856,1.44417
298.92749,1.41652
298.68642,1.42572
298.44535,1.47058
298.20428,1.51982
297.96321,1.51554
297.72214,1.47082
297.48107,1.44136
297.24000,1.45317
296.99893,1.50068
296.75786,1.53759
296.51678,1.51308
296.27571,1.46169
296.03464,1.43977
295.79357,1.45079
295.55250,1.45745
295.31143,1.43005
295.07036,1.39216
294.82929,1.38174
294.58822,1.39881
294.34715,1.41615
294.10608,1.41309
293.86501,1.39342
293.62394,1.37118
293.38287,1.35081
293.14180,1.33751
292.90073,1.33799
292.65966,1.35018
292.41859,1.36370
292.17751,1.37212
291.93644,1.37951
291.69537,1.38751
291.45430,1.38891
291.21323,1.37920
290.97216,1.36705
290.73109,1.35841
290.49002,1.34132
290.24895,1.31137
290.00788,1.28503
289.76681,1.27919
289.52574,1.29425
289.28467,1.31237
289.04360,1.31589
288.80253,1.30728
288.56146,1.29680
288.32039,1.29035
288.07932,1.28947
287.83824,1.29321
287.59717,1.29958
287.35610,1.30361
287.11503,1.30117
286.87396,1.29405
286.63289,1.28625
286.39182,1.27889
286.15075,1.27224
285.90968,1.26880
285.66861,1.27255
285.42754,1.28566
285.18647,1.30584
284.94540,1.32364
284.70433,1.32346
284.46326,1.29719
284.22219,1.25988
283.98112,1.23693
283.74005,1.23932
283.49897,1.25875
283.25790,1.27860
283.01683,1.28616
282.77576,1.28252
282.53469,1.28093
282.29362,1.28976
282.05255,1.30444
281.81148,1.31261
281.57041,1.30813
281.32934,1.29764
281.08827,1.28929
280.84720,1.28480
280.60613,1.28317
280.36506,1.28206
280.12399,1.27672
279.88292,1.26714
279.64185,1.26419
279.40078,1.27787
279.15970,1.29770
278.91863,1.29908
278.67756,1.27647
278.43649,1.25154
278.19542,1.24284
277.95435,1.24984
277.71328,1.26386
277.47221,1.28108
277.23114,1.29849
276.99007,1.30540
276.74900,1.29252
276.50793,1.26914
276.26686,1.25502
276.02579,1.25691
275.78472,1.26494
275.54365,1.26786
275.30258,1.26555
275.06151,1.26237
274.82043,1.25611
274.57936,1.24358
274.33829,1.23012
274.09722,1.22364
273.85615,1.22353
273.61508,1.22248
273.37401,1.21980
273.13294,1.22353
272.89187,1.23725
272.65080,1.25478
272.40973,1.26903
272.16866,1.27900
271.92759,1.28604
271.68652,1.29117
271.44545,1.29711
271.20438,1.30641
270.96331,1.31705
270.72224,1.32060
270.48116,1.31065
270.24009,1.29149
269.99902,1.27415
269.75795,1.26797
269.51688,1.27537
269.27581,1.29069
269.03474,1.30436
268.79367,1.31170
268.55260,1.31597
268.31153,1.31948
268.07046,1.31906
267.82939,1.31716
267.58832,1.32579
267.34725,1.34670
267.10618,1.36274
266.86511,1.36052
266.62404,1.34987
266.38297,1.34992
266.14189,1.36626
265.90082,1.38554
265.65975,1.39090
265.41868,1.38287
265.17761,1.37491
264.93654,1.37464
264.69547,1.38322
264.45440,1.40308
264.21333,1.43409
263.97226,1.46624
263.73119,1.48695
263.49012,1.49661
263.24905,1.50541
263.00798,1.51708
262.76691,1.52705
262.52584,1.53524
262.28477,1.54902
262.04370,1.56935
261.80262,1.58446
261.56155,1.58629
261.32048,1.58687
261.07941,1.60517
260.83834,1.64215
260.59727,1.68042
260.35620,1.70853
260.11513,1.73382
259.87406,1.76737
259.63299,1.80870
259.39192,1.84815
259.15085,1.87001
258.90978,1.86377
258.66871,1.84527
258.42764,1.83743
258.18657,1.83670
257.94550,1.84044
257.70443,1.85441
257.46335,1.87669
257.22228,1.90172
256.98121,1.92746
256.74014,1.93139
256.49907,1.91607
256.25800,1.89458
256.01693,1.87283
255.77586,1.86072
255.53479,1.86034
255.29372,1.86552
255.05265,1.88055
254.81158,1.91295
254.57051,1.94588
254.32944,1.93927
254.08837,1.89005
253.84730,1.84387
253.60623,1.82550
253.36516,1.82210
253.12408,1.81417
252.88301,1.80534
252.64194,1.80432
252.40087,1.81188
252.15980,1.83077
251.91873,1.85235
251.67766,1.84545
251.43659,1.81768
251.19552,1.78318
250.95445,1.74231
250.71338,1.72126
250.47231,1.73744
250.23124,1.77902
249.99017,1.80664
249.74910,1.79505
249.50803,1.76509
249.26696,1.74513
249.02589,1.73674
248.78481,1.72653
248.54374,1.74266
248.30267,1.79219
248.06160,1.80608
247.82053,1.78368
247.57946,1.79283
247.33839,1.81403
247.09732,1.81994
246.85625,1.80990
246.61518,1.79116
246.37411,1.79380
246.13304,1.83541
245.89197,1.88993
245.65090,1.87987
245.40983,1.83730
245.16876,1.78559
244.92769,1.75378
244.68661,1.77427
244.44554,1.84922
244.20447,1.93421
243.96340,2.00346
243.72233,2.07177
243.48126,2.12400
243.24019,2.12575
242.99912,2.10118
242.75805,1.98138
242.51698,1.82581
242.27591,1.73825
242.03484,1.68743
241.79377,1.63944
241.55270,1.57883
241.31163,1.50696
241.07056,1.43738
240.82949,1.37957
240.58842,1.34220
240.34734,1.32675
240.10627,1.32157
239.86520,1.31341
239.62413,1.29763
239.38306,1.27603
239.14199,1.25341
238.90092,1.23593
238.65985,1.22297
238.41878,1.20317
238.17771,1.17105
237.93664,1.13996
237.69557,1.12340
237.45450,1.11580
237.21343,1.10469
236.97236,1.09137
236.73129,1.08696
236.49022,1.09399
236.24915,1.10021
236.00807,1.09238
235.76700,1.07365
235.52593,1.05792
235.28486,1.04989
235.04379,1.04153
234.80272,1.02586
234.56165,1.00675
234.32058,0.99180
234.07951,0.98211
233.83844,0.97289
233.59737,0.96282
233.35630,0.96011
233.11523,0.97280
232.87416,0.99351
232.63309,1.00234
232.39202,0.99278
232.15095,0.98208
231.90988,0.98101
231.66880,0.97744
231.42773,0.96151
231.18666,0.94347
230.94559,0.93127
230.70452,0.91990
230.46345,0.90690
230.22238,0.90053
229.98131,0.90678
229.74024,0.92036
229.49917,0.93219
229.25810,0.94074
229.01703,0.94742
228.77596,0.94730
228.53489,0.93560
228.29382,0.91740
228.05275,0.90136
227.81168,0.89120
227.57061,0.88721
227.32953,0.88922
227.08846,0.89684
226.84739,0.90862
226.60632,0.92095
226.36525,0.92670
226.12418,0.91911
225.88311,0.90126
225.64204,0.88417
225.40097,0.87513
225.15990,0.87374
224.91883,0.87715
224.67776,0.88383
224.43669,0.89190
224.19562,0.89841
223.95455,0.90203
223.71348,0.90399
223.47241,0.90522
223.23134,0.90567
222.99026,0.90542
222.74919,0.90543
222.50812,0.90829
222.26705,0.91754
222.02598,0.93479
221.78491,0.95542
221.54384,0.96741
221.30277,0.96280
221.06170,0.94945
220.82063,0.93708
220.57956,0.92661
220.33849,0.92020
220.09742,0.92401
219.85635,0.93902
219.61528,0.95724
219.37421,0.97308
219.13314,0.98831
218.89207,1.00034
218.65099,1.00663
218.40992,1.01282
218.16885,1.02043
217.92778,1.02684
217.68671,1.03686
217.44564,1.05695
217.20457,1.08095
216.96350,1.09655
216.72243,1.10369
216.48136,1.11243
216.24029,1.12860
215.99922,1.14837
215.75815,1.16373
215.51708,1.17428
215.27601,1.18707
215.03494,1.20407
214.79387,1.21949
214.55280,1.22814
214.31172,1.23044
214.07065,1.23074
213.82958,1.23149
213.58851,1.23094
213.34744,1.23007
213.10637,1.23569
212.86530,1.25256
212.62423,1.27616
212.38316,1.29515
212.14209,1.29790
211.90102,1.27521
211.65995,1.23431
211.41888,1.20087
211.17781,1.19644
210.93674,1.22068
210.69567,1.25359
210.45460,1.27585
210.21353,1.28354
209.97245,1.28022
209.73138,1.26933
209.49031,1.25462
209.24924,1.24125
209.00817,1.23535
208.76710,1.24153
208.52603,1.25809
208.28496,1.27188
208.04389,1.26328
207.80282,1.23349
207.56175,1.20343
207.32068,1.18462
207.07961,1.17995
206.83854,1.19373
206.59747,1.22108
206.35640,1.23357
206.11533,1.20820
205.87426,1.16494
205.63318,1.13085
205.39211,1.11756
205.15104,1.12650
204.90997,1.14924
204.66890,1.16382
204.42783,1.14825
204.18676,1.11125
203.94569,1.07385
203.70462,1.04589
203.46355,1.03283
203.22248,1.03640
202.98141,1.05039
202.74034,1.06161
202.49927,1.05642
202.25820,1.03146
202.01713,0.99779
201.77606,0.96972
201.53499,0.95500
201.29391,0.95243
201.05284,0.95161
200.81177,0.93834
200.57070,0.91024
200.32963,0.88265
200.08856,0.87083
199.84749,0.87689
199.60642,0.88631
199.36535,0.87603
199.12428,0.84535
198.88321,0.81905
198.64214,0.81458
198.40107,0.83101
198.16000,0.84957
197.91893,0.84400
197.67786,0.81326
197.43679,0.78262
197.19572,0.77016
196.95464,0.77556
196.71357,0.78132
196.47250,0.76901
196.23143,0.74632
195.99036,0.73323
195.74929,0.73350
195.50822,0.73467
195.26715,0.72599
195.02608,0.71236
194.78501,0.70494
194.54394,0.70571
194.30287,0.70776
194.06180,0.70672
193.82073,0.70473
193.57966,0.70270
193.33859,0.69856
193.09752,0.69221
192.85645,0.68539
192.61537,0.67893
192.37430,0.67362
192.13323,0.66925
191.89216,0.66225
191.65109,0.65122
191.41002,0.64248
191.16895,0.64191
190.92788,0.64682
190.68681,0.64756
190.44574,0.63852
190.20467,0.62563
189.96360,0.61809
189.72253,0.61916
189.48146,0.62603
189.24039,0.63431
188.99932,0.64142
188.75825,0.64617
188.51718,0.64728
188.27610,0.64416
188.03503,0.63953
187.79396,0.63968
187.55289,0.64683
187.31182,0.65126
187.07075,0.64020
186.82968,0.61934
186.58861,0.60695
186.34754,0.60910
186.10647,0.61358
185.86540,0.60880
185.62433,0.60189
185.38326,0.60303
185.14219,0.60869
184.90112,0.60975
184.66005,0.60864
184.41898,0.61360
184.17791,0.62245
183.93683,0.62642
183.69576,0.62626
183.45469,0.63046
183.21362,0.63936
182.97255,0.64420
182.73148,0.64183
182.49041,0.63991
182.24934,0.64233
182.00827,0.64229
181.76720,0.63516
181.52613,0.62650
181.28506,0.62251
181.04399,0.62297
180.80292,0.62562
180.56185,0.63038
180.32078,0.63652
180.07971,0.64118
179.83864,0.64340
179.59756,0.64556
179.35649,0.64954
179.11542,0.65559
178.87435,0.66408
178.63328,0.67322
178.39221,0.67869
178.15114,0.68042
177.91007,0.68293
177.66900,0.68786
177.42793,0.69417
177.18686,0.70404
176.94579,0.72034
176.70472,0.74211
176.46365,0.76779
176.22258,0.79504
175.98151,0.81728
175.74044,0.83321
175.49937,0.85278
175.25829,0.87620
175.01722,0.88813
174.77615,0.88724
174.53508,0.88547
174.29401,0.88372
174.05294,0.87837
173.81187,0.87564
173.57080,0.88374
173.32973,0.90312
173.08866,0.92942
172.84759,0.96087
172.60652,0.99466
172.36545,1.01865
172.12438,1.02065
171.88331,1.00459
171.64224,0.98354
171.40117,0.96667
171.16010,0.95867
170.91902,0.95980
170.67795,0.96430
170.43688,0.96635
170.19581,0.96748
169.95474,0.97062
169.71367,0.97218
169.47260,0.96746
169.23153,0.95636
168.99046,0.94143
168.74939,0.92609
168.50832,0.91464
168.26725,0.90989
168.02618,0.91134
167.78511,0.91936
167.54404,0.93771
167.30297,0.96349
167.06190,0.97893
166.82083,0.97114
166.57975,0.95076
166.33868,0.93328
166.09761,0.92473
165.85654,0.92493
165.61547,0.93179
165.37440,0.94126
165.13333,0.94889
164.89226,0.95326
164.65119,0.95520
164.41012,0.95388
164.16905,0.94874
163.92798,0.94413
163.68691,0.94595
163.44584,0.95613
163.20477,0.97410
162.96370,0.99799
162.72263,1.02109
162.48156,1.03519
162.24048,1.04051
161.99941,1.04288
161.75834,1.04365
161.51727,1.04155
161.27620,1.03928
161.03513,1.04092
160.79406,1.04639
160.55299,1.05017
160.31192,1.04500
160.07085,1.03003
159.82978,1.01155
159.58871,0.99586
159.34764,0.98661
159.10657,0.98593
158.86550,0.99294
158.62443,1.00279
158.38336,1.01075
158.14229,1.01468
157.90121,1.01216
157.66014,1.00206
157.41907,0.98713
157.17800,0.97219
156.93693,0.96283
156.69586,0.96448
156.45479,0.97907
156.21372,0.99676
155.97265,0.99400
155.73158,0.95954
155.49051,0.91536
155.24944,0.88624
155.00837,0.87935
154.76730,0.88955
154.52623,0.90058
154.28516,0.89169
154.04409,0.86154
153.80302,0.83118
153.56194,0.81713
153.32087,0.81792
153.07980,0.82340
152.83873,0.82782
152.59766,0.82944
152.35659,0.82258
152.11552,0.80023
151.87445,0.76612
151.63338,0.73390
151.39231,0.71447
151.15124,0.71106
150.91017,0.71761
150.66910,0.71868
150.42803,0.70155
150.18696,0.67155
149.94589,0.64572
149.70482,0.63614
149.46375,0.64080
149.22267,0.64385
148.98160,0.63113
148.74053,0.60932
148.49946,0.59502
148.25839,0.59484
148.01732,0.60223
147.77625,0.60466
147.53518,0.59713
147.29411,0.58641
147.05304,0.58148
146.81197,0.58500
146.57090,0.59176
146.32983,0.59495
146.08876,0.59405
145.84769,0.59331
145.60662,0.59457
145.36555,0.59591
145.12448,0.59654
144.88340,0.59901
144.64233,0.60487
144.40126,0.61119
144.16019,0.61465
143.91912,0.61601
143.67805,0.61690
143.43698,0.61598
143.19591,0.61193
142.95484,0.60636
142.71377,0.60176
142.47270,0.59865
142.23163,0.59551
141.99056,0.58967
141.74949,0.57970
141.50842,0.56879
141.26735,0.56273
141.02628,0.56211
140.78521,0.55980
140.54413,0.54954
140.30306,0.53624
140.06199,0.52976
139.82092,0.53153
139.57985,0.53655
139.33878,0.54473
139.09771,0.55877
138.85664,0.57350
138.61557,0.57940
138.37450,0.57657
138.13343,0.57549
137.89236,0.58224
137.65129,0.59185
137.41022,0.59786
137.16915,0.60261
136.92808,0.61244
136.68701,0.62780
136.44594,0.64472
136.20486,0.66243
135.96379,0.68412
135.72272,0.71105
135.48165,0.73964
135.24058,0.76570
134.99951,0.78874
134.75844,0.81177
134.51737,0.83856
134.27630,0.86989
134.03523,0.90185
133.79416,0.93051
133.55309,0.95670
133.31202,0.98287
133.07095,1.00896
132.82988,1.03463
132.58881,1.05674
132.34774,1.06926
132.10667,1.07675
131.86559,1.08931
131.62452,1.10200
131.38345,1.10670
131.14238,1.11313
130.90131,1.12800
130.66024,1.13719
130.41917,1.13154
130.17810,1.11904
129.93703,1.10091
129.69596,1.06784
129.45489,1.01983
129.21382,0.96635
128.97275,0.91408
128.73168,0.86491
128.49061,0.82066
128.24954,0.78271
128.00847,0.75050
127.76740,0.72324
127.52632,0.70208
127.28525,0.68852
127.04418,0.67943
126.80311,0.66758
126.56204,0.64968
126.32097,0.62949
126.07990,0.61278
125.83883,0.60291
125.59776,0.59914
125.35669,0.59676
125.11562,0.59148
124.87455,0.58359
124.63348,0.57470
124.39241,0.56381
124.15134,0.55005
123.91027,0.53514
123.66920,0.52064
123.42812,0.50678
123.18705,0.49408
122.94598,0.48309
122.70491,0.47350
122.46384,0.46559
122.22277,0.46084
121.98170,0.46039
121.74063,0.46375
121.49956,0.46964
121.25849,0.47715
121.01742,0.48539
120.77635,0.49292
120.53528,0.49865
120.29421,0.50357
120.05314,0.51040
119.81207,0.52027
119.57100,0.53154
119.32993,0.54402
119.08885,0.56212
118.84778,0.59075
118.60671,0.62928
118.36564,0.67286
118.12457,0.71847
117.88350,0.76643
117.64243,0.81584
117.40136,0.85777
117.16029,0.87568
116.91922,0.86254
116.67815,0.82605
116.43708,0.78015
116.19601,0.73956
115.95494,0.71174
115.71387,0.69466
115.47280,0.68367
115.23173,0.67913
114.99066,0.68556
114.74958,0.70457
114.50851,0.73136
114.26744,0.75698
114.02637,0.76828
113.78530,0.75282
113.54423,0.71968
113.30316,0.68915
113.06209,0.67099
112.82102,0.66768
112.57995,0.68100
112.33888,0.71014
112.09781,0.74653
111.85674,0.77412
111.61567,0.77889
111.37460,0.75989
111.13353,0.72489
110.89246,0.68510
110.65139,0.65520
110.41031,0.64588
110.16924,0.65741
109.92817,0.68165
109.68710,0.70847
109.44603,0.72880
109.20496,0.73125
108.96389,0.70666
108.72282,0.66401
108.48175,0.62357
108.24068,0.59709
107.99961,0.58436
107.75854,0.57928
107.51747,0.57650
107.27640,0.57496
107.03533,0.57153
106.79426,0.55514
106.55319,0.52204
106.31212,0.48295
106.07104,0.44979
105.82997,0.42909
105.58890,0.42239
105.34783,0.42842
105.10676,0.44217
104.86569,0.45015
104.62462,0.43728
104.38355,0.40574
104.14248,0.37190
103.90141,0.35093
103.66034,0.34929
103.41927,0.36357
103.17820,0.38151
102.93713,0.38517
102.69606,0.36616
102.45499,0.33695
102.21392,0.31384
101.97285,0.30373
101.73177,0.30789
101.49070,0.32567
101.24963,0.34870
101.00856,0.35382
100.76749,0.32661
100.52642,0.28946
100.28535,0.27015
100.04428,0.27773
99.80321,0.30292
99.56214,0.32023
99.32107,0.30915
99.08000,0.28571
98.83893,0.27608
98.59786,0.28861
98.35679,0.31115
98.11572,0.31574
97.87465,0.29302
97.63358,0.26901
97.39250,0.26624
97.15143,0.28217
96.91036,0.29528
96.66929,0.29193
96.42822,0.28406
96.18715,0.28654
95.94608,0.29986
95.70501,0.31435
95.46394,0.32125
95.22287,0.32496
94.98180,0.33633
94.74073,0.35218
94.49966,0.35532
94.25859,0.34200
94.01752,0.33388
93.77645,0.34484
93.53538,0.35890
93.29431,0.34958
93.05323,0.32920
92.81216,0.32960
92.57109,0.34957
92.33002,0.35665
92.08895,0.34166
91.84788,0.33459
91.60681,0.34805
91.36574,0.36424
91.12467,0.36811
90.88360,0.37532
90.64253,0.40105
90.40146,0.43097
90.16039,0.45123
89.91932,0.47987
89.67825,0.53087
89.43718,0.58742
89.19611,0.63088
88.95504,0.66105
88.71396,0.67231
88.47289,0.67462
88.23182,0.68849
87.99075,0.70063
87.74968,0.68902
87.50861,0.66870
87.26754,0.65128
87.02647,0.62360
86.78540,0.58362
86.54433,0.54582
86.30326,0.51670
86.06219,0.48984
85.82112,0.46403
85.58005,0.44196
85.33898,0.41946
85.09791,0.39384
84.85684,0.37027
84.61577,0.35196
84.37469,0.33535
84.13362,0.31791
83.89255,0.30195
83.65148,0.28924
83.41041,0.27804
83.16934,0.26761
82.92827,0.25994
82.68720,0.25487
82.44613,0.24845
82.20506,0.23915
81.96399,0.22942
81.72292,0.22022
81.48185,0.21046
81.24078,0.20185
80.99971,0.19851
80.75864,0.20026
80.51757,0.20160
80.27650,0.19944
80.03542,0.19727
79.79435,0.19929
79.55328,0.20486
79.31221,0.21020
79.07114,0.21200
78.83007,0.20930
78.58900,0.20403
78.34793,0.19895
78.10686,0.19492
77.86579,0.19085
77.62472,0.18601
77.38365,0.18182
77.14258,0.18148
76.90151,0.18645
76.66044,0.19196
76.41937,0.19063
76.17830,0.18374
75.93723,0.18125
75.69615,0.18929
75.45508,0.20339
75.21401,0.21231
74.97294,0.20739
74.73187,0.19107
74.49080,0.17376
74.24973,0.16486
74.00866,0.16913
73.76759,0.18460
73.52652,0.20147
73.28545,0.20755
73.04438,0.19928
72.80331,0.18569
72.56224,0.17787
72.32117,0.18091
72.08010,0.19565
71.83903,0.21789
71.59796,0.23436
71.35688,0.23103
71.11581,0.21072
70.87474,0.18733
70.63367,0.17072
70.39260,0.16423
70.15153,0.16772
69.91046,0.17955
69.66939,0.19925
69.42832,0.22919
69.18725,0.26851
68.94618,0.30051
68.70511,0.29548
68.46404,0.25257
68.22297,0.20229
67.98190,0.16274
67.74083,0.13625
67.49976,0.11970
67.25869,0.10895
67.01761,0.10145
66.77654,0.09715
66.53547,0.09736
66.29440,0.10298
66.05333,0.11370
65.81226,0.12931
65.57119,0.15013
65.33012,0.17553
65.08905,0.20402
64.84798,0.23475
64.60691,0.26584
64.36584,0.29188
64.12477,0.30696
63.88370,0.30972
63.64263,0.30040
63.40156,0.27824
63.16049,0.24840
62.91942,0.22391
62.67834,0.21392
62.43727,0.21325
62.19620,0.20805
61.95513,0.19236
61.71406,0.17327
61.47299,0.15870
61.23192,0.14840
60.99085,0.13766
60.74978,0.12333
60.50871,0.10555
60.26764,0.08694
60.02657,0.07052
59.78550,0.05735
59.54443,0.04677
59.30336,0.03975
59.06229,0.04022
58.82122,0.05142
58.58015,0.07416
58.33907,0.11097
58.09800,0.16829
57.85693,0.25859
57.61586,0.35857
57.37479,0.30821
57.13372,0.19866
56.89265,0.11891
56.65158,0.06973
56.41051,0.04157
56.16944,0.02888
55.92837,0.03482
55.68730,0.06668
55.44623,0.12478
55.20516,0.19935
54.96409,0.25694
54.72302,0.23388
54.48195,0.15712
54.24088,0.09104
53.99980,0.05619
53.75873,0.05691
53.51766,0.09269
53.27659,0.15827
53.03552,0.25784
52.79445,0.36439
52.55338,0.30202
52.31231,0.19377
52.07124,0.11934
51.83017,0.07651
51.58910,0.06675
51.34803,0.10532
51.10696,0.22293
50.86589,0.34003
50.62482,0.16773
50.38375,0.03100
50.14268,-0.02645
49.90161,-0.02123
49.66053,0.06790
49.41946,0.24148
49.17839,0.23906
48.93732,0.06372
48.69625,-0.01500
48.45518,0.01556
48.21411,0.13828
47.97304,0.21625
47.73197,0.10293
47.49090,0.03485
47.24983,0.06971
47.00876,0.14479
46.76769,0.10359
46.52662,0.02478
46.28555,0.02554
46.04448,0.08001
45.80341,0.07415
45.56234,0.01356
45.32126,0.00602
45.08019,0.06764
44.83912,0.10731
44.59805,0.05142
44.35698,0.00941
44.11591,0.01741
43.87484,0.03290
43.63377,0.04796
43.39270,0.07884
43.15163,0.10185
42.91056,0.10839
42.66949,0.11709
42.42842,0.11354
42.18735,0.09459
41.94628,0.09280
41.70521,0.10780
41.46414,0.11085
41.22307,0.10657
40.98199,0.11402
40.74092,0.12147
40.49985,0.11199
40.25878,0.09450
40.01771,0.08399
39.77664,0.08941
39.53557,0.11513
39.29450,0.15638
39.05343,0.19426
38.81236,0.20957
38.57129,0.20987
38.33022,0.20811
38.08915,0.20124
37.84808,0.18360
37.60701,0.16485
37.36594,0.15406
37.12487,0.13836
36.88380,0.11415
36.64272,0.09941
36.40165,0.10142
36.16058,0.10797
35.91951,0.10688
35.67844,0.10487
35.43737,0.11038
35.19630,0.11379
34.95523,0.10355
34.71416,0.09580
34.47309,0.10893
34.23202,0.13149
33.99095,0.14652
33.74988,0.15713
33.50881,0.16916
33.26774,0.17118
33.02667,0.14778
32.78560,0.10759
32.54453,0.08817
32.30345,0.10536
32.06238,0.12737
31.82131,0.11637
31.58024,0.07534
31.33917,0.03481
31.09810,0.01089
30.85703,-0.00136
30.61596,-0.01015
30.37489,-0.01796
30.13382,-0.02050
29.89275,-0.00951
29.65168,0.01836
29.41061,0.05489
29.16954,0.07410
28.92847,0.05348
28.68740,0.01991
28.44633,0.01934
28.20526,0.05546
27.96418,0.09320
27.72311,0.10389
27.48204,0.09197
27.24097,0.07488
26.99990,0.05778
26.75883,0.04080
26.51776,0.03355
26.27669,0.04534
26.03562,0.06037
25.79455,0.05705
25.55348,0.03165
25.31241,-0.00662
25.07134,-0.04045
24.83027,-0.05849
24.58920,-0.06577
24.34813,-0.07031
24.10706,-0.07815
23.86599,-0.09334
23.62491,-0.11025
23.38384,-0.10993
23.14277,-0.08536
22.90170,-0.07162
22.66063,-0.06762
22.41956,-0.04497
22.17849,-0.00386
21.93742,0.02711
21.69635,0.02896
21.45528,0.01287
21.21421,0.00842
20.97314,0.02252
20.73207,0.02216
20.49100,-0.01398
20.24993,-0.08022
20.00886,-0.15133
19.76779,-0.18396
19.52672,-0.14519
19.28564,-0.06211
19.04457,-0.00068
18.80350,0.00354
18.56243,-0.03927
18.32136,-0.09276
18.08029,-0.12620
17.83922,-0.14650
17.59815,-0.15686
17.35708,-0.12976
17.11601,-0.07011
16.87494,-0.03130
16.63387,-0.04883
16.39280,-0.09988
16.15173,-0.11666
15.91066,-0.11997
15.66959,-0.07191
15.42852,-0.03814
15.18745,-0.03996
14.94637,-0.07148
14.70530,-0.13187
14.46423,-0.21112
14.22316,-0.25570
13.98209,-0.26431
13.74102,-0.25820
13.49995,-0.21493
13.25888,-0.14556
13.01781,-0.09421
12.77674,-0.07275
12.53567,-0.05427
12.29460,-0.04341
12.05353,-0.05491
11.81246,-0.05431
11.57139,-0.05637
11.33032,-0.09323
11.08925,-0.11879
10.84818,-0.11387
10.60710,-0.10647
10.36603,-0.11911
10.12496,-0.11195
9.88389,-0.08393
9.64282,-0.02563
9.40175,0.03606
9.16068,0.04868
8.91961,0.01095
8.67854,-0.03006
8.43747,-0.05271
8.19640,-0.05483
7.95533,-0.05664
7.71426,-0.05210
7.47319,-0.05644
7.23212,-0.06805
6.99105,-0.05561
6.74998,-0.01825
6.50891,0.00418
6.26783,-0.01211
6.02676,-0.05766
5.78569,-0.09626
5.54462,-0.09401
5.30355,-0.06803
5.06248,-0.03985
4.82141,-0.00224
4.58034,0.02743
4.33927,0.03158
4.09820,0.01383
3.85713,-0.01058
3.61606,-0.06364
3.37499,-0.10183
3.13392,-0.07924
2.89285,-0.04174
2.65178,-0.01278
2.41071,-0.00481
2.16964,-0.02046
1.92856,-0.03207
1.68749,-0.02866
1.44642,-0.01725
1.20535,-0.02919
0.96428,-0.07135
0.72321,-0.12082
0.48214,-0.14824
0.24107,-0.14377
-0.00000,-0.07411
