399.69498,1.60927
399.45391,1.60392
399.21284,1.61856
398.97177,1.64485
398.73070,1.66256
398.48963,1.66178
398.24856,1.64471
398.00749,1.61956
397.76642,1.60063
397.52535,1.59499
397.28428,1.59465
397.04321,1.59040
396.80214,1.58441
396.56107,1.58312
396.32000,1.58677
396.07892,1.59142
395.83785,1.59535
395.59678,1.59976
395.35571,1.60671
395.11464,1.61817
394.87357,1.63380
394.63250,1.64556
394.39143,1.64228
394.15036,1.62665
393.90929,1.61360
393.66822,1.61479
393.42715,1.63187
393.18608,1.65432
392.94501,1.65918
392.70394,1.63009
392.46287,1.58283
392.22180,1.54817
391.98073,1.53917
391.73965,1.54546
391.49858,1.54803
391.25751,1.53885
391.01644,1.52637
390.77537,1.52567
390.53430,1.54613
390.29323,1.57965
390.05216,1.60160
389.81109,1.59703
389.57002,1.57695
389.32895,1.55726
389.08788,1.54269
388.84681,1.53284
388.60574,1.52715
388.36467,1.52593
388.12360,1.53216
387.88253,1.54978
387.64146,1.57276
387.40038,1.57919
387.15931,1.55574
386.91824,1.51835
386.67717,1.49160
386.43610,1.48570
386.19503,1.49556
385.95396,1.51432
385.71289,1.53653
385.47182,1.55159
385.23075,1.54883
384.98968,1.52664
384.74861,1.49135
384.50754,1.45464
384.26647,1.42639
384.02540,1.40520
383.78433,1.38714
383.54326,1.37651
383.30219,1.37144
383.06111,1.35488
382.82004,1.32430
382.57897,1.29948
382.33790,1.29374
382.09683,1.30471
381.85576,1.32412
381.61469,1.34469
381.37362,1.35872
381.13255,1.36476
380.89148,1.37016
380.65041,1.37742
380.40934,1.37753
380.16827,1.36460
379.92720,1.34851
379.68613,1.34315
379.44506,1.35205
379.20399,1.36670
378.96292,1.37104
378.72184,1.35704
378.48077,1.33933
378.23970,1.33287
377.99863,1.33051
377.75756,1.31931
377.51649,1.30736
377.27542,1.31552
377.03435,1.35410
376.79328,1.41195
376.55221,1.45882
376.31114,1.46946
376.07007,1.45042
375.82900,1.42829
375.58793,1.42057
375.34686,1.42989
375.10579,1.44973
374.86472,1.46882
374.62365,1.48104
374.38257,1.48858
374.14150,1.49218
373.90043,1.49229
373.65936,1.49370
373.41829,1.49507
373.17722,1.48865
372.93615,1.48001
372.69508,1.48511
372.45401,1.50217
372.21294,1.50764
371.97187,1.48808
371.73080,1.45853
371.48973,1.43942
371.24866,1.43694
371.00759,1.44450
370.76652,1.44933
370.52545,1.44360
370.28437,1.43178
370.04330,1.42495
369.80223,1.42810
369.56116,1.43550
369.32009,1.43834
369.07902,1.43298
368.83795,1.42221
368.59688,1.41184
368.35581,1.40702
368.11474,1.40675
367.87367,1.40221
367.63260,1.38772
367.39153,1.37174
367.15046,1.36823
366.90939,1.38094
366.66832,1.40053
366.42725,1.41519
366.18618,1.42158
365.94510,1.42232
365.70403,1.41976
365.46296,1.41186
365.22189,1.39329
364.98082,1.36476
364.73975,1.33765
364.49868,1.32442
364.25761,1.32734
364.01654,1.33943
363.77547,1.35212
363.53440,1.36037
363.29333,1.36317
363.05226,1.36353
362.81119,1.36706
362.57012,1.37506
362.32905,1.38167
362.08798,1.38076
361.84691,1.37290
361.60583,1.36358
361.36476,1.35740
361.12369,1.35552
360.88262,1.35477
360.64155,1.35062
360.40048,1.34563
360.15941,1.34823
359.91834,1.36043
359.67727,1.37354
359.43620,1.37844
359.19513,1.37443
358.95406,1.36502
358.71299,1.35123
358.47192,1.33320
358.23085,1.31431
357.98978,1.30159
357.74871,1.30347
357.50764,1.32189
357.26656,1.34398
357.02549,1.35040
356.78442,1.33896
356.54335,1.32694
356.30228,1.32564
356.06121,1.32723
355.82014,1.32098
355.57907,1.30857
355.33800,1.29807
355.09693,1.29508
354.85586,1.30026
354.61479,1.31007
354.37372,1.31986
354.13265,1.32786
353.89158,1.33420
353.65051,1.33745
353.40944,1.33566
353.16837,1.32966
352.92729,1.32302
352.68622,1.31904
352.44515,1.31766
352.20408,1.31540
351.96301,1.30930
351.72194,1.30044
351.48087,1.29319
351.23980,1.29213
350.99873,1.30004
350.75766,1.31506
350.51659,1.32881
350.27552,1.33354
350.03445,1.33169
349.79338,1.33019
349.55231,1.33000
349.31124,1.32931
349.07017,1.33067
348.82910,1.33492
348.58802,1.33503
348.34695,1.32566
348.10588,1.31162
347.86481,1.30381
347.62374,1.31071
347.38267,1.33227
347.14160,1.35952
346.90053,1.37759
346.65946,1.37382
346.41839,1.35012
346.17732,1.32330
345.93625,1.30916
345.69518,1.31339
345.45411,1.33304
345.21304,1.35741
344.97197,1.37036
344.73090,1.36323
344.48983,1.34696
344.24875,1.34131
344.00768,1.35364
343.76661,1.37403
343.52554,1.38596
343.28447,1.38364
343.04340,1.37577
342.80233,1.37189
342.56126,1.37645
342.32019,1.39257
342.07912,1.41982
341.83805,1.44745
341.59698,1.46139
341.35591,1.45876
341.11484,1.44482
340.87377,1.42540
340.63270,1.40845
340.39163,1.40069
340.15056,1.40066
339.90948,1.40213
339.66841,1.40605
339.42734,1.41882
339.18627,1.43753
338.94520,1.45013
338.70413,1.45138
338.46306,1.44695
338.22199,1.44387
337.98092,1.44567
337.73985,1.44777
337.49878,1.44235
337.25771,1.43206
337.01664,1.42311
336.77557,1.41877
336.53450,1.41871
336.29343,1.41972
336.05236,1.42237
335.81129,1.43018
335.57021,1.44250
335.32914,1.44997
335.08807,1.44358
334.84700,1.42771
334.60593,1.41674
334.36486,1.42009
334.12379,1.43310
333.88272,1.44280
333.64165,1.44407
333.40058,1.44300
333.15951,1.44263
332.91844,1.43706
332.67737,1.42346
332.43630,1.41080
332.19523,1.40667
331.95416,1.40652
331.71309,1.40229
331.47202,1.39350
331.23094,1.38457
330.98987,1.37854
330.74880,1.37469
330.50773,1.36971
330.26666,1.36535
330.02559,1.36734
329.78452,1.37660
329.54345,1.38455
329.30238,1.38245
329.06131,1.37601
328.82024,1.37690
328.57917,1.38373
328.33810,1.38422
328.09703,1.37585
327.85596,1.36900
327.61489,1.36994
327.37382,1.37528
327.13275,1.38306
326.89167,1.39566
326.65060,1.40314
326.40953,1.38582
326.16846,1.34678
325.92739,1.31224
325.68632,1.30228
325.44525,1.31610
325.20418,1.34128
324.96311,1.36786
324.72204,1.38785
324.48097,1.39353
324.23990,1.38415
323.99883,1.36854
323.75776,1.35709
323.51669,1.34979
323.27562,1.33639
323.03455,1.31719
322.79348,1.31403
322.55240,1.34320
322.31133,1.38818
322.07026,1.41146
321.82919,1.40341
321.58812,1.39068
321.34705,1.38708
321.10598,1.38173
320.86491,1.37186
320.62384,1.36783
320.38277,1.37154
320.14170,1.37744
319.90063,1.38620
319.65956,1.39908
319.41849,1.40421
319.17742,1.38802
318.93635,1.35722
318.69528,1.33241
318.45421,1.32615
318.21313,1.33604
317.97206,1.35606
317.73099,1.38012
317.48992,1.39654
317.24885,1.39502
317.00778,1.37970
316.76671,1.36694
316.52564,1.36778
316.28457,1.38018
316.04350,1.39939
315.80243,1.42272
315.56136,1.44973
315.32029,1.47398
315.07922,1.47821
314.83815,1.46212
314.59708,1.44647
314.35601,1.43488
314.11494,1.41537
313.87386,1.38887
313.63279,1.37206
313.39172,1.37861
313.15065,1.40773
312.90958,1.44511
312.66851,1.47006
312.42744,1.46723
312.18637,1.43893
311.94530,1.40433
311.70423,1.38327
311.46316,1.38404
311.22209,1.40131
310.98102,1.42184
310.73995,1.43230
310.49888,1.42650
310.25781,1.41178
310.01674,1.40122
309.77567,1.40268
309.53459,1.41566
309.29352,1.43419
309.05245,1.45233
308.81138,1.46317
308.57031,1.46162
308.32924,1.45516
308.08817,1.45607
307.84710,1.46564
307.60603,1.47337
307.36496,1.46775
307.12389,1.45152
306.88282,1.43879
306.64175,1.43566
306.40068,1.43675
306.15961,1.43890
305.91854,1.44597
305.67747,1.46005
305.43640,1.47689
305.19532,1.48982
304.95425,1.49493
304.71318,1.48637
304.47211,1.45506
304.23104,1.41007
303.98997,1.37761
303.74890,1.37158
303.50783,1.38267
303.26676,1.39343
303.02569,1.39410
302.78462,1.38340
302.54355,1.36977
302.30248,1.36677
302.06141,1.37770
301.82034,1.39200
301.57927,1.39987
301.33820,1.40246
301.09713,1.40310
300.85605,1.39920
300.61498,1.38778
300.37391,1.37228
300.13284,1.35928
299.89177,1.35146
299.65070,1.34634
299.40963,1.34055
299.16856,1.33316
298.92749,1.32616
298.68642,1.32324
298.44535,1.32530
298.20428,1.32906
297.96321,1.33055
297.72214,1.32815
297.48107,1.32267
297.24000,1.31662
296.99893,1.31290
296.75786,1.31141
296.51678,1.30875
296.27571,1.30360
296.03464,1.29861
295.79357,1.29525
295.55250,1.29231
295.31143,1.28989
295.07036,1.28754
294.82929,1.28073
294.58822,1.26667
294.34715,1.24906
294.10608,1.23383
293.86501,1.22533
293.62394,1.22610
293.38287,1.23516
293.14180,1.24629
292.90073,1.25231
292.65966,1.25141
292.41859,1.24726
292.17751,1.24414
291.93644,1.24447
291.69537,1.24748
291.45430,1.24785
291.21323,1.24247
290.97216,1.23688
290.73109,1.23768
290.49002,1.24202
290.24895,1.24006
290.00788,1.22657
289.76681,1.20695
289.52574,1.19232
289.28467,1.18925
289.04360,1.19551
288.80253,1.20288
288.56146,1.20402
288.32039,1.19922
288.07932,1.19465
287.83824,1.19520
287.59717,1.20076
287.35610,1.20760
287.11503,1.21158
286.87396,1.21054
286.63289,1.20527
286.39182,1.19828
286.15075,1.19100
285.90968,1.18350
285.66861,1.17760
285.42754,1.17680
285.18647,1.18120
284.94540,1.18570
284.70433,1.18640
284.46326,1.18622
284.22219,1.18863
283.98112,1.18931
283.74005,1.18191
283.49897,1.16991
283.25790,1.16395
283.01683,1.16903
282.77576,1.18008
282.53469,1.18932
282.29362,1.19365
282.05255,1.19444
281.81148,1.19367
281.57041,1.19238
281.32934,1.19155
281.08827,1.19208
280.84720,1.19304
280.60613,1.19134
280.36506,1.18440
280.12399,1.17339
279.88292,1.16336
279.64185,1.15956
279.40078,1.16309
279.15970,1.16964
278.91863,1.17368
278.67756,1.17418
278.43649,1.17419
278.19542,1.17684
277.95435,1.18305
277.71328,1.18977
277.47221,1.19222
277.23114,1.19000
276.99007,1.18712
276.74900,1.18469
276.50793,1.17936
276.26686,1.17105
276.02579,1.16529
275.78472,1.16609
275.54365,1.17233
275.30258,1.18019
275.06151,1.18601
274.82043,1.18897
274.57936,1.19147
274.33829,1.19559
274.09722,1.20043
273.85615,1.20368
273.61508,1.20410
273.37401,1.20204
273.13294,1.19989
272.89187,1.20101
272.65080,1.20558
272.40973,1.20918
272.16866,1.20842
271.92759,1.20579
271.68652,1.20618
271.44545,1.20970
271.20438,1.21101
270.96331,1.20711
270.72224,1.20212
270.48116,1.20223
270.24009,1.20907
269.99902,1.21982
269.75795,1.23076
269.51688,1.23859
269.27581,1.24197
269.03474,1.24354
268.79367,1.24629
268.55260,1.24985
268.31153,1.25335
268.07046,1.25711
267.82939,1.25993
267.58832,1.26049
267.34725,1.26117
267.10618,1.26536
266.86511,1.27289
266.62404,1.28116
266.38297,1.28824
266.14189,1.29333
265.90082,1.29506
265.65975,1.29346
265.41868,1.29294
265.17761,1.29878
264.93654,1.31105
264.69547,1.32426
264.45440,1.33404
264.21333,1.34260
263.97226,1.35505
263.73119,1.37313
263.49012,1.39570
263.24905,1.41996
263.00798,1.44005
262.76691,1.45013
262.52584,1.44934
262.28477,1.44223
262.04370,1.43655
261.80262,1.44107
261.56155,1.46118
261.32048,1.49401
261.07941,1.53198
260.83834,1.57030
260.59727,1.60816
260.35620,1.64490
260.11513,1.67353
259.87406,1.68359
259.63299,1.67977
259.39192,1.67969
259.15085,1.69044
258.90978,1.70291
258.66871,1.70893
258.42764,1.71715
258.18657,1.74134
257.94550,1.77452
257.70443,1.80025
257.46335,1.81913
257.22228,1.84407
256.98121,1.87938
256.74014,1.90851
256.49907,1.91505
256.25800,1.89876
256.01693,1.86762
255.77586,1.82897
255.53479,1.79265
255.29372,1.77104
255.05265,1.76624
254.81158,1.76662
254.57051,1.76049
254.32944,1.74669
254.08837,1.72930
253.84730,1.71458
253.60623,1.71238
253.36516,1.72418
253.12408,1.73704
252.88301,1.74045
252.64194,1.73431
252.40087,1.72338
252.15980,1.71469
251.91873,1.70704
251.67766,1.69270
251.43659,1.67022
251.19552,1.64732
250.95445,1.62955
250.71338,1.61335
250.47231,1.59810
250.23124,1.59348
249.99017,1.60347
249.74910,1.61933
249.50803,1.63807
249.26696,1.66340
249.02589,1.68109
248.78481,1.66714
248.54374,1.63275
248.30267,1.61728
248.06160,1.63742
247.82053,1.67223
247.57946,1.69242
247.33839,1.69633
247.09732,1.68958
246.85625,1.66918
246.61518,1.64333
246.37411,1.62722
246.13304,1.63147
245.89197,1.65549
245.65090,1.68496
245.40983,1.70738
245.16876,1.72227
244.92769,1.73186
244.68661,1.74251
244.44554,1.76436
244.20447,1.80396
243.96340,1.85083
243.72233,1.88914
243.48126,1.92557
243.24019,1.96885
242.99912,2.00065
242.75805,2.00039
242.51698,1.97034
242.27591,1.91045
242.03484,1.82954
241.79377,1.74391
241.55270,1.65510
241.31163,1.57176
241.07056,1.50777
240.82949,1.46552
240.58842,1.43356
240.34734,1.39689
240.10627,1.35160
239.86520,1.30720
239.62413,1.27317
239.38306,1.24882
239.14199,1.22671
238.90092,1.20299
238.65985,1.18085
238.41878,1.16317
238.17771,1.14748
237.93664,1.13080
237.69557,1.11488
237.45450,1.10280
237.21343,1.09317
236.97236,1.08169
236.73129,1.06705
236.49022,1.05194
236.24915,1.03901
236.00807,1.02755
235.76700,1.01478
235.52593,1.00086
235.28486,0.99030
235.04379,0.98621
234.80272,0.98484
234.56165,0.97874
234.32058,0.96596
234.07951,0.95292
233.83844,0.94687
233.59737,0.94781
233.35630,0.94888
233.11523,0.94453
232.87416,0.93624
232.63309,0.92867
232.39202,0.92423
232.15095,0.92343
231.90988,0.92612
231.66880,0.93000
231.42773,0.93028
231.18666,0.92438
230.94559,0.91551
230.70452,0.90871
230.46345,0.90491
230.22238,0.90115
229.98131,0.89579
229.74024,0.89039
229.49917,0.88601
229.25810,0.88227
229.01703,0.88114
228.77596,0.88623
228.53489,0.89617
228.29382,0.90316
228.05275,0.90135
227.81168,0.89328
227.57061,0.88437
227.32953,0.87634
227.08846,0.86864
226.84739,0.86166
226.60632,0.85663
226.36525,0.85456
226.12418,0.85526
225.88311,0.85732
225.64204,0.86024
225.40097,0.86473
225.15990,0.86922
224.91883,0.87008
224.67776,0.86717
224.43669,0.86385
224.19562,0.86183
223.95455,0.86115
223.71348,0.86260
223.47241,0.86553
223.23134,0.86783
222.99026,0.87018
222.74919,0.87546
222.50812,0.88326
222.26705,0.88929
222.02598,0.89058
221.78491,0.88863
221.54384,0.88756
221.30277,0.89049
221.06170,0.89776
220.82063,0.90759
220.57956,0.91738
220.33849,0.92524
220.09742,0.93265
219.85635,0.94309
219.61528,0.95635
219.37421,0.96741
219.13314,0.97301
218.89207,0.97613
218.65099,0.98225
218.40992,0.99334
218.16885,1.00705
217.92778,1.02124
217.68671,1.03634
217.44564,1.05145
217.20457,1.06232
216.96350,1.06619
216.72243,1.06628
216.48136,1.06951
216.24029,1.08092
215.99922,1.09985
215.75815,1.12058
215.51708,1.13781
215.27601,1.14998
215.03494,1.15675
214.79387,1.15972
214.55280,1.16363
214.31172,1.17144
214.07065,1.18106
213.82958,1.18955
213.58851,1.19755
213.34744,1.20660
213.10637,1.21447
212.86530,1.21645
212.62423,1.21266
212.38316,1.21103
212.14209,1.21765
211.90102,1.22853
211.65995,1.23646
211.41888,1.24181
211.17781,1.25068
210.93674,1.26448
210.69567,1.27590
210.45460,1.27758
210.21353,1.27181
209.97245,1.26641
209.73138,1.26453
209.49031,1.26388
209.24924,1.26284
209.00817,1.26209
208.76710,1.25986
208.52603,1.24946
208.28496,1.22776
208.04389,1.20349
207.80282,1.18992
207.56175,1.19186
207.32068,1.20230
207.07961,1.20908
206.83854,1.20415
206.59747,1.18807
206.35640,1.16791
206.11533,1.15284
205.87426,1.14788
205.63318,1.14824
205.39211,1.14458
205.15104,1.13415
204.90997,1.12006
204.66890,1.10497
204.42783,1.09100
204.18676,1.08012
203.94569,1.07128
203.70462,1.06124
203.46355,1.04912
203.22248,1.03645
202.98141,1.02339
202.74034,1.00851
202.49927,0.99262
202.25820,0.97918
202.01713,0.96870
201.77606,0.95626
201.53499,0.93836
201.29391,0.91838
201.05284,0.90184
200.81177,0.88986
200.57070,0.88023
200.32963,0.87142
200.08856,0.86252
199.84749,0.85169
199.60642,0.83825
199.36535,0.82494
199.12428,0.81608
198.88321,0.81324
198.64214,0.81284
198.40107,0.80856
198.16000,0.79764
197.91893,0.78430
197.67786,0.77507
197.43679,0.77141
197.19572,0.76831
196.95464,0.76008
196.71357,0.74635
196.47250,0.73128
196.23143,0.71910
195.99036,0.71234
195.74929,0.71123
195.50822,0.71183
195.26715,0.70745
195.02608,0.69594
194.78501,0.68359
194.54394,0.67826
194.30287,0.68029
194.06180,0.68159
193.82073,0.67478
193.57966,0.66230
193.33859,0.65226
193.09752,0.64848
192.85645,0.64790
192.61537,0.64504
192.37430,0.63784
192.13323,0.62968
191.89216,0.62536
191.65109,0.62606
191.41002,0.62784
191.16895,0.62612
190.92788,0.62173
190.68681,0.61863
190.44574,0.61714
190.20467,0.61364
189.96360,0.60727
189.72253,0.60209
189.48146,0.60120
189.24039,0.60257
188.99932,0.60226
188.75825,0.59979
188.51718,0.59782
188.27610,0.59758
188.03503,0.59770
187.79396,0.59668
187.55289,0.59455
187.31182,0.59203
187.07075,0.58949
186.82968,0.58683
186.58861,0.58443
186.34754,0.58381
186.10647,0.58564
185.86540,0.58741
185.62433,0.58585
185.38326,0.58217
185.14219,0.58070
184.90112,0.58237
184.66005,0.58427
184.41898,0.58580
184.17791,0.58976
183.93683,0.59616
183.69576,0.60057
183.45469,0.60074
183.21362,0.59942
182.97255,0.59861
182.73148,0.59676
182.49041,0.59336
182.24934,0.59066
182.00827,0.58976
181.76720,0.58976
181.52613,0.59069
181.28506,0.59325
181.04399,0.59642
180.80292,0.59885
180.56185,0.60123
180.32078,0.60463
180.07971,0.60874
179.83864,0.61262
179.59756,0.61570
179.35649,0.61821
179.11542,0.62145
178.87435,0.62653
178.63328,0.63342
178.39221,0.64214
178.15114,0.65275
177.91007,0.66340
177.66900,0.67191
177.42793,0.67925
177.18686,0.68788
176.94579,0.69816
176.70472,0.70963
176.46365,0.72316
176.22258,0.73901
175.98151,0.75517
175.74044,0.77011
175.49937,0.78469
175.25829,0.79980
175.01722,0.81530
174.77615,0.83287
174.53508,0.85543
174.29401,0.88091
174.05294,0.90140
173.81187,0.91263
173.57080,0.91962
173.32973,0.92865
173.08866,0.93919
172.84759,0.94745
172.60652,0.95286
172.36545,0.95783
172.12438,0.96258
171.88331,0.96386
171.64224,0.96123
171.40117,0.96147
171.16010,0.96984
170.91902,0.98001
170.67795,0.97953
170.43688,0.96629
170.19581,0.95062
169.95474,0.93962
169.71367,0.93106
169.47260,0.92214
169.23153,0.91431
168.99046,0.90937
168.74939,0.90811
168.50832,0.91201
168.26725,0.92028
168.02618,0.92628
167.78511,0.92371
167.54404,0.91466
167.30297,0.90602
167.06190,0.90178
166.82083,0.90210
166.57975,0.90558
166.33868,0.91077
166.09761,0.91748
165.85654,0.92613
165.61547,0.93499
165.37440,0.94023
165.13333,0.94020
164.89226,0.93796
164.65119,0.93845
164.41012,0.94454
164.16905,0.95544
163.92798,0.96799
163.68691,0.97892
163.44584,0.98694
163.20477,0.99377
162.96370,1.00168
162.72263,1.00931
162.48156,1.01254
162.24048,1.01018
161.99941,1.00627
161.75834,1.00564
161.51727,1.00951
161.27620,1.01560
161.03513,1.02064
160.79406,1.02285
160.55299,1.02230
160.31192,1.01761
160.07085,1.00550
159.82978,0.98781
159.58871,0.97303
159.34764,0.96764
159.10657,0.97043
158.86550,0.97598
158.62443,0.97957
158.38336,0.97806
158.14229,0.97072
157.90121,0.96043
157.66014,0.95162
157.41907,0.94763
157.17800,0.95024
156.93693,0.95816
156.69586,0.96489
156.45479,0.96186
156.21372,0.94667
155.97265,0.92581
155.73158,0.90801
155.49051,0.89741
155.24944,0.89223
155.00837,0.88813
154.76730,0.88223
154.52623,0.87351
154.28516,0.86165
154.04409,0.84778
153.80302,0.83433
153.56194,0.82272
153.32087,0.81225
153.07980,0.80101
152.83873,0.78745
152.59766,0.77199
152.35659,0.75709
152.11552,0.74523
151.87445,0.73629
151.63338,0.72724
151.39231,0.71525
151.15124,0.70024
150.91017,0.68379
150.66910,0.66736
150.42803,0.65253
150.18696,0.64053
149.94589,0.63075
149.70482,0.62120
149.46375,0.61100
149.22267,0.60079
148.98160,0.59112
148.74053,0.58262
148.49946,0.57683
148.25839,0.57467
148.01732,0.57418
147.77625,0.57166
147.53518,0.56590
147.29411,0.56008
147.05304,0.55834
146.81197,0.56111
146.57090,0.56443
146.32983,0.56475
146.08876,0.56342
145.84769,0.56459
145.60662,0.56975
145.36555,0.57637
145.12448,0.58140
144.88340,0.58475
144.64233,0.58901
144.40126,0.59597
144.16019,0.60419
143.91912,0.61004
143.67805,0.61140
143.43698,0.60927
143.19591,0.60525
142.95484,0.59934
142.71377,0.59096
142.47270,0.58059
142.23163,0.56996
141.99056,0.56050
141.74949,0.55217
141.50842,0.54394
141.26735,0.53553
141.02628,0.52800
140.78521,0.52260
140.54413,0.51943
140.30306,0.51730
140.06199,0.51512
139.82092,0.51339
139.57985,0.51359
139.33878,0.51661
139.09771,0.52224
138.85664,0.52950
138.61557,0.53665
138.37450,0.54244
138.13343,0.54795
137.89236,0.55555
137.65129,0.56564
137.41022,0.57677
137.16915,0.58880
136.92808,0.60310
136.68701,0.61963
136.44594,0.63766
136.20486,0.65829
135.96379,0.68260
135.72272,0.70838
135.48165,0.73293
135.24058,0.75691
134.99951,0.78184
134.75844,0.80743
134.51737,0.83347
134.27630,0.86062
134.03523,0.88935
133.79416,0.92051
133.55309,0.95424
133.31202,0.98641
133.07095,1.01203
132.82988,1.03277
132.58881,1.05378
132.34774,1.07395
132.10667,1.08787
131.86559,1.09768
131.62452,1.11138
131.38345,1.12690
131.14238,1.13031
130.90131,1.11532
130.66024,1.09310
130.41917,1.07661
130.17810,1.06628
129.93703,1.05315
129.69596,1.03033
129.45489,0.99904
129.21382,0.96430
128.97275,0.92835
128.73168,0.89116
128.49061,0.85453
128.24954,0.82154
128.00847,0.79325
127.76740,0.76894
127.52632,0.74813
127.28525,0.72953
127.04418,0.70989
126.80311,0.68683
126.56204,0.66200
126.32097,0.63946
126.07990,0.62148
125.83883,0.60711
125.59776,0.59390
125.35669,0.57968
125.11562,0.56332
124.87455,0.54570
124.63348,0.52971
124.39241,0.51779
124.15134,0.50970
123.91027,0.50314
123.66920,0.49560
123.42812,0.48576
123.18705,0.47465
122.94598,0.46537
122.70491,0.46072
122.46384,0.46085
122.22277,0.46324
121.98170,0.46452
121.74063,0.46282
121.49956,0.45931
121.25849,0.45727
121.01742,0.45929
120.77635,0.46554
120.53528,0.47446
120.29421,0.48479
120.05314,0.49682
119.81207,0.51157
119.57100,0.52923
119.32993,0.54890
119.08885,0.56966
118.84778,0.59129
118.60671,0.61398
118.36564,0.63770
118.12457,0.66194
117.88350,0.68604
117.64243,0.70935
117.40136,0.73084
117.16029,0.74934
116.91922,0.76468
116.67815,0.77754
116.43708,0.78812
116.19601,0.79618
115.95494,0.80137
115.71387,0.80207
115.47280,0.79622
115.23173,0.78445
114.99066,0.76866
114.74958,0.74875
114.50851,0.72480
114.26744,0.69986
114.02637,0.67754
113.78530,0.65988
113.54423,0.64928
113.30316,0.64895
113.06209,0.65897
112.82102,0.67420
112.57995,0.68843
112.33888,0.69907
112.09781,0.70570
111.85674,0.70725
111.61567,0.70386
111.37460,0.69922
111.13353,0.69748
110.89246,0.69856
110.65139,0.69894
110.41031,0.69652
110.16924,0.69227
109.92817,0.68797
109.68710,0.68401
109.44603,0.67853
109.20496,0.66773
108.96389,0.64954
108.72282,0.62658
108.48175,0.60350
108.24068,0.58345
107.99961,0.56814
107.75854,0.55844
107.51747,0.55274
107.27640,0.54592
107.03533,0.53202
106.79426,0.50958
106.55319,0.48371
106.31212,0.46165
106.07104,0.44779
105.82997,0.44225
105.58890,0.44132
105.34783,0.43950
105.10676,0.43245
104.86569,0.41831
104.62462,0.39858
104.38355,0.37881
104.14248,0.36566
103.90141,0.36157
103.66034,0.36271
103.41927,0.36285
103.17820,0.35869
102.93713,0.35073
102.69606,0.34030
102.45499,0.32906
102.21392,0.32008
101.97285,0.31580
101.73177,0.31435
101.49070,0.31086
101.24963,0.30325
101.00856,0.29458
100.76749,0.28851
100.52642,0.28564
100.28535,0.28489
100.04428,0.28519
99.80321,0.28480
99.56214,0.28168
99.32107,0.27634
99.08000,0.27259
98.83893,0.27386
98.59786,0.27949
98.35679,0.28425
98.11572,0.28184
97.87465,0.27221
97.63358,0.26326
97.39250,0.26252
97.15143,0.26977
96.91036,0.27678
96.66929,0.27564
96.42822,0.26975
96.18715,0.26973
95.94608,0.28062
95.70501,0.29701
95.46394,0.30824
95.22287,0.31018
94.98180,0.30959
94.74073,0.31422
94.49966,0.32347
94.25859,0.32905
94.01752,0.32679
93.77645,0.32306
93.53538,0.32348
93.29431,0.32442
93.05323,0.32121
92.81216,0.31879
92.57109,0.32335
92.33002,0.33031
92.08895,0.33080
91.84788,0.32784
91.60681,0.33098
91.36574,0.33937
91.12467,0.34564
90.88360,0.35272
90.64253,0.37005
90.40146,0.39733
90.16039,0.42757
89.91932,0.46102
89.67825,0.50149
89.43718,0.54705
89.19611,0.59375
88.95504,0.63835
88.71396,0.67501
88.47289,0.69903
88.23182,0.70844
87.99075,0.70079
87.74968,0.67911
87.50861,0.65218
87.26754,0.62284
87.02647,0.58760
86.78540,0.54718
86.54433,0.50757
86.30326,0.47345
86.06219,0.44512
85.82112,0.42038
85.58005,0.39745
85.33898,0.37629
85.09791,0.35788
84.85684,0.34211
84.61577,0.32708
84.37469,0.31131
84.13362,0.29618
83.89255,0.28416
83.65148,0.27502
83.41041,0.26626
83.16934,0.25698
82.92827,0.24854
82.68720,0.24175
82.44613,0.23573
82.20506,0.22924
81.96399,0.22208
81.72292,0.21518
81.48185,0.20943
81.24078,0.20459
80.99971,0.19976
80.75864,0.19469
80.51757,0.19014
80.27650,0.18714
80.03542,0.18597
79.79435,0.18576
79.55328,0.18528
79.31221,0.18461
79.07114,0.18519
78.83007,0.18782
78.58900,0.19072
78.34793,0.19063
78.10686,0.18653
77.86579,0.18113
77.62472,0.17768
77.38365,0.17682
77.14258,0.17731
76.90151,0.17801
76.66044,0.17781
76.41937,0.17553
76.17830,0.17182
75.93723,0.16934
75.69615,0.16947
75.45508,0.17045
75.21401,0.16976
74.97294,0.16674
74.73187,0.16244
74.49080,0.15918
74.24973,0.16046
74.00866,0.16806
73.76759,0.17813
73.52652,0.18280
73.28545,0.17748
73.04438,0.16570
72.80331,0.15537
72.56224,0.15182
72.32117,0.15546
72.08010,0.16348
71.83903,0.17188
71.59796,0.17658
71.35688,0.17500
71.11581,0.16809
70.87474,0.15994
70.63367,0.15454
70.39260,0.15383
70.15153,0.15904
69.91046,0.17207
69.66939,0.19337
69.42832,0.21938
69.18725,0.24324
68.94618,0.25790
68.70511,0.25895
68.46404,0.24626
68.22297,0.22392
67.98190,0.19779
67.74083,0.17271
67.49976,0.15196
67.25869,0.13729
67.01761,0.12849
66.77654,0.12380
66.53547,0.12123
66.29440,0.12033
66.05333,0.12261
65.81226,0.12945
65.57119,0.13967
65.33012,0.15047
65.08905,0.16075
64.84798,0.17212
64.60691,0.18617
64.36584,0.20224
64.12477,0.21746
63.88370,0.22820
63.64263,0.23191
63.40156,0.22829
63.16049,0.21887
62.91942,0.20558
62.67834,0.19001
62.43727,0.17360
62.19620,0.15801
61.95513,0.14449
61.71406,0.13319
61.47299,0.12354
61.23192,0.11518
60.99085,0.10796
60.74978,0.10195
60.50871,0.09793
60.26764,0.09732
60.02657,0.10076
59.78550,0.10727
59.54443,0.11522
59.30336,0.12428
59.06229,0.13585
58.82122,0.15091
58.58015,0.16667
58.33907,0.17566
58.09800,0.17173
57.85693,0.15740
57.61586,0.13934
57.37479,0.12102
57.13372,0.10401
56.89265,0.09084
56.65158,0.08400
56.41051,0.08438
56.16944,0.09213
55.92837,0.10807
55.68730,0.13320
55.44623,0.16484
55.20516,0.18967
54.96409,0.18696
54.72302,0.15562
54.48195,0.11796
54.24088,0.09248
53.99980,0.08514
53.75873,0.09534
53.51766,0.12137
53.27659,0.15829
53.03552,0.18852
52.79445,0.18560
52.55338,0.15094
52.31231,0.11381
52.07124,0.09377
51.83017,0.09609
51.58910,0.12012
51.34803,0.15995
51.10696,0.19510
50.86589,0.19217
50.62482,0.15089
50.38375,0.10613
50.14268,0.08506
49.90161,0.10058
49.66053,0.14922
49.41946,0.18937
49.17839,0.16071
48.93732,0.10102
48.69625,0.07096
48.45518,0.08890
48.21411,0.14279
47.97304,0.16509
47.73197,0.10590
47.49090,0.04810
47.24983,0.04725
47.00876,0.09477
46.76769,0.12218
46.52662,0.08571
46.28555,0.05755
46.04448,0.06698
45.80341,0.07504
45.56234,0.05791
45.32126,0.04945
45.08019,0.06501
44.83912,0.07539
44.59805,0.06846
44.35698,0.07111
44.11591,0.08540
43.87484,0.08924
43.63377,0.07972
43.39270,0.07214
43.15163,0.07572
42.91056,0.08862
42.66949,0.10113
42.42842,0.10613
42.18735,0.10921
41.94628,0.11650
41.70521,0.12102
41.46414,0.11492
41.22307,0.10229
40.98199,0.09095
40.74092,0.08466
40.49985,0.08283
40.25878,0.08265
40.01771,0.08179
39.77664,0.08036
39.53557,0.08260
39.29450,0.09412
39.05343,0.11240
38.81236,0.12524
38.57129,0.12513
38.33022,0.11851
38.08915,0.11609
37.84808,0.12171
37.60701,0.12816
37.36594,0.12491
37.12487,0.11506
36.88380,0.11253
36.64272,0.12110
36.40165,0.13144
36.16058,0.13407
35.91951,0.12687
35.67844,0.11788
35.43737,0.11788
35.19630,0.12443
34.95523,0.12314
34.71416,0.10628
34.47309,0.08230
34.23202,0.06586
33.99095,0.06376
33.74988,0.06767
33.50881,0.06291
33.26774,0.04528
33.02667,0.02560
32.78560,0.02278
32.54453,0.04547
32.30345,0.07935
32.06238,0.10236
31.82131,0.10516
31.58024,0.09139
31.33917,0.06229
31.09810,0.01568
30.85703,-0.03565
30.61596,-0.06000
30.37489,-0.04242
30.13382,-0.01845
29.89275,-0.03702
29.65168,-0.10193
29.41061,-0.15934
29.16954,-0.15627
28.92847,-0.11314
28.68740,-0.08749
28.44633,-0.09986
28.20526,-0.12536
27.96418,-0.13605
27.72311,-0.13913
27.48204,-0.15799
27.24097,-0.19240
26.99990,-0.22272
26.75883,-0.24607
26.51776,-0.27832
26.27669,-0.31872
26.03562,-0.33918
25.79455,-0.32275
25.55348,-0.30426
25.31241,-0.31991
25.07134,-0.36613
24.83027,-0.41115
24.58920,-0.43584
24.34813,-0.44114
24.10706,-0.44334
23.86599,-0.44560
23.62491,-0.44087
23.38384,-0.42884
23.14277,-0.40399
22.90170,-0.36075
22.66063,-0.32154
22.41956,-0.31827
22.17849,-0.33874
21.93742,-0.34993
21.69635,-0.34876
21.45528,-0.32691
21.21421,-0.27765
20.97314,-0.22764
20.73207,-0.20360
20.49100,-0.21337
20.24993,-0.23515
20.00886,-0.23965
19.76779,-0.22572
19.52672,-0.21000
19.28564,-0.20866
19.04457,-0.22385
18.80350,-0.24485
18.56243,-0.26176
18.32136,-0.27242
18.08029,-0.27559
17.83922,-0.26510
17.59815,-0.23701
17.35708,-0.20873
17.11601,-0.21337
16.87494,-0.26161
16.63387,-0.31483
16.39280,-0.32486
16.15173,-0.29466
15.91066,-0.26537
15.66959,-0.25827
15.42852,-0.25758
15.18745,-0.24446
14.94637,-0.22023
14.70530,-0.19737
14.46423,-0.18792
14.22316,-0.20246
13.98209,-0.24215
13.74102,-0.28688
13.49995,-0.30428
13.25888,-0.28528
13.01781,-0.25974
12.77674,-0.26125
12.53567,-0.29461
12.29460,-0.33422
12.05353,-0.34905
11.81246,-0.33913
11.57139,-0.32611
11.33032,-0.31811
11.08925,-0.31413
10.84818,-0.31261
10.60710,-0.31092
10.36603,-0.30839
10.12496,-0.31131
9.88389,-0.33140
9.64282,-0.36840
9.40175,-0.39724
9.16068,-0.38528
8.91961,-0.34806
8.67854,-0.33719
8.43747,-0.35415
8.19640,-0.36265
7.95533,-0.35012
7.71426,-0.33471
7.47319,-0.32285
7.23212,-0.32216
6.99105,-0.33323
6.74998,-0.34305
6.50891,-0.33837
6.26783,-0.32520
6.02676,-0.32608
5.78569,-0.34476
5.54462,-0.35619
5.30355,-0.34400
5.06248,-0.33224
4.82141,-0.34487
4.58034,-0.37192
4.33927,-0.38651
4.09820,-0.38797
3.85713,-0.36291
3.61606,-0.30766
3.37499,-0.28424
3.13392,-0.29253
2.89285,-0.31378
2.65178,-0.32708
2.41071,-0.32837
2.16964,-0.32909
1.92856,-0.32827
1.68749,-0.32770
1.44642,-0.33043
1.20535,-0.32097
0.96428,-0.30115
0.72321,-0.27931
0.48214,-0.26264
0.24107,-0.23512
-0.00000,0.00094
