399.69498,1.99149
399.45391,2.01568
399.21284,2.01165
398.97177,1.98258
398.73070,1.95108
398.48963,1.93752
398.24856,1.93975
398.00749,1.93064
397.76642,1.89484
397.52535,1.84438
397.28428,1.79310
397.04321,1.77310
396.80214,1.81846
396.56107,1.90881
396.32000,1.94676
396.07892,1.90803
395.83785,1.90190
395.59678,1.97535
395.35571,2.05052
395.11464,1.97933
394.87357,1.86908
394.63250,1.84998
394.39143,1.93176
394.15036,2.02363
393.90929,2.01717
393.66822,1.95561
393.42715,1.92373
393.18608,1.97725
392.94501,2.11734
392.70394,2.27448
392.46287,2.32890
392.22180,2.27327
391.98073,2.21648
391.73965,2.22727
391.49858,2.20712
391.25751,2.11494
391.01644,2.03964
390.77537,1.99986
390.53430,1.98866
390.29323,1.94200
390.05216,1.92178
389.81109,2.01627
389.57002,2.09735
389.32895,2.09437
389.08788,2.25612
388.84681,2.59313
388.60574,2.22171
388.36467,1.99527
388.12360,1.86910
387.88253,1.81254
387.64146,1.88322
387.40038,2.08237
387.15931,2.02449
386.91824,1.84527
386.67717,1.75269
386.43610,1.77283
386.19503,1.89092
385.95396,2.09918
385.71289,2.40571
385.47182,2.58097
385.23075,2.26582
384.98968,2.20443
384.74861,2.30779
384.50754,2.35772
384.26647,2.04170
384.02540,1.98681
383.78433,2.12263
383.54326,2.04026
383.30219,1.78985
383.06111,1.66606
382.82004,1.68682
382.57897,1.84740
382.33790,2.03760
382.09683,2.04510
381.85576,1.94296
381.61469,1.80767
381.37362,1.76069
381.13255,1.86296
380.89148,1.99916
380.65041,1.91334
380.40934,1.86282
380.16827,2.00837
379.92720,2.07772
379.68613,1.85445
379.44506,1.78765
379.20399,1.88192
378.96292,1.90815
378.72184,1.86333
378.48077,1.92715
378.23970,2.08308
377.99863,2.07316
377.75756,1.90925
377.51649,1.86041
377.27542,1.91248
377.03435,2.05392
376.79328,2.22128
376.55221,1.91512
376.31114,1.71854
376.07007,1.73662
375.82900,1.87496
375.58793,2.03170
375.34686,2.07855
375.10579,2.08995
374.86472,2.25575
374.62365,2.19336
374.38257,2.07270
374.14150,2.09243
373.90043,2.17447
373.65936,2.12722
373.41829,2.13639
373.17722,2.19545
372.93615,2.17552
372.69508,2.15511
372.45401,2.11025
372.21294,1.98150
371.97187,1.89703
371.73080,1.89046
371.48973,1.90827
371.24866,1.88534
371.00759,1.83212
370.76652,1.80952
370.52545,1.81983
370.28437,1.82114
370.04330,1.80821
369.80223,1.80366
369.56116,1.78300
369.32009,1.73660
369.07902,1.67950
368.83795,1.63545
368.59688,1.61798
368.35581,1.61510
368.11474,1.62272
367.87367,1.64424
367.63260,1.66775
367.39153,1.67619
367.15046,1.65926
366.90939,1.61904
366.66832,1.58113
366.42725,1.56889
366.18618,1.57284
365.94510,1.57415
365.70403,1.56675
365.46296,1.54738
365.22189,1.52849
364.98082,1.52865
364.73975,1.53877
364.49868,1.52828
364.25761,1.49361
364.01654,1.46244
363.77547,1.45702
363.53440,1.47684
363.29333,1.49857
363.05226,1.49514
362.81119,1.46953
362.57012,1.44899
362.32905,1.45162
362.08798,1.47156
361.84691,1.49209
361.60583,1.50527
361.36476,1.50952
361.12369,1.50254
360.88262,1.48433
360.64155,1.46037
360.40048,1.43682
360.15941,1.41979
359.91834,1.41856
359.67727,1.43681
359.43620,1.46495
359.19513,1.49422
358.95406,1.52686
358.71299,1.55640
358.47192,1.56177
358.23085,1.53119
357.98978,1.48288
357.74871,1.44854
357.50764,1.44428
357.26656,1.45690
357.02549,1.45504
356.78442,1.43779
356.54335,1.42956
356.30228,1.44186
356.06121,1.46154
355.82014,1.46202
355.57907,1.43967
355.33800,1.41970
355.09693,1.42206
354.85586,1.45019
354.61479,1.49485
354.37372,1.54088
354.13265,1.56974
353.89158,1.56460
353.65051,1.52763
353.40944,1.47936
353.16837,1.45115
352.92729,1.45347
352.68622,1.47187
352.44515,1.47771
352.20408,1.45318
351.96301,1.41551
351.72194,1.39029
351.48087,1.38424
351.23980,1.39056
350.99873,1.39375
350.75766,1.39157
350.51659,1.40019
350.27552,1.42348
350.03445,1.44542
349.79338,1.45136
349.55231,1.44679
349.31124,1.44404
349.07017,1.44342
348.82910,1.44335
348.58802,1.44978
348.34695,1.46609
348.10588,1.48494
347.86481,1.49387
347.62374,1.48707
347.38267,1.47682
347.14160,1.48869
346.90053,1.53035
346.65946,1.56704
346.41839,1.55782
346.17732,1.51843
345.93625,1.49136
345.69518,1.49703
345.45411,1.52665
345.21304,1.55250
344.97197,1.55529
344.73090,1.54357
344.48983,1.54009
344.24875,1.55828
344.00768,1.59049
343.76661,1.61458
343.52554,1.62176
343.28447,1.62490
343.04340,1.63207
342.80233,1.63224
342.56126,1.62415
342.32019,1.63586
342.07912,1.67535
341.83805,1.69582
341.59698,1.65651
341.35591,1.59440
341.11484,1.56575
340.87377,1.58341
340.63270,1.62203
340.39163,1.65763
340.15056,1.69052
339.90948,1.72915
339.66841,1.76536
339.42734,1.76923
339.18627,1.73472
338.94520,1.71570
338.70413,1.74199
338.46306,1.76656
338.22199,1.73546
337.98092,1.68934
337.73985,1.69834
337.49878,1.76593
337.25771,1.83259
337.01664,1.84540
336.77557,1.80654
336.53450,1.76705
336.29343,1.75457
336.05236,1.76552
335.81129,1.79002
335.57021,1.81852
335.32914,1.84261
335.08807,1.86180
334.84700,1.86438
334.60593,1.83115
334.36486,1.80686
334.12379,1.85309
333.88272,1.94708
333.64165,1.98095
333.40058,1.98776
333.15951,1.94205
332.91844,1.85187
332.67737,1.81119
332.43630,1.87710
332.19523,2.03989
331.95416,2.14866
331.71309,2.02153
331.47202,1.85237
331.23094,1.78214
330.98987,1.78704
330.74880,1.79282
330.50773,1.76376
330.26666,1.71924
330.02559,1.68784
329.78452,1.66549
329.54345,1.64994
329.30238,1.65704
329.06131,1.68219
328.82024,1.69541
328.57917,1.70280
328.33810,1.72106
328.09703,1.72773
327.85596,1.69616
327.61489,1.65869
327.37382,1.65811
327.13275,1.70507
326.89167,1.76853
326.65060,1.80418
326.40953,1.81266
326.16846,1.80379
325.92739,1.76310
325.68632,1.71664
325.44525,1.70709
325.20418,1.74915
324.96311,1.82113
324.72204,1.89371
324.48097,1.93504
324.23990,1.92621
323.99883,1.90759
323.75776,1.88809
323.51669,1.89107
323.27562,1.91257
323.03455,1.84839
322.79348,1.80508
322.55240,1.81592
322.31133,1.85725
322.07026,1.90757
321.82919,1.96262
321.58812,2.02619
321.34705,2.09209
321.10598,2.15215
320.86491,2.18016
320.62384,2.08605
320.38277,1.93540
320.14170,1.83012
319.90063,1.79131
319.65956,1.79175
319.41849,1.81720
319.17742,1.87071
318.93635,1.87389
318.69528,1.81280
318.45421,1.82929
318.21313,1.87528
317.97206,1.93433
317.73099,1.94196
317.48992,1.82277
317.24885,1.76752
317.00778,1.80109
316.76671,1.79898
316.52564,1.77624
316.28457,1.83258
316.04350,2.01910
315.80243,2.41290
315.56136,2.94303
315.32029,2.49744
315.07922,2.28901
314.83815,2.35769
314.59708,2.36407
314.35601,2.26119
314.11494,2.03065
313.87386,1.94676
313.63279,2.04714
313.39172,2.21682
313.15065,2.15702
312.90958,2.13127
312.66851,1.99357
312.42744,1.90508
312.18637,1.96797
311.94530,2.13551
311.70423,2.17124
311.46316,2.21164
311.22209,2.17138
310.98102,2.06271
310.73995,2.01645
310.49888,2.01007
310.25781,2.01731
310.01674,2.07734
309.77567,2.26848
309.53459,2.43908
309.29352,2.29161
309.05245,2.08144
308.81138,1.96880
308.57031,1.92655
308.32924,1.92910
308.08817,1.94692
307.84710,1.95872
307.60603,1.99160
307.36496,1.97050
307.12389,1.88045
306.88282,1.82517
306.64175,1.82930
306.40068,1.80793
306.15961,1.74110
305.91854,1.69251
305.67747,1.66475
305.43640,1.64419
305.19532,1.63680
304.95425,1.63737
304.71318,1.63999
304.47211,1.64117
304.23104,1.62674
303.98997,1.59453
303.74890,1.56612
303.50783,1.54923
303.26676,1.51755
303.02569,1.45353
302.78462,1.38466
302.54355,1.34319
302.30248,1.33268
302.06141,1.34379
301.82034,1.36848
301.57927,1.39208
301.33820,1.39259
301.09713,1.36323
300.85605,1.32228
300.61498,1.29325
300.37391,1.28612
300.13284,1.29557
299.89177,1.30945
299.65070,1.32112
299.40963,1.33256
299.16856,1.34146
298.92749,1.33444
298.68642,1.30558
298.44535,1.26836
298.20428,1.23753
297.96321,1.21545
297.72214,1.19929
297.48107,1.19053
297.24000,1.19077
296.99893,1.19439
296.75786,1.19235
296.51678,1.18379
296.27571,1.17742
296.03464,1.17638
295.79357,1.17421
295.55250,1.16704
295.31143,1.15908
295.07036,1.15584
294.82929,1.15856
294.58822,1.16491
294.34715,1.17111
294.10608,1.17341
293.86501,1.17085
293.62394,1.16492
293.38287,1.15567
293.14180,1.14402
292.90073,1.13535
292.65966,1.13296
292.41859,1.13356
292.17751,1.13300
291.93644,1.13114
291.69537,1.12730
291.45430,1.11828
291.21323,1.10633
290.97216,1.10053
290.73109,1.10724
290.49002,1.12065
290.24895,1.12613
290.00788,1.11643
289.76681,1.09889
289.52574,1.08433
289.28467,1.07714
289.04360,1.07475
288.80253,1.07159
288.56146,1.06550
288.32039,1.06138
288.07932,1.06499
287.83824,1.07390
287.59717,1.08024
287.35610,1.07999
287.11503,1.07454
286.87396,1.06695
286.63289,1.06088
286.39182,1.06013
286.15075,1.06635
285.90968,1.07648
285.66861,1.08370
285.42754,1.08244
285.18647,1.07250
284.94540,1.05906
284.70433,1.04845
284.46326,1.04231
284.22219,1.03822
283.98112,1.03423
283.74005,1.03075
283.49897,1.02942
283.25790,1.03192
283.01683,1.03867
282.77576,1.04679
282.53469,1.05106
282.29362,1.04979
282.05255,1.04770
281.81148,1.04919
281.57041,1.05169
281.32934,1.05028
281.08827,1.04364
280.84720,1.03269
280.60613,1.02023
280.36506,1.01089
280.12399,1.00943
279.88292,1.01768
279.64185,1.03160
279.40078,1.04372
279.15970,1.05022
278.91863,1.05426
278.67756,1.06111
278.43649,1.07036
278.19542,1.07551
277.95435,1.07256
277.71328,1.06426
277.47221,1.05476
277.23114,1.04597
276.99007,1.03887
276.74900,1.03380
276.50793,1.03042
276.26686,1.02943
276.02579,1.03137
275.78472,1.03442
275.54365,1.03633
275.30258,1.03688
275.06151,1.03656
274.82043,1.03393
274.57936,1.02668
274.33829,1.01597
274.09722,1.00772
273.85615,1.00720
273.61508,1.01247
273.37401,1.01706
273.13294,1.01891
272.89187,1.02145
272.65080,1.02556
272.40973,1.02745
272.16866,1.02504
271.92759,1.02231
271.68652,1.02520
271.44545,1.03420
271.20438,1.04226
270.96331,1.04118
270.72224,1.03119
270.48116,1.02079
270.24009,1.01638
269.99902,1.01701
269.75795,1.02011
269.51688,1.02718
269.27581,1.04019
269.03474,1.05512
268.79367,1.06460
268.55260,1.06714
268.31153,1.06889
268.07046,1.07517
267.82939,1.08394
267.58832,1.08912
267.34725,1.08831
267.10618,1.08328
266.86511,1.07679
266.62404,1.07239
266.38297,1.07254
266.14189,1.07634
265.90082,1.08217
265.65975,1.08927
265.41868,1.09424
265.17761,1.09253
264.93654,1.08711
264.69547,1.08826
264.45440,1.10060
264.21333,1.11665
263.97226,1.12689
263.73119,1.13030
263.49012,1.13234
263.24905,1.13921
263.00798,1.15437
262.76691,1.17573
262.52584,1.19615
262.28477,1.21027
262.04370,1.21876
261.80262,1.22447
261.56155,1.23302
261.32048,1.25160
261.07941,1.27568
260.83834,1.28895
260.59727,1.28725
260.35620,1.28559
260.11513,1.29503
259.87406,1.31457
259.63299,1.33925
259.39192,1.36348
259.15085,1.38000
258.90978,1.38589
258.66871,1.39138
258.42764,1.40961
258.18657,1.44051
257.94550,1.47092
257.70443,1.48673
257.46335,1.48561
257.22228,1.48045
256.98121,1.48527
256.74014,1.50371
256.49907,1.53522
256.25800,1.58228
256.01693,1.64140
255.77586,1.68996
255.53479,1.71050
255.29372,1.71933
255.05265,1.73588
254.81158,1.76274
254.57051,1.78486
254.32944,1.77981
254.08837,1.77200
253.84730,1.80955
253.60623,1.91373
253.36516,2.04117
253.12408,2.08455
252.88301,2.05063
252.64194,2.03798
252.40087,2.08482
252.15980,2.14127
251.91873,2.18942
251.67766,2.21298
251.43659,2.17855
251.19552,2.12851
250.95445,2.10949
250.71338,2.12971
250.47231,2.17280
250.23124,2.21426
249.99017,2.21262
249.74910,2.16826
249.50803,2.15802
249.26696,2.21833
249.02589,2.28913
248.78481,2.29667
248.54374,2.30993
248.30267,2.37010
248.06160,2.43058
247.82053,2.44271
247.57946,2.44827
247.33839,2.28773
247.09732,2.16242
246.85625,2.19307
246.61518,2.33361
246.37411,2.31492
246.13304,2.16782
245.89197,2.04145
245.65090,1.97327
245.40983,1.97136
245.16876,2.00968
244.92769,2.01836
244.68661,1.95246
244.44554,1.85004
244.20447,1.78283
243.96340,1.75784
243.72233,1.73201
243.48126,1.66830
243.24019,1.58291
242.99912,1.51700
242.75805,1.47813
242.51698,1.44463
242.27591,1.40277
242.03484,1.35764
241.79377,1.31022
241.55270,1.25951
241.31163,1.21008
241.07056,1.16820
240.82949,1.13873
240.58842,1.11983
240.34734,1.10267
240.10627,1.08100
239.86520,1.05621
239.62413,1.03127
239.38306,1.00803
239.14199,0.98890
238.90092,0.97443
238.65985,0.96080
238.41878,0.94423
238.17771,0.92642
237.93664,0.91143
237.69557,0.89984
237.45450,0.88904
237.21343,0.87782
236.97236,0.86805
236.73129,0.86129
236.49022,0.85617
236.24915,0.85058
236.00807,0.84404
235.76700,0.83591
235.52593,0.82481
235.28486,0.81150
235.04379,0.79879
234.80272,0.78824
234.56165,0.77956
234.32058,0.77309
234.07951,0.77025
233.83844,0.77064
233.59737,0.77143
233.35630,0.77125
233.11523,0.77178
232.87416,0.77286
232.63309,0.77094
232.39202,0.76483
232.15095,0.75840
231.90988,0.75526
231.66880,0.75434
231.42773,0.75194
231.18666,0.74642
230.94559,0.73987
230.70452,0.73571
230.46345,0.73444
230.22238,0.73318
229.98131,0.73002
229.74024,0.72650
229.49917,0.72438
229.25810,0.72288
229.01703,0.72076
228.77596,0.71818
228.53489,0.71623
228.29382,0.71647
228.05275,0.71923
227.81168,0.72105
227.57061,0.71765
227.32953,0.71103
227.08846,0.70741
226.84739,0.70773
226.60632,0.70605
226.36525,0.69823
226.12418,0.68841
225.88311,0.68449
225.64204,0.68923
225.40097,0.69720
225.15990,0.70101
224.91883,0.70026
224.67776,0.70056
224.43669,0.70489
224.19562,0.71052
223.95455,0.71421
223.71348,0.71570
223.47241,0.71592
223.23134,0.71523
222.99026,0.71423
222.74919,0.71458
222.50812,0.71764
222.26705,0.72297
222.02598,0.72890
221.78491,0.73415
221.54384,0.73841
221.30277,0.74234
221.06170,0.74667
220.82063,0.75069
220.57956,0.75312
220.33849,0.75525
220.09742,0.76011
219.85635,0.76782
219.61528,0.77508
219.37421,0.77990
219.13314,0.78432
218.89207,0.79158
218.65099,0.80239
218.40992,0.81436
218.16885,0.82480
217.92778,0.83361
217.68671,0.84266
217.44564,0.85278
217.20457,0.86242
216.96350,0.86980
216.72243,0.87540
216.48136,0.88197
216.24029,0.89157
215.99922,0.90351
215.75815,0.91569
215.51708,0.92756
215.27601,0.93984
215.03494,0.95185
214.79387,0.96103
214.55280,0.96575
214.31172,0.96730
214.07065,0.96751
213.82958,0.96648
213.58851,0.96571
213.34744,0.96867
213.10637,0.97560
212.86530,0.98258
212.62423,0.98763
212.38316,0.99277
212.14209,1.00003
211.90102,1.00856
211.65995,1.01493
211.41888,1.01718
211.17781,1.01757
210.93674,1.01882
210.69567,1.02014
210.45460,1.01824
210.21353,1.01206
209.97245,1.00487
209.73138,1.00029
209.49031,0.99849
209.24924,0.99782
209.00817,0.99785
208.76710,0.99936
208.52603,1.00252
208.28496,1.00564
208.04389,1.00706
207.80282,1.00843
207.56175,1.01209
207.32068,1.01391
207.07961,1.00536
206.83854,0.98562
206.59747,0.96388
206.35640,0.94830
206.11533,0.94062
205.87426,0.93829
205.63318,0.93564
205.39211,0.92676
205.15104,0.91223
204.90997,0.89889
204.66890,0.89081
204.42783,0.88521
204.18676,0.87689
203.94569,0.86418
203.70462,0.85022
203.46355,0.83919
203.22248,0.83216
202.98141,0.82656
202.74034,0.81927
202.49927,0.80987
202.25820,0.80011
202.01713,0.79042
201.77606,0.77993
201.53499,0.76909
201.29391,0.75960
201.05284,0.75129
200.81177,0.74177
200.57070,0.73044
200.32963,0.71968
200.08856,0.71168
199.84749,0.70641
199.60642,0.70258
199.36535,0.69820
199.12428,0.69065
198.88321,0.67904
198.64214,0.66649
198.40107,0.65699
198.16000,0.65057
197.91893,0.64426
197.67786,0.63680
197.43679,0.62979
197.19572,0.62483
196.95464,0.62185
196.71357,0.61998
196.47250,0.61750
196.23143,0.61229
195.99036,0.60408
195.74929,0.59509
195.50822,0.58698
195.26715,0.57956
195.02608,0.57286
194.78501,0.56764
194.54394,0.56388
194.30287,0.56099
194.06180,0.55872
193.82073,0.55635
193.57966,0.55250
193.33859,0.54672
193.09752,0.54007
192.85645,0.53347
192.61537,0.52661
192.37430,0.51904
192.13323,0.51108
191.89216,0.50361
191.65109,0.49821
191.41002,0.49681
191.16895,0.49943
190.92788,0.50287
190.68681,0.50317
190.44574,0.49979
190.20467,0.49567
189.96360,0.49323
189.72253,0.49222
189.48146,0.49149
189.24039,0.49072
188.99932,0.48980
188.75825,0.48812
188.51718,0.48511
188.27610,0.48103
188.03503,0.47689
187.79396,0.47401
187.55289,0.47354
187.31182,0.47528
187.07075,0.47733
186.82968,0.47753
186.58861,0.47522
186.34754,0.47154
186.10647,0.46879
185.86540,0.46882
185.62433,0.47116
185.38326,0.47335
185.14219,0.47360
184.90112,0.47217
184.66005,0.47057
184.41898,0.47022
184.17791,0.47194
183.93683,0.47548
183.69576,0.47940
183.45469,0.48228
183.21362,0.48417
182.97255,0.48601
182.73148,0.48742
182.49041,0.48652
182.24934,0.48256
182.00827,0.47770
181.76720,0.47551
181.52613,0.47787
181.28506,0.48327
181.04399,0.48801
180.80292,0.48953
180.56185,0.48870
180.32078,0.48857
180.07971,0.49107
179.83864,0.49552
179.59756,0.50045
179.35649,0.50545
179.11542,0.51037
178.87435,0.51499
178.63328,0.52030
178.39221,0.52736
178.15114,0.53484
177.91007,0.54047
177.66900,0.54464
177.42793,0.55004
177.18686,0.55877
176.94579,0.57131
176.70472,0.58644
176.46365,0.60139
176.22258,0.61407
175.98151,0.62481
175.74044,0.63458
175.49937,0.64350
175.25829,0.65240
175.01722,0.66433
174.77615,0.68235
174.53508,0.70479
174.29401,0.72443
174.05294,0.73539
173.81187,0.74010
173.57080,0.74600
173.32973,0.75640
173.08866,0.76807
172.84759,0.77724
172.60652,0.78394
172.36545,0.79001
172.12438,0.79556
171.88331,0.79904
171.64224,0.79972
171.40117,0.79800
171.16010,0.79387
170.91902,0.78799
170.67795,0.78272
170.43688,0.77925
170.19581,0.77580
169.95474,0.77110
169.71367,0.76681
169.47260,0.76459
169.23153,0.76337
168.99046,0.76194
168.74939,0.76146
168.50832,0.76335
168.26725,0.76619
168.02618,0.76617
167.78511,0.76058
167.54404,0.75086
167.30297,0.74208
167.06190,0.73938
166.82083,0.74431
166.57975,0.75374
166.33868,0.76158
166.09761,0.76306
165.85654,0.75955
165.61547,0.75762
165.37440,0.76221
165.13333,0.77167
164.89226,0.77997
164.65119,0.78399
164.41012,0.78676
164.16905,0.79290
163.92798,0.80283
163.68691,0.81215
163.44584,0.81620
163.20477,0.81468
162.96370,0.81207
162.72263,0.81418
162.48156,0.82441
162.24048,0.84090
161.99941,0.85640
161.75834,0.86391
161.51727,0.86298
161.27620,0.85789
161.03513,0.85199
160.79406,0.84692
160.55299,0.84457
160.31192,0.84554
160.07085,0.84724
159.82978,0.84606
159.58871,0.84158
159.34764,0.83647
159.10657,0.83211
158.86550,0.82697
158.62443,0.82050
158.38336,0.81601
158.14229,0.81601
157.90121,0.81660
157.66014,0.81178
157.41907,0.80226
157.17800,0.79359
156.93693,0.78816
156.69586,0.78508
156.45479,0.78450
156.21372,0.78648
155.97265,0.78760
155.73158,0.78254
155.49051,0.76979
155.24944,0.75372
155.00837,0.74017
154.76730,0.73128
154.52623,0.72535
154.28516,0.71976
154.04409,0.71332
153.80302,0.70578
153.56194,0.69649
153.32087,0.68462
153.07980,0.67070
152.83873,0.65697
152.59766,0.64528
152.35659,0.63561
152.11552,0.62674
151.87445,0.61726
151.63338,0.60600
151.39231,0.59337
151.15124,0.58158
150.91017,0.57159
150.66910,0.56117
150.42803,0.54857
150.18696,0.53596
149.94589,0.52651
149.70482,0.51983
149.46375,0.51242
149.22267,0.50165
148.98160,0.48887
148.74053,0.47818
148.49946,0.47213
148.25839,0.46991
148.01732,0.46964
147.77625,0.47048
147.53518,0.47169
147.29411,0.47133
147.05304,0.46783
146.81197,0.46250
146.57090,0.45884
146.32983,0.45911
146.08876,0.46280
145.84769,0.46793
145.60662,0.47264
145.36555,0.47629
145.12448,0.48008
144.88340,0.48565
144.64233,0.49222
144.40126,0.49739
144.16019,0.50048
143.91912,0.50246
143.67805,0.50329
143.43698,0.50229
143.19591,0.49992
142.95484,0.49653
142.71377,0.49077
142.47270,0.48168
142.23163,0.47140
141.99056,0.46379
141.74949,0.46035
141.50842,0.45886
141.26735,0.45543
141.02628,0.44797
140.78521,0.43829
140.54413,0.43064
140.30306,0.42750
140.06199,0.42763
139.82092,0.42870
139.57985,0.43020
139.33878,0.43239
139.09771,0.43468
138.85664,0.43665
138.61557,0.43890
138.37450,0.44168
138.13343,0.44500
137.89236,0.45042
137.65129,0.46023
137.41022,0.47420
137.16915,0.48915
136.92808,0.50231
136.68701,0.51382
136.44594,0.52521
136.20486,0.53748
135.96379,0.55137
135.72272,0.56781
135.48165,0.58731
135.24058,0.61018
134.99951,0.63640
134.75844,0.66393
134.51737,0.68939
134.27630,0.71252
134.03523,0.73725
133.79416,0.76555
133.55309,0.79285
133.31202,0.81237
133.07095,0.82211
132.82988,0.82679
132.58881,0.83385
132.34774,0.84838
132.10667,0.86964
131.86559,0.89047
131.62452,0.90181
131.38345,0.90087
131.14238,0.89336
130.90131,0.88661
130.66024,0.88168
130.41917,0.87241
130.17810,0.85379
129.93703,0.82980
129.69596,0.80921
129.45489,0.79475
129.21382,0.78154
128.97275,0.76468
128.73168,0.74351
128.49061,0.71868
128.24954,0.69023
128.00847,0.66043
127.76740,0.63357
127.52632,0.61144
127.28525,0.59220
127.04418,0.57367
126.80311,0.55496
126.56204,0.53585
126.32097,0.51689
126.07990,0.49914
125.83883,0.48266
125.59776,0.46648
125.35669,0.45059
125.11562,0.43636
124.87455,0.42470
124.63348,0.41515
124.39241,0.40655
124.15134,0.39797
123.91027,0.38952
123.66920,0.38230
123.42812,0.37722
123.18705,0.37393
122.94598,0.37118
122.70491,0.36800
122.46384,0.36418
122.22277,0.35983
121.98170,0.35493
121.74063,0.35012
121.49956,0.34747
121.25849,0.34898
121.01742,0.35432
120.77635,0.36118
120.53528,0.36807
120.29421,0.37618
120.05314,0.38780
119.81207,0.40323
119.57100,0.41966
119.32993,0.43403
119.08885,0.44718
118.84778,0.46330
118.60671,0.48446
118.36564,0.50799
118.12457,0.53038
117.88350,0.55168
117.64243,0.57384
117.40136,0.59558
117.16029,0.61200
116.91922,0.61996
116.67815,0.62187
116.43708,0.62158
116.19601,0.61849
115.95494,0.60977
115.71387,0.59708
115.47280,0.58588
115.23173,0.57829
114.99066,0.57126
114.74958,0.56254
114.50851,0.55326
114.26744,0.54425
114.02637,0.53461
113.78530,0.52486
113.54423,0.51788
113.30316,0.51616
113.06209,0.51955
112.82102,0.52532
112.57995,0.52916
112.33888,0.52828
112.09781,0.52449
111.85674,0.52235
111.61567,0.52434
111.37460,0.52941
111.13353,0.53510
110.89246,0.53921
110.65139,0.54037
110.41031,0.53874
110.16924,0.53589
109.92817,0.53248
109.68710,0.52680
109.44603,0.51740
109.20496,0.50575
108.96389,0.49378
108.72282,0.48086
108.48175,0.46651
108.24068,0.45297
107.99961,0.44221
107.75854,0.43308
107.51747,0.42224
107.27640,0.40738
107.03533,0.38978
106.79426,0.37370
106.55319,0.36226
106.31212,0.35461
106.07104,0.34712
105.82997,0.33725
105.58890,0.32654
105.34783,0.31877
105.10676,0.31440
104.86569,0.30894
104.62462,0.29900
104.38355,0.28722
104.14248,0.27811
103.90141,0.27206
103.66034,0.26648
103.41927,0.26007
103.17820,0.25345
102.93713,0.24758
102.69606,0.24294
102.45499,0.23963
102.21392,0.23717
101.97285,0.23423
101.73177,0.22959
101.49070,0.22386
101.24963,0.21854
101.00856,0.21372
100.76749,0.20896
100.52642,0.20518
100.28535,0.20326
100.04428,0.20221
99.80321,0.20059
99.56214,0.19806
99.32107,0.19475
99.08000,0.19119
98.83893,0.18851
98.59786,0.18735
98.35679,0.18739
98.11572,0.18821
97.87465,0.18948
97.63358,0.19089
97.39250,0.19266
97.15143,0.19513
96.91036,0.19753
96.66929,0.19879
96.42822,0.19937
96.18715,0.20060
95.94608,0.20302
95.70501,0.20684
95.46394,0.21294
95.22287,0.22168
94.98180,0.23094
94.74073,0.23708
94.49966,0.23838
94.25859,0.23662
94.01752,0.23491
93.77645,0.23472
93.53538,0.23532
93.29431,0.23525
93.05323,0.23408
92.81216,0.23274
92.57109,0.23212
92.33002,0.23202
92.08895,0.23223
91.84788,0.23370
91.60681,0.23742
91.36574,0.24345
91.12467,0.25195
90.88360,0.26398
90.64253,0.28030
90.40146,0.30080
90.16039,0.32540
89.91932,0.35432
89.67825,0.38720
89.43718,0.42284
89.19611,0.45881
88.95504,0.49129
88.71396,0.51684
88.47289,0.53445
88.23182,0.54403
87.99075,0.54446
87.74968,0.53439
87.50861,0.51345
87.26754,0.48253
87.02647,0.44500
86.78540,0.40713
86.54433,0.37446
86.30326,0.34826
86.06219,0.32636
85.82112,0.30690
85.58005,0.28991
85.33898,0.27549
85.09791,0.26191
84.85684,0.24706
84.61577,0.23131
84.37469,0.21752
84.13362,0.20749
83.89255,0.19978
83.65148,0.19202
83.41041,0.18396
83.16934,0.17700
82.92827,0.17184
82.68720,0.16762
82.44613,0.16274
82.20506,0.15652
81.96399,0.14990
81.72292,0.14432
81.48185,0.14025
81.24078,0.13708
80.99971,0.13388
80.75864,0.13062
80.51757,0.12881
80.27650,0.12980
80.03542,0.13231
79.79435,0.13325
79.55328,0.13129
79.31221,0.12797
79.07114,0.12561
78.83007,0.12525
78.58900,0.12592
78.34793,0.12501
78.10686,0.12051
77.86579,0.11346
77.62472,0.10735
77.38365,0.10472
77.14258,0.10484
76.90151,0.10532
76.66044,0.10496
76.41937,0.10405
76.17830,0.10273
75.93723,0.10039
75.69615,0.09667
75.45508,0.09206
75.21401,0.08784
74.97294,0.08557
74.73187,0.08599
74.49080,0.08845
74.24973,0.09132
74.00866,0.09265
73.76759,0.09073
73.52652,0.08560
73.28545,0.08004
73.04438,0.07751
72.80331,0.07878
72.56224,0.08149
72.32117,0.08283
72.08010,0.08207
71.83903,0.08111
71.59796,0.08274
71.35688,0.08750
71.11581,0.09286
70.87474,0.09579
70.63367,0.09568
70.39260,0.09474
70.15153,0.09636
69.91046,0.10268
69.66939,0.11345
69.42832,0.12678
69.18725,0.13971
68.94618,0.14803
68.70511,0.14854
68.46404,0.14241
68.22297,0.13392
67.98190,0.12577
67.74083,0.11761
67.49976,0.10856
67.25869,0.09934
67.01761,0.09191
66.77654,0.08722
66.53547,0.08411
66.29440,0.08117
66.05333,0.07864
65.81226,0.07727
65.57119,0.07698
65.33012,0.07785
65.08905,0.08045
64.84798,0.08434
64.60691,0.08795
64.36584,0.09069
64.12477,0.09312
63.88370,0.09510
63.64263,0.09597
63.40156,0.09587
63.16049,0.09485
62.91942,0.09202
62.67834,0.08731
62.43727,0.08260
62.19620,0.07956
61.95513,0.07710
61.71406,0.07218
61.47299,0.06381
61.23192,0.05539
60.99085,0.05120
60.74978,0.05134
60.50871,0.05235
60.26764,0.05218
60.02657,0.05173
59.78550,0.05187
59.54443,0.05224
59.30336,0.05256
59.06229,0.05300
58.82122,0.05318
58.58015,0.05207
58.33907,0.04929
58.09800,0.04620
57.85693,0.04465
57.61586,0.04476
57.37479,0.04527
57.13372,0.04579
56.89265,0.04667
56.65158,0.04703
56.41051,0.04552
56.16944,0.04220
55.92837,0.03866
55.68730,0.03693
55.44623,0.03831
55.20516,0.04197
54.96409,0.04489
54.72302,0.04422
54.48195,0.04040
54.24088,0.03718
53.99980,0.03725
53.75873,0.03840
53.51766,0.03656
53.27659,0.03213
53.03552,0.02979
52.79445,0.03261
52.55338,0.03893
52.31231,0.04541
52.07124,0.05027
51.83017,0.05274
51.58910,0.05152
51.34803,0.04647
51.10696,0.04129
50.86589,0.04057
50.62482,0.04374
50.38375,0.04537
50.14268,0.04221
49.90161,0.03758
49.66053,0.03679
49.41946,0.03959
49.17839,0.03994
48.93732,0.03360
48.69625,0.02323
48.45518,0.01465
48.21411,0.01113
47.97304,0.01245
47.73197,0.01605
47.49090,0.01894
47.24983,0.02095
47.00876,0.02403
46.76769,0.02689
46.52662,0.02484
46.28555,0.01516
46.04448,-0.00022
45.80341,-0.01644
45.56234,-0.02871
45.32126,-0.03393
45.08019,-0.03109
44.83912,-0.02215
44.59805,-0.01151
44.35698,-0.00258
44.11591,0.00300
43.87484,0.00228
43.63377,-0.00738
43.39270,-0.02228
43.15163,-0.03447
42.91056,-0.03908
42.66949,-0.03668
42.42842,-0.03259
42.18735,-0.03347
41.94628,-0.04085
41.70521,-0.04950
41.46414,-0.05375
41.22307,-0.05359
40.98199,-0.05257
40.74092,-0.05071
40.49985,-0.04328
40.25878,-0.02904
40.01771,-0.01518
39.77664,-0.01041
39.53557,-0.01641
39.29450,-0.02608
39.05343,-0.02948
38.81236,-0.02461
38.57129,-0.01889
38.33022,-0.01957
38.08915,-0.02477
37.84808,-0.02500
37.60701,-0.01834
37.36594,-0.01430
37.12487,-0.01610
36.88380,-0.01401
36.64272,-0.00124
36.40165,0.01102
36.16058,0.00690
35.91951,-0.00944
35.67844,-0.01526
35.43737,0.00123
35.19630,0.02179
34.95523,0.02047
34.71416,-0.00321
34.47309,-0.02425
34.23202,-0.02587
33.99095,-0.02000
33.74988,-0.02659
33.50881,-0.05108
33.26774,-0.07816
33.02667,-0.07754
32.78560,-0.03464
32.54453,0.02669
32.30345,0.07086
32.06238,0.08751
31.82131,0.08594
31.58024,0.06822
31.33917,0.03704
31.09810,0.00632
30.85703,-0.01103
30.61596,-0.01164
30.37489,-0.00150
30.13382,0.01002
29.89275,0.01906
29.65168,0.03043
29.41061,0.05444
29.16954,0.08834
28.92847,0.10808
28.68740,0.09272
28.44633,0.04189
28.20526,-0.02059
27.96418,-0.05257
27.72311,-0.02618
27.48204,0.03643
27.24097,0.08906
26.99990,0.10971
26.75883,0.10633
26.51776,0.09758
26.27669,0.09527
26.03562,0.09321
25.79455,0.07946
25.55348,0.05709
25.31241,0.01881
25.07134,-0.04001
24.83027,-0.07149
24.58920,-0.05183
24.34813,0.03897
24.10706,0.11189
23.86599,0.13520
23.62491,0.16288
23.38384,0.22540
23.14277,0.26526
22.90170,0.29455
22.66063,0.35751
22.41956,0.40048
22.17849,0.38366
21.93742,0.30499
21.69635,0.23287
21.45528,0.20746
21.21421,0.21252
20.97314,0.27527
20.73207,0.40177
20.49100,0.48446
20.24993,0.47758
20.00886,0.45328
19.76779,0.45960
19.52672,0.50006
19.28564,0.55970
19.04457,0.58998
18.80350,0.56572
18.56243,0.55146
18.32136,0.54401
18.08029,0.48065
17.83922,0.44081
17.59815,0.50931
17.35708,0.64657
17.11601,0.66327
16.87494,0.68121
16.63387,0.74993
16.39280,0.84128
16.15173,0.83391
15.91066,0.73927
15.66959,0.70555
15.42852,0.74437
15.18745,0.70238
14.94637,0.65802
14.70530,0.79980
14.46423,0.92376
14.22316,0.78653
13.98209,0.66678
13.74102,0.63459
13.49995,0.66753
13.25888,0.68102
13.01781,0.68817
12.77674,0.81018
12.53567,1.01828
12.29460,0.91338
12.05353,0.91304
11.81246,1.02869
11.57139,1.04548
11.33032,0.87763
11.08925,0.67065
10.84818,0.56223
10.60710,0.60213
10.36603,0.73494
10.12496,0.80152
9.88389,1.00713
9.64282,1.22923
9.40175,1.01746
9.16068,0.75259
8.91961,0.64351
8.67854,0.65413
8.43747,0.59270
8.19640,0.62882
7.95533,0.72471
7.71426,0.77268
7.47319,0.88291
7.23212,1.03088
6.99105,0.81879
6.74998,0.56626
6.50891,0.49631
6.26783,0.52638
6.02676,0.51584
5.78569,0.45439
5.54462,0.48505
5.30355,0.63165
5.06248,0.67616
4.82141,0.59901
4.58034,0.64232
4.33927,0.80072
4.09820,1.01572
3.85713,0.89101
3.61606,0.59948
3.37499,0.47735
3.13392,0.44337
2.89285,0.45042
2.65178,0.50545
2.41071,0.59098
2.16964,0.73630
1.92856,0.85392
1.68749,0.85069
1.44642,0.69292
1.20535,0.72995
0.96428,0.66934
0.72321,0.52226
0.48214,0.31375
0.24107,0.21190
-0.00000,0.30860
