399.69498,1.58025
399.45391,1.60106
399.21284,1.60178
398.97177,1.58886
398.73070,1.57915
398.48963,1.58040
398.24856,1.59089
398.00749,1.60399
397.76642,1.60883
397.52535,1.59613
397.28428,1.56816
397.04321,1.53655
396.80214,1.51139
396.56107,1.49930
396.32000,1.50566
396.07892,1.52992
395.83785,1.55949
395.59678,1.57878
395.35571,1.58691
395.11464,1.59264
394.87357,1.59662
394.63250,1.59312
394.39143,1.58271
394.15036,1.57400
393.90929,1.57654
393.66822,1.59165
393.42715,1.60732
393.18608,1.60824
392.94501,1.59448
392.70394,1.57997
392.46287,1.57351
392.22180,1.57283
391.98073,1.57128
391.73965,1.56286
391.49858,1.54545
391.25751,1.52350
391.01644,1.50824
390.77537,1.50787
390.53430,1.51932
390.29323,1.53503
390.05216,1.55150
389.81109,1.56466
389.57002,1.56753
389.32895,1.55827
389.08788,1.53887
388.84681,1.51187
388.60574,1.48669
388.36467,1.47642
388.12360,1.48326
387.88253,1.49506
387.64146,1.49852
387.40038,1.49161
387.15931,1.47949
386.91824,1.46335
386.67717,1.44382
386.43610,1.43057
386.19503,1.43134
385.95396,1.43677
385.71289,1.43129
385.47182,1.41660
385.23075,1.40433
384.98968,1.39474
384.74861,1.38280
384.50754,1.37125
384.26647,1.36668
384.02540,1.36875
383.78433,1.36891
383.54326,1.35958
383.30219,1.34308
383.06111,1.33019
382.82004,1.32879
382.57897,1.33429
382.33790,1.33426
382.09683,1.32370
381.85576,1.31239
381.61469,1.31384
381.37362,1.32767
381.13255,1.33615
380.89148,1.32397
380.65041,1.29371
380.40934,1.26154
380.16827,1.24256
379.92720,1.24288
379.68613,1.26132
379.44506,1.28929
379.20399,1.31345
378.96292,1.32713
378.72184,1.33729
378.48077,1.35220
378.23970,1.36488
377.99863,1.36233
377.75756,1.34775
377.51649,1.33664
377.27542,1.33733
377.03435,1.34733
376.79328,1.35877
376.55221,1.36453
376.31114,1.36659
376.07007,1.37579
375.82900,1.39839
375.58793,1.42728
375.34686,1.44779
375.10579,1.45004
374.86472,1.43608
374.62365,1.41599
374.38257,1.39970
374.14150,1.39270
373.90043,1.39292
373.65936,1.39264
373.41829,1.38919
373.17722,1.38775
372.93615,1.39239
372.69508,1.40247
372.45401,1.41546
372.21294,1.42804
371.97187,1.43531
371.73080,1.43366
371.48973,1.42367
371.24866,1.40850
371.00759,1.39360
370.76652,1.38327
370.52545,1.37485
370.28437,1.36503
370.04330,1.35842
369.80223,1.36052
369.56116,1.36787
369.32009,1.37210
369.07902,1.37058
368.83795,1.36595
368.59688,1.35969
368.35581,1.35226
368.11474,1.34664
367.87367,1.34732
367.63260,1.35476
367.39153,1.36241
367.15046,1.36185
366.90939,1.35041
366.66832,1.33392
366.42725,1.32368
366.18618,1.32746
365.94510,1.34083
365.70403,1.34887
365.46296,1.34263
365.22189,1.33075
364.98082,1.32752
364.73975,1.33520
364.49868,1.34258
364.25761,1.34068
364.01654,1.33495
363.77547,1.33458
363.53440,1.33696
363.29333,1.33277
363.05226,1.32121
362.81119,1.30957
362.57012,1.30137
362.32905,1.29483
362.08798,1.28939
361.84691,1.28561
361.60583,1.28444
361.36476,1.28766
361.12369,1.29492
360.88262,1.30123
360.64155,1.30047
360.40048,1.29339
360.15941,1.28781
359.91834,1.28959
359.67727,1.29701
359.43620,1.30456
359.19513,1.30933
358.95406,1.31054
358.71299,1.30708
358.47192,1.29991
358.23085,1.29289
357.98978,1.28694
357.74871,1.27865
357.50764,1.26785
357.26656,1.26040
357.02549,1.26082
356.78442,1.26707
356.54335,1.27350
356.30228,1.27638
356.06121,1.27630
355.82014,1.27589
355.57907,1.27582
355.33800,1.27558
355.09693,1.27703
354.85586,1.28168
354.61479,1.28503
354.37372,1.27985
354.13265,1.26672
353.89158,1.25528
353.65051,1.25358
353.40944,1.26078
353.16837,1.26865
352.92729,1.26924
352.68622,1.26291
352.44515,1.25775
352.20408,1.25932
351.96301,1.26319
351.72194,1.26012
351.48087,1.24837
351.23980,1.23702
350.99873,1.23573
350.75766,1.24438
350.51659,1.25490
350.27552,1.26304
350.03445,1.27171
349.79338,1.28145
349.55231,1.28777
349.31124,1.28890
349.07017,1.28706
348.82910,1.28367
348.58802,1.28053
348.34695,1.28126
348.10588,1.28577
347.86481,1.28936
347.62374,1.28979
347.38267,1.28958
347.14160,1.29176
346.90053,1.29619
346.65946,1.29953
346.41839,1.29967
346.17732,1.29756
345.93625,1.29374
345.69518,1.28875
345.45411,1.28790
345.21304,1.29931
344.97197,1.32324
344.73090,1.34800
344.48983,1.36058
344.24875,1.35834
344.00768,1.34819
343.76661,1.33927
343.52554,1.33788
343.28447,1.34476
343.04340,1.35445
342.80233,1.36045
342.56126,1.36112
342.32019,1.35857
342.07912,1.35371
341.83805,1.34685
341.59698,1.34307
341.35591,1.34933
341.11484,1.36422
340.87377,1.37800
340.63270,1.38611
340.39163,1.39169
340.15056,1.39315
339.90948,1.38651
339.66841,1.37761
339.42734,1.37691
339.18627,1.38609
338.94520,1.39760
338.70413,1.40453
338.46306,1.40415
338.22199,1.39413
337.98092,1.37501
337.73985,1.35469
337.49878,1.34352
337.25771,1.34657
337.01664,1.36053
336.77557,1.37657
336.53450,1.38985
336.29343,1.40343
336.05236,1.41709
335.81129,1.42095
335.57021,1.41049
335.32914,1.39787
335.08807,1.39426
334.84700,1.39493
334.60593,1.39186
334.36486,1.38691
334.12379,1.38637
333.88272,1.39215
333.64165,1.40278
333.40058,1.41377
333.15951,1.41681
332.91844,1.40867
332.67737,1.39464
332.43630,1.37854
332.19523,1.36049
331.95416,1.34354
331.71309,1.33318
331.47202,1.33068
331.23094,1.33180
330.98987,1.33309
330.74880,1.33556
330.50773,1.34032
330.26666,1.34377
330.02559,1.33881
329.78452,1.32472
329.54345,1.31211
329.30238,1.31125
329.06131,1.31984
328.82024,1.32627
328.57917,1.32362
328.33810,1.31474
328.09703,1.30341
327.85596,1.29017
327.61489,1.27699
327.37382,1.26931
327.13275,1.27056
326.89167,1.27839
326.65060,1.28862
326.40953,1.29978
326.16846,1.31239
325.92739,1.32371
325.68632,1.32579
325.44525,1.31603
325.20418,1.30329
324.96311,1.29746
324.72204,1.29956
324.48097,1.30123
324.23990,1.29636
323.99883,1.29119
323.75776,1.29485
323.51669,1.30507
323.27562,1.30970
323.03455,1.30214
322.79348,1.28965
322.55240,1.28433
322.31133,1.29192
322.07026,1.31049
321.82919,1.33408
321.58812,1.35489
321.34705,1.36442
321.10598,1.35811
320.86491,1.34016
320.62384,1.32069
320.38277,1.31074
320.14170,1.31591
319.90063,1.33030
319.65956,1.34375
319.41849,1.35413
319.17742,1.36206
318.93635,1.35906
318.69528,1.33820
318.45421,1.31165
318.21313,1.29853
317.97206,1.30367
317.73099,1.31660
317.48992,1.32569
317.24885,1.32920
317.00778,1.33143
316.76671,1.33262
316.52564,1.32953
316.28457,1.32619
316.04350,1.33284
315.80243,1.35115
315.56136,1.36929
315.32029,1.37643
315.07922,1.37467
314.83815,1.36962
314.59708,1.36264
314.35601,1.35487
314.11494,1.34970
313.87386,1.35052
313.63279,1.35725
313.39172,1.36543
313.15065,1.37064
312.90958,1.37235
312.66851,1.37221
312.42744,1.37082
312.18637,1.36909
311.94530,1.37146
311.70423,1.38217
311.46316,1.39873
311.22209,1.41414
310.98102,1.42379
310.73995,1.42530
310.49888,1.41891
310.25781,1.40940
310.01674,1.40328
309.77567,1.40344
309.53459,1.40585
309.29352,1.40306
309.05245,1.39519
308.81138,1.39266
308.57031,1.40193
308.32924,1.41580
308.08817,1.42238
307.84710,1.42018
307.60603,1.41839
307.36496,1.42354
307.12389,1.43175
306.88282,1.43464
306.64175,1.43056
306.40068,1.42443
306.15961,1.41932
305.91854,1.41336
305.67747,1.40386
305.43640,1.39461
305.19532,1.39280
304.95425,1.39789
304.71318,1.40051
304.47211,1.39498
304.23104,1.38651
303.98997,1.38097
303.74890,1.37748
303.50783,1.37413
303.26676,1.37333
303.02569,1.37636
302.78462,1.37732
302.54355,1.37131
302.30248,1.35973
302.06141,1.34475
301.82034,1.32922
301.57927,1.31853
301.33820,1.31610
301.09713,1.31769
300.85605,1.31538
300.61498,1.30849
300.37391,1.30362
300.13284,1.30619
299.89177,1.31600
299.65070,1.32667
299.40963,1.32915
299.16856,1.32022
298.92749,1.30670
298.68642,1.29710
298.44535,1.29291
298.20428,1.29106
297.96321,1.28932
297.72214,1.28690
297.48107,1.28309
297.24000,1.27709
296.99893,1.26803
296.75786,1.25587
296.51678,1.24260
296.27571,1.23243
296.03464,1.22988
295.79357,1.23407
295.55250,1.23716
295.31143,1.23292
295.07036,1.22509
294.82929,1.22186
294.58822,1.22435
294.34715,1.22679
294.10608,1.22548
293.86501,1.22156
293.62394,1.21662
293.38287,1.21117
293.14180,1.20682
292.90073,1.20571
292.65966,1.20669
292.41859,1.20461
292.17751,1.19666
291.93644,1.18761
291.69537,1.18428
291.45430,1.18658
291.21323,1.18800
290.97216,1.18493
290.73109,1.18161
290.49002,1.18361
290.24895,1.19051
290.00788,1.19759
289.76681,1.20198
289.52574,1.20261
289.28467,1.19708
289.04360,1.18472
288.80253,1.17084
288.56146,1.16195
288.32039,1.15830
288.07932,1.15517
287.83824,1.14978
287.59717,1.14418
287.35610,1.14150
287.11503,1.14157
286.87396,1.14108
286.63289,1.13795
286.39182,1.13482
286.15075,1.13575
285.90968,1.14016
285.66861,1.14328
285.42754,1.14251
285.18647,1.13971
284.94540,1.13739
284.70433,1.13630
284.46326,1.13689
284.22219,1.13907
283.98112,1.14094
283.74005,1.14072
283.49897,1.13852
283.25790,1.13511
283.01683,1.13055
282.77576,1.12542
282.53469,1.12194
282.29362,1.12218
282.05255,1.12532
281.81148,1.12849
281.57041,1.13056
281.32934,1.13242
281.08827,1.13393
280.84720,1.13387
280.60613,1.13318
280.36506,1.13486
280.12399,1.13988
279.88292,1.14526
279.64185,1.14727
279.40078,1.14581
279.15970,1.14407
278.91863,1.14401
278.67756,1.14469
278.43649,1.14529
278.19542,1.14604
277.95435,1.14570
277.71328,1.14194
277.47221,1.13493
277.23114,1.12775
276.99007,1.12387
276.74900,1.12523
276.50793,1.13043
276.26686,1.13492
276.02579,1.13578
275.78472,1.13490
275.54365,1.13578
275.30258,1.13957
275.06151,1.14455
274.82043,1.14829
274.57936,1.15013
274.33829,1.15091
274.09722,1.15053
273.85615,1.14805
273.61508,1.14479
273.37401,1.14384
273.13294,1.14580
272.89187,1.14788
272.65080,1.14835
272.40973,1.14897
272.16866,1.15232
271.92759,1.15881
271.68652,1.16709
271.44545,1.17504
271.20438,1.18062
270.96331,1.18340
270.72224,1.18512
270.48116,1.18726
270.24009,1.18896
269.99902,1.18887
269.75795,1.18777
269.51688,1.18777
269.27581,1.19017
269.03474,1.19542
268.79367,1.20303
268.55260,1.21095
268.31153,1.21747
268.07046,1.22357
267.82939,1.23032
267.58832,1.23566
267.34725,1.23739
267.10618,1.23750
266.86511,1.23939
266.62404,1.24280
266.38297,1.24479
266.14189,1.24469
265.90082,1.24524
265.65975,1.24884
265.41868,1.25569
265.17761,1.26525
264.93654,1.27643
264.69547,1.28695
264.45440,1.29542
264.21333,1.30351
263.97226,1.31316
263.73119,1.32430
263.49012,1.33618
263.24905,1.34799
263.00798,1.35946
262.76691,1.37216
262.52584,1.38719
262.28477,1.40255
262.04370,1.41647
261.80262,1.43113
261.56155,1.45020
261.32048,1.47524
261.07941,1.50446
260.83834,1.53280
260.59727,1.55597
260.35620,1.57578
260.11513,1.59698
259.87406,1.61723
259.63299,1.62935
259.39192,1.63585
259.15085,1.64976
258.90978,1.67961
258.66871,1.71869
258.42764,1.74884
258.18657,1.76055
257.94550,1.76682
257.70443,1.78792
257.46335,1.82322
257.22228,1.84549
256.98121,1.84004
256.74014,1.82383
256.49907,1.80882
256.25800,1.79330
256.01693,1.78174
255.77586,1.78473
255.53479,1.80516
255.29372,1.83211
255.05265,1.84648
254.81158,1.83697
254.57051,1.80955
254.32944,1.77672
254.08837,1.74302
253.84730,1.70744
253.60623,1.67319
253.36516,1.64621
253.12408,1.63056
252.88301,1.62838
252.64194,1.63479
252.40087,1.63935
252.15980,1.63745
251.91873,1.63125
251.67766,1.62365
251.43659,1.61645
251.19552,1.60769
250.95445,1.59594
250.71338,1.58949
250.47231,1.59938
250.23124,1.62170
249.99017,1.63781
249.74910,1.63954
249.50803,1.63976
249.26696,1.64724
249.02589,1.65282
248.78481,1.64617
248.54374,1.62594
248.30267,1.59696
248.06160,1.57076
247.82053,1.56006
247.57946,1.56727
247.33839,1.58160
247.09732,1.59182
246.85625,1.59823
246.61518,1.60595
246.37411,1.61251
246.13304,1.61086
245.89197,1.60271
245.65090,1.60159
245.40983,1.61788
245.16876,1.64921
244.92769,1.68618
244.68661,1.71730
244.44554,1.73492
244.20447,1.74872
243.96340,1.77732
243.72233,1.82379
243.48126,1.87950
243.24019,1.94647
242.99912,2.02742
242.75805,2.08349
242.51698,2.04483
242.27591,1.91826
242.03484,1.79198
241.79377,1.70147
241.55270,1.63855
241.31163,1.58479
241.07056,1.52844
240.82949,1.46933
240.58842,1.41209
240.34734,1.36054
240.10627,1.31616
239.86520,1.27743
239.62413,1.24221
239.38306,1.21080
239.14199,1.18507
238.90092,1.16540
238.65985,1.14947
238.41878,1.13374
238.17771,1.11670
237.93664,1.09963
237.69557,1.08320
237.45450,1.06612
237.21343,1.04849
236.97236,1.03299
236.73129,1.02073
236.49022,1.00952
236.24915,0.99743
236.00807,0.98550
235.76700,0.97562
235.52593,0.96827
235.28486,0.96249
235.04379,0.95675
234.80272,0.95022
234.56165,0.94357
234.32058,0.93752
234.07951,0.93160
233.83844,0.92530
233.59737,0.91950
233.35630,0.91493
233.11523,0.91121
232.87416,0.90832
232.63309,0.90604
232.39202,0.90222
232.15095,0.89487
231.90988,0.88642
231.66880,0.88139
231.42773,0.88011
231.18666,0.87918
230.94559,0.87754
230.70452,0.87703
230.46345,0.87761
230.22238,0.87706
229.98131,0.87531
229.74024,0.87428
229.49917,0.87424
229.25810,0.87396
229.01703,0.87289
228.77596,0.87077
228.53489,0.86689
228.29382,0.86194
228.05275,0.85756
227.81168,0.85289
227.57061,0.84566
227.32953,0.83743
227.08846,0.83287
226.84739,0.83365
226.60632,0.83666
226.36525,0.83794
226.12418,0.83674
225.88311,0.83530
225.64204,0.83577
225.40097,0.83825
225.15990,0.84104
224.91883,0.84177
224.67776,0.83900
224.43669,0.83400
224.19562,0.83015
223.95455,0.82923
223.71348,0.82988
223.47241,0.83113
223.23134,0.83436
222.99026,0.84034
222.74919,0.84736
222.50812,0.85377
222.26705,0.85970
222.02598,0.86570
221.78491,0.87131
221.54384,0.87465
221.30277,0.87442
221.06170,0.87292
220.82063,0.87463
220.57956,0.88164
220.33849,0.89268
220.09742,0.90550
219.85635,0.91789
219.61528,0.92776
219.37421,0.93444
219.13314,0.93888
218.89207,0.94245
218.65099,0.94716
218.40992,0.95545
218.16885,0.96802
217.92778,0.98299
217.68671,0.99827
217.44564,1.01301
217.20457,1.02636
216.96350,1.03743
216.72243,1.04729
216.48136,1.05763
216.24029,1.06730
215.99922,1.07443
215.75815,1.08100
215.51708,1.09070
215.27601,1.10441
215.03494,1.12080
214.79387,1.13765
214.55280,1.15111
214.31172,1.15840
214.07065,1.16223
213.82958,1.16832
213.58851,1.17911
213.34744,1.19207
213.10637,1.20295
212.86530,1.20987
212.62423,1.21506
212.38316,1.22055
212.14209,1.22439
211.90102,1.22536
211.65995,1.22702
211.41888,1.23250
211.17781,1.23949
210.93674,1.24397
210.69567,1.24569
210.45460,1.24720
210.21353,1.24960
209.97245,1.25115
209.73138,1.24913
209.49031,1.24338
209.24924,1.23790
209.00817,1.23673
208.76710,1.23792
208.52603,1.23528
208.28496,1.22729
208.04389,1.21899
207.80282,1.21419
207.56175,1.21150
207.32068,1.20785
207.07961,1.20184
206.83854,1.19338
206.59747,1.18239
206.35640,1.16895
206.11533,1.15350
205.87426,1.13692
205.63318,1.12116
205.39211,1.10845
205.15104,1.09925
204.90997,1.09192
204.66890,1.08401
204.42783,1.07343
204.18676,1.05901
203.94569,1.04135
203.70462,1.02353
203.46355,1.01043
203.22248,1.00545
202.98141,1.00641
202.74034,1.00467
202.49927,0.99131
202.25820,0.96662
202.01713,0.93912
201.77606,0.91659
201.53499,0.90211
201.29391,0.89480
201.05284,0.89048
200.81177,0.88309
200.57070,0.86908
200.32963,0.85137
200.08856,0.83671
199.84749,0.82842
199.60642,0.82339
199.36535,0.81604
199.12428,0.80426
198.88321,0.79106
198.64214,0.78048
198.40107,0.77354
198.16000,0.76810
197.91893,0.76153
197.67786,0.75319
197.43679,0.74432
197.19572,0.73579
196.95464,0.72729
196.71357,0.71890
196.47250,0.71171
196.23143,0.70611
195.99036,0.70072
195.74929,0.69383
195.50822,0.68492
195.26715,0.67497
195.02608,0.66608
194.78501,0.66021
194.54394,0.65734
194.30287,0.65544
194.06180,0.65317
193.82073,0.65080
193.57966,0.64807
193.33859,0.64344
193.09752,0.63663
192.85645,0.62967
192.61537,0.62424
192.37430,0.61982
192.13323,0.61506
191.89216,0.60968
191.65109,0.60478
191.41002,0.60150
191.16895,0.59972
190.92788,0.59789
190.68681,0.59474
190.44574,0.59082
190.20467,0.58745
189.96360,0.58502
189.72253,0.58290
189.48146,0.58067
189.24039,0.57830
188.99932,0.57590
188.75825,0.57382
188.51718,0.57248
188.27610,0.57173
188.03503,0.57079
187.79396,0.56887
187.55289,0.56582
187.31182,0.56241
187.07075,0.55993
186.82968,0.55897
186.58861,0.55860
186.34754,0.55784
186.10647,0.55734
185.86540,0.55826
185.62433,0.56011
185.38326,0.56169
185.14219,0.56332
184.90112,0.56575
184.66005,0.56799
184.41898,0.56879
184.17791,0.56899
183.93683,0.56983
183.69576,0.57050
183.45469,0.56994
183.21362,0.56928
182.97255,0.56998
182.73148,0.57129
182.49041,0.57164
182.24934,0.57137
182.00827,0.57220
181.76720,0.57467
181.52613,0.57748
181.28506,0.57921
181.04399,0.57959
180.80292,0.57944
180.56185,0.58023
180.32078,0.58320
180.07971,0.58781
179.83864,0.59224
179.59756,0.59642
179.35649,0.60195
179.11542,0.60825
178.87435,0.61275
178.63328,0.61566
178.39221,0.62037
178.15114,0.62919
177.91007,0.64130
177.66900,0.65373
177.42793,0.66358
177.18686,0.67104
176.94579,0.67965
176.70472,0.69166
176.46365,0.70556
176.22258,0.71952
175.98151,0.73405
175.74044,0.75017
175.49937,0.76776
175.25829,0.78613
175.01722,0.80435
174.77615,0.82170
174.53508,0.83865
174.29401,0.85590
174.05294,0.87273
173.81187,0.88844
173.57080,0.90412
173.32973,0.92036
173.08866,0.93432
172.84759,0.94286
172.60652,0.94703
172.36545,0.95043
172.12438,0.95477
171.88331,0.95954
171.64224,0.96311
171.40117,0.96360
171.16010,0.96119
170.91902,0.95832
170.67795,0.95544
170.43688,0.94960
170.19581,0.93960
169.95474,0.92881
169.71367,0.92121
169.47260,0.91787
169.23153,0.91687
168.99046,0.91534
168.74939,0.91244
168.50832,0.90999
168.26725,0.90947
168.02618,0.91000
167.78511,0.90976
167.54404,0.90747
167.30297,0.90266
167.06190,0.89633
166.82083,0.89064
166.57975,0.88733
166.33868,0.88759
166.09761,0.89220
165.85654,0.90022
165.61547,0.90889
165.37440,0.91645
165.13333,0.92387
164.89226,0.93260
164.65119,0.94149
164.41012,0.94763
164.16905,0.95008
163.92798,0.95196
163.68691,0.95812
163.44584,0.97062
163.20477,0.98674
162.96370,1.00127
162.72263,1.01037
162.48156,1.01356
162.24048,1.01306
161.99941,1.01208
161.75834,1.01283
161.51727,1.01494
161.27620,1.01618
161.03513,1.01560
160.79406,1.01544
160.55299,1.01822
160.31192,1.02234
160.07085,1.02267
159.82978,1.01643
159.58871,1.00665
159.34764,0.99913
159.10657,0.99655
158.86550,0.99641
158.62443,0.99373
158.38336,0.98567
158.14229,0.97424
157.90121,0.96471
157.66014,0.96070
157.41907,0.96075
157.17800,0.96070
156.93693,0.95874
156.69586,0.95565
156.45479,0.95105
156.21372,0.94311
155.97265,0.93189
155.73158,0.91958
155.49051,0.90768
155.24944,0.89655
155.00837,0.88702
154.76730,0.87996
154.52623,0.87434
154.28516,0.86727
154.04409,0.85626
153.80302,0.84093
153.56194,0.82264
153.32087,0.80429
153.07980,0.78904
152.83873,0.77753
152.59766,0.76730
152.35659,0.75558
152.11552,0.74152
151.87445,0.72552
151.63338,0.70843
151.39231,0.69233
151.15124,0.68002
150.91017,0.67189
150.66910,0.66444
150.42803,0.65350
150.18696,0.63896
149.94589,0.62442
149.70482,0.61292
149.46375,0.60470
149.22267,0.59765
148.98160,0.58935
148.74053,0.57957
148.49946,0.57050
148.25839,0.56380
148.01732,0.55863
147.77625,0.55377
147.53518,0.55002
147.29411,0.54894
147.05304,0.54986
146.81197,0.55061
146.57090,0.55055
146.32983,0.55132
146.08876,0.55427
145.84769,0.55894
145.60662,0.56410
145.36555,0.56928
145.12448,0.57464
144.88340,0.57986
144.64233,0.58408
144.40126,0.58682
144.16019,0.58848
143.91912,0.58997
143.67805,0.59169
143.43698,0.59250
143.19591,0.59020
142.95484,0.58400
142.71377,0.57576
142.47270,0.56772
142.23163,0.56013
141.99056,0.55185
141.74949,0.54253
141.50842,0.53311
141.26735,0.52455
141.02628,0.51714
140.78521,0.51102
140.54413,0.50673
140.30306,0.50473
140.06199,0.50480
139.82092,0.50635
139.57985,0.50898
139.33878,0.51223
139.09771,0.51543
138.85664,0.51865
138.61557,0.52298
138.37450,0.52940
138.13343,0.53756
137.89236,0.54668
137.65129,0.55680
137.41022,0.56818
137.16915,0.58067
136.92808,0.59447
136.68701,0.61043
136.44594,0.62838
136.20486,0.64705
135.96379,0.66651
135.72272,0.68882
135.48165,0.71525
135.24058,0.74479
134.99951,0.77548
134.75844,0.80549
134.51737,0.83329
134.27630,0.85893
134.03523,0.88448
133.79416,0.91155
133.55309,0.94057
133.31202,0.97302
133.07095,1.00974
132.82988,1.04645
132.58881,1.07646
132.34774,1.09776
132.10667,1.11252
131.86559,1.12158
131.62452,1.12547
131.38345,1.12673
131.14238,1.12530
130.90131,1.11745
130.66024,1.10207
130.41917,1.08260
130.17810,1.06363
129.93703,1.04612
129.69596,1.02621
129.45489,0.99962
129.21382,0.96620
128.97275,0.92949
128.73168,0.89282
128.49061,0.85765
128.24954,0.82485
128.00847,0.79511
127.76740,0.76811
127.52632,0.74273
127.28525,0.71788
127.04418,0.69328
126.80311,0.67023
126.56204,0.65065
126.32097,0.63417
126.07990,0.61772
125.83883,0.59942
125.59776,0.58105
125.35669,0.56545
125.11562,0.55293
124.87455,0.54176
124.63348,0.53058
124.39241,0.51914
124.15134,0.50772
123.91027,0.49684
123.66920,0.48697
123.42812,0.47813
123.18705,0.47031
122.94598,0.46426
122.70491,0.46102
122.46384,0.46008
122.22277,0.45906
121.98170,0.45614
121.74063,0.45259
121.49956,0.45147
121.25849,0.45425
121.01742,0.45990
120.77635,0.46671
120.53528,0.47410
120.29421,0.48252
120.05314,0.49246
119.81207,0.50423
119.57100,0.51819
119.32993,0.53448
119.08885,0.55296
118.84778,0.57392
118.60671,0.59811
118.36564,0.62536
118.12457,0.65386
117.88350,0.68135
117.64243,0.70641
117.40136,0.72889
117.16029,0.74978
116.91922,0.76956
116.67815,0.78599
116.43708,0.79563
116.19601,0.79799
115.95494,0.79473
115.71387,0.78538
115.47280,0.76884
115.23173,0.74810
114.99066,0.72859
114.74958,0.71255
114.50851,0.69852
114.26744,0.68545
114.02637,0.67486
113.78530,0.66838
113.54423,0.66574
113.30316,0.66621
113.06209,0.66976
112.82102,0.67581
112.57995,0.68277
112.33888,0.68971
112.09781,0.69663
111.85674,0.70258
111.61567,0.70575
111.37460,0.70592
111.13353,0.70476
110.89246,0.70367
110.65139,0.70342
110.41031,0.70449
110.16924,0.70573
109.92817,0.70436
109.68710,0.69890
109.44603,0.68987
109.20496,0.67692
108.96389,0.65839
108.72282,0.63498
108.48175,0.61124
108.24068,0.59190
107.99961,0.57808
107.75854,0.56654
107.51747,0.55282
107.27640,0.53564
107.03533,0.51715
106.79426,0.49903
106.55319,0.48067
106.31212,0.46213
106.07104,0.44642
105.82997,0.43653
105.58890,0.43136
105.34783,0.42646
105.10676,0.41882
104.86569,0.40895
104.62462,0.39812
104.38355,0.38617
104.14248,0.37327
103.90141,0.36140
103.66034,0.35284
103.41927,0.34806
103.17820,0.34541
102.93713,0.34234
102.69606,0.33670
102.45499,0.32790
102.21392,0.31753
101.97285,0.30862
101.73177,0.30397
101.49070,0.30409
101.24963,0.30618
101.00856,0.30532
100.76749,0.29836
100.52642,0.28756
100.28535,0.27926
100.04428,0.27848
99.80321,0.28407
99.56214,0.28909
99.32107,0.28749
99.08000,0.28030
98.83893,0.27332
98.59786,0.27078
98.35679,0.27205
98.11572,0.27305
97.87465,0.27112
97.63358,0.26835
97.39250,0.26822
97.15143,0.27019
96.91036,0.27091
96.66929,0.27044
96.42822,0.27306
96.18715,0.28068
95.94608,0.28922
95.70501,0.29378
95.46394,0.29541
95.22287,0.29905
94.98180,0.30599
94.74073,0.31196
94.49966,0.31366
94.25859,0.31392
94.01752,0.31687
93.77645,0.32061
93.53538,0.32034
93.29431,0.31719
93.05323,0.31677
92.81216,0.31978
92.57109,0.32128
92.33002,0.31947
92.08895,0.31815
91.84788,0.31962
91.60681,0.32229
91.36574,0.32663
91.12467,0.33693
90.88360,0.35416
90.64253,0.37376
90.40146,0.39426
90.16039,0.42094
89.91932,0.45690
89.67825,0.49863
89.43718,0.54245
89.19611,0.58672
88.95504,0.62799
88.71396,0.66444
88.47289,0.69636
88.23182,0.71602
87.99075,0.71249
87.74968,0.68902
87.50861,0.65735
87.26754,0.62255
87.02647,0.58545
86.78540,0.54837
86.54433,0.51316
86.30326,0.48036
86.06219,0.45039
85.82112,0.42308
85.58005,0.39780
85.33898,0.37486
85.09791,0.35502
84.85684,0.33784
84.61577,0.32204
84.37469,0.30710
84.13362,0.29345
83.89255,0.28134
83.65148,0.27054
83.41041,0.26094
83.16934,0.25259
82.92827,0.24530
82.68720,0.23875
82.44613,0.23232
82.20506,0.22543
81.96399,0.21858
81.72292,0.21290
81.48185,0.20834
81.24078,0.20412
80.99971,0.20055
80.75864,0.19857
80.51757,0.19786
80.27650,0.19720
80.03542,0.19578
79.79435,0.19353
79.55328,0.19104
79.31221,0.18938
79.07114,0.18915
78.83007,0.18979
78.58900,0.19011
78.34793,0.18940
78.10686,0.18797
77.86579,0.18638
77.62472,0.18432
77.38365,0.18102
77.14258,0.17686
76.90151,0.17357
76.66044,0.17261
76.41937,0.17379
76.17830,0.17560
75.93723,0.17637
75.69615,0.17534
75.45508,0.17274
75.21401,0.16916
74.97294,0.16540
74.73187,0.16297
74.49080,0.16336
74.24973,0.16618
74.00866,0.16891
73.76759,0.16932
73.52652,0.16754
73.28545,0.16492
73.04438,0.16231
72.80331,0.16062
72.56224,0.16128
72.32117,0.16416
72.08010,0.16656
71.83903,0.16614
71.59796,0.16365
71.35688,0.16096
71.11581,0.15867
70.87474,0.15713
70.63367,0.15799
70.39260,0.16328
70.15153,0.17367
69.91046,0.18836
69.66939,0.20579
69.42832,0.22356
69.18725,0.23769
68.94618,0.24337
68.70511,0.23865
68.46404,0.22670
68.22297,0.21269
67.98190,0.19965
67.74083,0.18783
67.49976,0.17679
67.25869,0.16662
67.01761,0.15776
66.77654,0.15057
66.53547,0.14541
66.29440,0.14268
66.05333,0.14258
65.81226,0.14494
65.57119,0.14927
65.33012,0.15553
65.08905,0.16453
64.84798,0.17696
64.60691,0.19152
64.36584,0.20497
64.12477,0.21440
63.88370,0.21861
63.64263,0.21749
63.40156,0.21166
63.16049,0.20253
62.91942,0.19176
62.67834,0.18068
62.43727,0.16993
62.19620,0.15956
61.95513,0.14949
61.71406,0.13998
61.47299,0.13141
61.23192,0.12425
60.99085,0.11913
60.74978,0.11678
60.50871,0.11778
60.26764,0.12207
60.02657,0.12838
59.78550,0.13487
59.54443,0.14111
59.30336,0.14824
59.06229,0.15616
58.82122,0.16207
58.58015,0.16335
58.33907,0.16072
58.09800,0.15688
57.85693,0.15301
57.61586,0.14792
57.37479,0.13977
57.13372,0.12841
56.89265,0.11652
56.65158,0.10794
56.41051,0.10522
56.16944,0.10967
55.92837,0.12216
55.68730,0.14146
55.44623,0.16175
55.20516,0.17381
54.96409,0.17149
54.72302,0.15737
54.48195,0.13945
54.24088,0.12456
53.99980,0.11715
53.75873,0.12035
53.51766,0.13482
53.27659,0.15684
53.03552,0.17854
52.79445,0.19080
52.55338,0.18723
52.31231,0.16852
52.07124,0.14398
51.83017,0.12655
51.58910,0.12591
51.34803,0.14548
51.10696,0.17821
50.86589,0.19733
50.62482,0.17561
50.38375,0.13379
50.14268,0.10998
49.90161,0.12128
49.66053,0.16378
49.41946,0.20464
49.17839,0.19468
48.93732,0.15086
48.69625,0.12702
48.45518,0.13925
48.21411,0.16650
47.97304,0.17306
47.73197,0.15626
47.49090,0.14511
47.24983,0.14793
47.00876,0.14312
46.76769,0.12228
46.52662,0.10972
46.28555,0.11691
46.04448,0.12579
45.80341,0.11978
45.56234,0.11516
45.32126,0.12488
45.08019,0.13095
44.83912,0.12152
44.59805,0.11676
44.35698,0.12578
44.11591,0.13255
43.87484,0.13150
43.63377,0.13486
43.39270,0.14399
43.15163,0.14991
42.91056,0.15136
42.66949,0.15177
42.42842,0.15353
42.18735,0.15924
41.94628,0.16538
41.70521,0.16409
41.46414,0.15836
41.22307,0.15994
40.98199,0.17220
40.74092,0.18544
40.49985,0.19028
40.25878,0.18966
40.01771,0.19185
39.77664,0.19768
39.53557,0.20159
39.29450,0.20088
39.05343,0.19897
38.81236,0.20227
38.57129,0.21484
38.33022,0.23325
38.08915,0.25006
37.84808,0.26426
37.60701,0.27750
37.36594,0.28428
37.12487,0.27857
36.88380,0.26137
36.64272,0.23952
36.40165,0.22445
36.16058,0.22273
35.91951,0.22719
35.67844,0.22746
35.43737,0.22273
35.19630,0.21601
34.95523,0.20668
34.71416,0.19565
34.47309,0.18734
34.23202,0.18366
33.99095,0.18102
33.74988,0.17461
33.50881,0.16878
33.26774,0.17594
33.02667,0.19715
32.78560,0.21499
32.54453,0.21460
32.30345,0.20016
32.06238,0.18225
31.82131,0.16627
31.58024,0.15455
31.33917,0.14713
31.09810,0.14093
30.85703,0.13346
30.61596,0.12560
30.37489,0.12001
30.13382,0.11771
29.89275,0.11684
29.65168,0.11375
29.41061,0.10395
29.16954,0.08569
28.92847,0.06435
28.68740,0.04833
28.44633,0.04074
28.20526,0.03672
27.96418,0.02725
27.72311,0.00913
27.48204,-0.01092
27.24097,-0.02553
26.99990,-0.03462
26.75883,-0.04273
26.51776,-0.05681
26.27669,-0.08114
26.03562,-0.10506
25.79455,-0.11031
25.55348,-0.09722
25.31241,-0.08339
25.07134,-0.07849
24.83027,-0.07993
24.58920,-0.08261
24.34813,-0.08387
24.10706,-0.08767
23.86599,-0.10450
23.62491,-0.14010
23.38384,-0.18479
23.14277,-0.22044
22.90170,-0.23592
22.66063,-0.23211
22.41956,-0.21513
22.17849,-0.19870
21.93742,-0.20500
21.69635,-0.24167
21.45528,-0.28384
21.21421,-0.30255
20.97314,-0.29938
20.73207,-0.28979
20.49100,-0.27731
20.24993,-0.25873
20.00886,-0.23799
19.76779,-0.22396
19.52672,-0.22035
19.28564,-0.22996
19.04457,-0.25737
18.80350,-0.29788
18.56243,-0.33962
18.32136,-0.38070
18.08029,-0.42561
17.83922,-0.46267
17.59815,-0.47370
17.35708,-0.45738
17.11601,-0.42624
16.87494,-0.40054
16.63387,-0.39256
16.39280,-0.39266
16.15173,-0.38204
15.91066,-0.35843
15.66959,-0.34221
15.42852,-0.35782
15.18745,-0.40784
14.94637,-0.45572
14.70530,-0.45949
14.46423,-0.42275
14.22316,-0.37785
13.98209,-0.35228
13.74102,-0.36026
13.49995,-0.39883
13.25888,-0.43975
13.01781,-0.44736
12.77674,-0.42533
12.53567,-0.39804
12.29460,-0.38708
12.05353,-0.39895
11.81246,-0.41819
11.57139,-0.42366
11.33032,-0.42683
11.08925,-0.44278
10.84818,-0.45509
10.60710,-0.44663
10.36603,-0.43475
10.12496,-0.44126
9.88389,-0.45760
9.64282,-0.46233
9.40175,-0.45588
9.16068,-0.44953
8.91961,-0.43756
8.67854,-0.42122
8.43747,-0.40128
8.19640,-0.38934
7.95533,-0.39495
7.71426,-0.41076
7.47319,-0.42056
7.23212,-0.41876
6.99105,-0.41931
6.74998,-0.43575
6.50891,-0.45357
6.26783,-0.44389
6.02676,-0.41746
5.78569,-0.40033
5.54462,-0.40711
5.30355,-0.44094
5.06248,-0.47146
4.82141,-0.45185
4.58034,-0.39786
4.33927,-0.35456
4.09820,-0.35171
3.85713,-0.38210
3.61606,-0.40399
3.37499,-0.40741
3.13392,-0.40398
2.89285,-0.40367
2.65178,-0.38675
2.41071,-0.35757
2.16964,-0.35780
1.92856,-0.38714
1.68749,-0.41890
1.44642,-0.43166
1.20535,-0.41670
0.96428,-0.39889
0.72321,-0.42643
0.48214,-0.49654
0.24107,-0.46704
-0.00000,-0.09735
