399.69498,1.60796
399.45391,1.60638
399.21284,1.59865
398.97177,1.59150
398.73070,1.59301
398.48963,1.60259
398.24856,1.61508
398.00749,1.62740
397.76642,1.63663
397.52535,1.63739
397.28428,1.62607
397.04321,1.60987
396.80214,1.60497
396.56107,1.61797
396.32000,1.63414
396.07892,1.63418
395.83785,1.62018
395.59678,1.60441
395.35571,1.59360
395.11464,1.59092
394.87357,1.59181
394.63250,1.59367
394.39143,1.59869
394.15036,1.60330
393.90929,1.60160
393.66822,1.59754
393.42715,1.60065
393.18608,1.61469
392.94501,1.63355
392.70394,1.64738
392.46287,1.65080
392.22180,1.63724
391.98073,1.60600
391.73965,1.57320
391.49858,1.55509
391.25751,1.55207
391.01644,1.55480
390.77537,1.55597
390.53430,1.55019
390.29323,1.53356
390.05216,1.51236
389.81109,1.50054
389.57002,1.50489
389.32895,1.51731
389.08788,1.52113
388.84681,1.50609
388.60574,1.48008
388.36467,1.46460
388.12360,1.47429
387.88253,1.49708
387.64146,1.50177
387.40038,1.47795
387.15931,1.45160
386.91824,1.44663
386.67717,1.45959
386.43610,1.47241
386.19503,1.48060
385.95396,1.48992
385.71289,1.48618
385.47182,1.45740
385.23075,1.41733
384.98968,1.39129
384.74861,1.39011
384.50754,1.39831
384.26647,1.39848
384.02540,1.39151
383.78433,1.38257
383.54326,1.37066
383.30219,1.35896
383.06111,1.35897
382.82004,1.37415
382.57897,1.38574
382.33790,1.37420
382.09683,1.35320
381.85576,1.34692
381.61469,1.35135
381.37362,1.34536
381.13255,1.32662
380.89148,1.30589
380.65041,1.28371
380.40934,1.25736
380.16827,1.23813
379.92720,1.23831
379.68613,1.25495
379.44506,1.27549
379.20399,1.29053
378.96292,1.30450
378.72184,1.32374
378.48077,1.33967
378.23970,1.34324
377.99863,1.34292
377.75756,1.34577
377.51649,1.35156
377.27542,1.36518
377.03435,1.39089
376.79328,1.41720
376.55221,1.42933
376.31114,1.42908
376.07007,1.42402
375.82900,1.42287
375.58793,1.43447
375.34686,1.46101
375.10579,1.49252
374.86472,1.51103
374.62365,1.50444
374.38257,1.47841
374.14150,1.45275
373.90043,1.44363
373.65936,1.45369
373.41829,1.47751
373.17722,1.50803
372.93615,1.53156
372.69508,1.52765
372.45401,1.49345
372.21294,1.45194
371.97187,1.42849
371.73080,1.43273
371.48973,1.45505
371.24866,1.47367
371.00759,1.47322
370.76652,1.45941
370.52545,1.44642
370.28437,1.44127
370.04330,1.44579
369.80223,1.45669
369.56116,1.46185
369.32009,1.45231
369.07902,1.43692
368.83795,1.43207
368.59688,1.44258
368.35581,1.45586
368.11474,1.45381
367.87367,1.43388
367.63260,1.41349
367.39153,1.40778
367.15046,1.41211
366.90939,1.41125
366.66832,1.40051
366.42725,1.38912
366.18618,1.38369
365.94510,1.38352
365.70403,1.38841
365.46296,1.39677
365.22189,1.40151
364.98082,1.39786
364.73975,1.39195
364.49868,1.39307
364.25761,1.39974
364.01654,1.40090
363.77547,1.39060
363.53440,1.37426
363.29333,1.36070
363.05226,1.35550
362.81119,1.35852
362.57012,1.36312
362.32905,1.36296
362.08798,1.35952
361.84691,1.35710
361.60583,1.35782
361.36476,1.36278
361.12369,1.36877
360.88262,1.36798
360.64155,1.35723
360.40048,1.34192
360.15941,1.32964
359.91834,1.32455
359.67727,1.32484
359.43620,1.32426
359.19513,1.32066
358.95406,1.32056
358.71299,1.32859
358.47192,1.33924
358.23085,1.34573
357.98978,1.34813
357.74871,1.34817
357.50764,1.34328
357.26656,1.33141
357.02549,1.31834
356.78442,1.31186
356.54335,1.31151
356.30228,1.31104
356.06121,1.30863
355.82014,1.30962
355.57907,1.31811
355.33800,1.32953
355.09693,1.33726
354.85586,1.34230
354.61479,1.34918
354.37372,1.35505
354.13265,1.34949
353.89158,1.32993
353.65051,1.30885
353.40944,1.29907
353.16837,1.30363
352.92729,1.31811
352.68622,1.33266
352.44515,1.33632
352.20408,1.32729
351.96301,1.31573
351.72194,1.31384
351.48087,1.32533
351.23980,1.34216
350.99873,1.35226
350.75766,1.35086
350.51659,1.33947
350.27552,1.32138
350.03445,1.30189
349.79338,1.28936
349.55231,1.29035
349.31124,1.30011
349.07017,1.30562
348.82910,1.30208
348.58802,1.29975
348.34695,1.31040
348.10588,1.33191
347.86481,1.34946
347.62374,1.35277
347.38267,1.34769
347.14160,1.34523
346.90053,1.34614
346.65946,1.34298
346.41839,1.33230
346.17732,1.31968
345.93625,1.31339
345.69518,1.31617
345.45411,1.32332
345.21304,1.32935
344.97197,1.33626
344.73090,1.35053
344.48983,1.37334
344.24875,1.39623
344.00768,1.40896
343.76661,1.41151
343.52554,1.41177
343.28447,1.41303
343.04340,1.41129
342.80233,1.40629
342.56126,1.40574
342.32019,1.41435
342.07912,1.42650
341.83805,1.43411
341.59698,1.43791
341.35591,1.44303
341.11484,1.44786
340.87377,1.44561
340.63270,1.43430
340.39163,1.42169
340.15056,1.41748
339.90948,1.42354
339.66841,1.43297
339.42734,1.43895
339.18627,1.44333
338.94520,1.45420
338.70413,1.47323
338.46306,1.48571
338.22199,1.47641
337.98092,1.45568
337.73985,1.44726
337.49878,1.45789
337.25771,1.47252
337.01664,1.47351
336.77557,1.46219
336.53450,1.45611
336.29343,1.46757
336.05236,1.49010
335.81129,1.50664
335.57021,1.50429
335.32914,1.48134
335.08807,1.45015
334.84700,1.43013
334.60593,1.43063
334.36486,1.44272
334.12379,1.45324
333.88272,1.45949
333.64165,1.46125
333.40058,1.45265
333.15951,1.42809
332.91844,1.39646
332.67737,1.37633
332.43630,1.37412
332.19523,1.38187
331.95416,1.38858
331.71309,1.38784
331.47202,1.38458
331.23094,1.38419
330.98987,1.37994
330.74880,1.36656
330.50773,1.35366
330.26666,1.35196
330.02559,1.35706
329.78452,1.35721
329.54345,1.35205
329.30238,1.34913
329.06131,1.34640
328.82024,1.33652
328.57917,1.32290
328.33810,1.31642
328.09703,1.32068
327.85596,1.33192
327.61489,1.34987
327.37382,1.37552
327.13275,1.39829
326.89167,1.40214
326.65060,1.39152
326.40953,1.38833
326.16846,1.39855
325.92739,1.40071
325.68632,1.37724
325.44525,1.34621
325.20418,1.33721
324.96311,1.35429
324.72204,1.37737
324.48097,1.39271
324.23990,1.40336
323.99883,1.40689
323.75776,1.39185
323.51669,1.35868
323.27562,1.32368
323.03455,1.30256
322.79348,1.29964
322.55240,1.30646
322.31133,1.31229
322.07026,1.31904
321.82919,1.33382
321.58812,1.34960
321.34705,1.35256
321.10598,1.34655
320.86491,1.34667
320.62384,1.35583
320.38277,1.36663
320.14170,1.37955
319.90063,1.39516
319.65956,1.39765
319.41849,1.38020
319.17742,1.36396
318.93635,1.36733
318.69528,1.38636
318.45421,1.40120
318.21313,1.39532
317.97206,1.36727
317.73099,1.33207
317.48992,1.31210
317.24885,1.31579
317.00778,1.33412
316.76671,1.35505
316.52564,1.37043
316.28457,1.37417
316.04350,1.36123
315.80243,1.33780
315.56136,1.32607
315.32029,1.33766
315.07922,1.36099
314.83815,1.37941
314.59708,1.38797
314.35601,1.38624
314.11494,1.37231
313.87386,1.35474
313.63279,1.35181
313.39172,1.37021
313.15065,1.39620
312.90958,1.41510
312.66851,1.42669
312.42744,1.43489
312.18637,1.43752
311.94530,1.43135
311.70423,1.41969
311.46316,1.41170
311.22209,1.41454
310.98102,1.42330
310.73995,1.42423
310.49888,1.41480
310.25781,1.40870
310.01674,1.41727
309.77567,1.43449
309.53459,1.44411
309.29352,1.44126
309.05245,1.43584
308.81138,1.43904
308.57031,1.45125
308.32924,1.45955
308.08817,1.45136
307.84710,1.42897
307.60603,1.41018
307.36496,1.40553
307.12389,1.40695
306.88282,1.40671
306.64175,1.41095
306.40068,1.42457
306.15961,1.43625
305.91854,1.43697
305.67747,1.43487
305.43640,1.43733
305.19532,1.43893
304.95425,1.43678
304.71318,1.43531
304.47211,1.43465
304.23104,1.43077
303.98997,1.42108
303.74890,1.40471
303.50783,1.38594
303.26676,1.37519
303.02569,1.37759
302.78462,1.38659
302.54355,1.39134
302.30248,1.38759
302.06141,1.37864
301.82034,1.36797
301.57927,1.35921
301.33820,1.35837
301.09713,1.36610
300.85605,1.37342
300.61498,1.37130
300.37391,1.36093
300.13284,1.35156
299.89177,1.35030
299.65070,1.35515
299.40963,1.35860
299.16856,1.35713
298.92749,1.35225
298.68642,1.34366
298.44535,1.33163
298.20428,1.32326
297.96321,1.32497
297.72214,1.33197
297.48107,1.33366
297.24000,1.32785
296.99893,1.32079
296.75786,1.31597
296.51678,1.31167
296.27571,1.30460
296.03464,1.29325
295.79357,1.28057
295.55250,1.27076
295.31143,1.26642
295.07036,1.26628
294.82929,1.26579
294.58822,1.26158
294.34715,1.25421
294.10608,1.24687
293.86501,1.24151
293.62394,1.23835
293.38287,1.23747
293.14180,1.23780
292.90073,1.23730
292.65966,1.23617
292.41859,1.23732
292.17751,1.24160
291.93644,1.24567
291.69537,1.24766
291.45430,1.24974
291.21323,1.25201
290.97216,1.24967
290.73109,1.24019
290.49002,1.22865
290.24895,1.22256
290.00788,1.22464
289.76681,1.23143
289.52574,1.23650
289.28467,1.23543
289.04360,1.22885
288.80253,1.22079
288.56146,1.21476
288.32039,1.21214
288.07932,1.21268
287.83824,1.21432
287.59717,1.21327
287.35610,1.20738
287.11503,1.19894
286.87396,1.19279
286.63289,1.19121
286.39182,1.19142
286.15075,1.19072
285.90968,1.19098
285.66861,1.19480
285.42754,1.20065
285.18647,1.20343
284.94540,1.20041
284.70433,1.19506
284.46326,1.19221
284.22219,1.19213
283.98112,1.19224
283.74005,1.19175
283.49897,1.19167
283.25790,1.19207
283.01683,1.19192
282.77576,1.19009
282.53469,1.18591
282.29362,1.18042
282.05255,1.17689
281.81148,1.17829
281.57041,1.18317
281.32934,1.18656
281.08827,1.18618
280.84720,1.18422
280.60613,1.18198
280.36506,1.17830
280.12399,1.17399
279.88292,1.17288
279.64185,1.17716
279.40078,1.18486
279.15970,1.19129
278.91863,1.19171
278.67756,1.18515
278.43649,1.17636
278.19542,1.17123
277.95435,1.17079
277.71328,1.17236
277.47221,1.17493
277.23114,1.17945
276.99007,1.18431
276.74900,1.18543
276.50793,1.18188
276.26686,1.17817
276.02579,1.17954
275.78472,1.18590
275.54365,1.19200
275.30258,1.19390
275.06151,1.19316
274.82043,1.19301
274.57936,1.19324
274.33829,1.19064
274.09722,1.18376
273.85615,1.17570
273.61508,1.17201
273.37401,1.17594
273.13294,1.18573
272.89187,1.19625
272.65080,1.20201
272.40973,1.19944
272.16866,1.19059
271.92759,1.18425
271.68652,1.18865
271.44545,1.20276
271.20438,1.21617
270.96331,1.21923
270.72224,1.21293
270.48116,1.20619
270.24009,1.20555
269.99902,1.21088
269.75795,1.21888
269.51688,1.22701
269.27581,1.23434
269.03474,1.23964
268.79367,1.23971
268.55260,1.23243
268.31153,1.22206
268.07046,1.21718
267.82939,1.22244
267.58832,1.23481
267.34725,1.24758
267.10618,1.25591
266.86511,1.26015
266.62404,1.26576
266.38297,1.27844
266.14189,1.29746
265.90082,1.31486
265.65975,1.32306
265.41868,1.32230
265.17761,1.31988
264.93654,1.32346
264.69547,1.33553
264.45440,1.35199
264.21333,1.36561
263.97226,1.37314
263.73119,1.37796
263.49012,1.38443
263.24905,1.39167
263.00798,1.39607
262.76691,1.39850
262.52584,1.40468
262.28477,1.41849
262.04370,1.43728
261.80262,1.45671
261.56155,1.47565
261.32048,1.49519
261.07941,1.51505
260.83834,1.53169
260.59727,1.54720
260.35620,1.57216
260.11513,1.61033
259.87406,1.64954
259.63299,1.67835
259.39192,1.70177
259.15085,1.72584
258.90978,1.74603
258.66871,1.75919
258.42764,1.77229
258.18657,1.79157
257.94550,1.81233
257.70443,1.81964
257.46335,1.80471
257.22228,1.79668
256.98121,1.81782
256.74014,1.85665
256.49907,1.88661
256.25800,1.89376
256.01693,1.89048
255.77586,1.88101
255.53479,1.85755
255.29372,1.83050
255.05265,1.80906
254.81158,1.78060
254.57051,1.73845
254.32944,1.69778
254.08837,1.67526
253.84730,1.67426
253.60623,1.68527
253.36516,1.69575
253.12408,1.70016
252.88301,1.70288
252.64194,1.70871
252.40087,1.71632
252.15980,1.71638
251.91873,1.69672
251.67766,1.66280
251.43659,1.63851
251.19552,1.63830
250.95445,1.65276
250.71338,1.65985
250.47231,1.64663
250.23124,1.61829
249.99017,1.59011
249.74910,1.57509
249.50803,1.57460
249.26696,1.58161
249.02589,1.58955
248.78481,1.59249
248.54374,1.58472
248.30267,1.57107
248.06160,1.56645
247.82053,1.57859
247.57946,1.59827
247.33839,1.61210
247.09732,1.62094
246.85625,1.62966
246.61518,1.63537
246.37411,1.63872
246.13304,1.64708
245.89197,1.66747
245.65090,1.69657
245.40983,1.71353
245.16876,1.70069
244.92769,1.67445
244.68661,1.67037
244.44554,1.70787
244.20447,1.77699
243.96340,1.84437
243.72233,1.88364
243.48126,1.91283
243.24019,1.98318
242.99912,2.13334
242.75805,2.28490
242.51698,2.16785
242.27591,1.97599
242.03484,1.84088
241.79377,1.75026
241.55270,1.68277
241.31163,1.62381
241.07056,1.57151
240.82949,1.52863
240.58842,1.48801
240.34734,1.43953
240.10627,1.38663
239.86520,1.34151
239.62413,1.30876
239.38306,1.28264
239.14199,1.25581
238.90092,1.22624
238.65985,1.19640
238.41878,1.16981
238.17771,1.14858
237.93664,1.13223
237.69557,1.11762
237.45450,1.10091
237.21343,1.08117
236.97236,1.06176
236.73129,1.04672
236.49022,1.03638
236.24915,1.02775
236.00807,1.01833
235.76700,1.00819
235.52593,0.99822
235.28486,0.98827
235.04379,0.97826
234.80272,0.97050
234.56165,0.96752
234.32058,0.96718
234.07951,0.96477
233.83844,0.96010
233.59737,0.95614
233.35630,0.95168
233.11523,0.94295
232.87416,0.93141
232.63309,0.92317
232.39202,0.92149
232.15095,0.92464
231.90988,0.92916
231.66880,0.93204
231.42773,0.93195
231.18666,0.92978
230.94559,0.92657
230.70452,0.92119
230.46345,0.91247
230.22238,0.90288
229.98131,0.89666
229.74024,0.89403
229.49917,0.89117
229.25810,0.88688
229.01703,0.88481
228.77596,0.88757
228.53489,0.89295
228.29382,0.89765
228.05275,0.90009
227.81168,0.89845
227.57061,0.89099
227.32953,0.87953
227.08846,0.86846
226.84739,0.86096
226.60632,0.85761
226.36525,0.85679
226.12418,0.85559
225.88311,0.85188
225.64204,0.84722
225.40097,0.84614
225.15990,0.85099
224.91883,0.85835
224.67776,0.86291
224.43669,0.86293
224.19562,0.85962
223.95455,0.85488
223.71348,0.85230
223.47241,0.85546
223.23134,0.86361
222.99026,0.87304
222.74919,0.88191
222.50812,0.88975
222.26705,0.89485
222.02598,0.89654
221.78491,0.89662
221.54384,0.89690
221.30277,0.89850
221.06170,0.90310
220.82063,0.91166
220.57956,0.92233
220.33849,0.93161
220.09742,0.93711
219.85635,0.93888
219.61528,0.93945
219.37421,0.94316
219.13314,0.95311
218.89207,0.96824
218.65099,0.98467
218.40992,0.99936
218.16885,1.01093
217.92778,1.01807
217.68671,1.02134
217.44564,1.02563
217.20457,1.03547
216.96350,1.04983
216.72243,1.06484
216.48136,1.07875
216.24029,1.09125
215.99922,1.10155
215.75815,1.10986
215.51708,1.11832
215.27601,1.12885
215.03494,1.14101
214.79387,1.15318
214.55280,1.16250
214.31172,1.16778
214.07065,1.17399
213.82958,1.18659
213.58851,1.20622
213.34744,1.22863
213.10637,1.24545
212.86530,1.24783
212.62423,1.23590
212.38316,1.22241
212.14209,1.22148
211.90102,1.23561
211.65995,1.25494
211.41888,1.26752
211.17781,1.26885
210.93674,1.26294
210.69567,1.25730
210.45460,1.25489
210.21353,1.25168
209.97245,1.24384
209.73138,1.23550
209.49031,1.23432
209.24924,1.24133
209.00817,1.24977
208.76710,1.25222
208.52603,1.24636
208.28496,1.23633
208.04389,1.22845
207.80282,1.22360
207.56175,1.21699
207.32068,1.20637
207.07961,1.19544
206.83854,1.18975
206.59747,1.19106
206.35640,1.19438
206.11533,1.19106
205.87426,1.17690
205.63318,1.15614
205.39211,1.13565
205.15104,1.11793
204.90997,1.10104
204.66890,1.08344
204.42783,1.06786
204.18676,1.05849
203.94569,1.05573
203.70462,1.05639
203.46355,1.05661
203.22248,1.05123
202.98141,1.03539
202.74034,1.01194
202.49927,0.99086
202.25820,0.97729
202.01713,0.96651
201.77606,0.95194
201.53499,0.93339
201.29391,0.91638
201.05284,0.90545
200.81177,0.89976
200.57070,0.89417
200.32963,0.88347
200.08856,0.86735
199.84749,0.85138
199.60642,0.84158
199.36535,0.83880
199.12428,0.83768
198.88321,0.83043
198.64214,0.81438
198.40107,0.79602
198.16000,0.78346
197.91893,0.77773
197.67786,0.77319
197.43679,0.76476
197.19572,0.75345
196.95464,0.74363
196.71357,0.73731
196.47250,0.73162
196.23143,0.72220
195.99036,0.70956
195.74929,0.69866
195.50822,0.69208
195.26715,0.68738
195.02608,0.68210
194.78501,0.67751
194.54394,0.67525
194.30287,0.67380
194.06180,0.66987
193.82073,0.66246
193.57966,0.65473
193.33859,0.65025
193.09752,0.64820
192.85645,0.64401
192.61537,0.63590
192.37430,0.62798
192.13323,0.62466
191.89216,0.62467
191.65109,0.62330
191.41002,0.61962
191.16895,0.61754
190.92788,0.61892
190.68681,0.61974
190.44574,0.61582
190.20467,0.60853
189.96360,0.60159
189.72253,0.59615
189.48146,0.59180
189.24039,0.58961
188.99932,0.59058
188.75825,0.59295
188.51718,0.59394
188.27610,0.59332
188.03503,0.59259
187.79396,0.59161
187.55289,0.58890
187.31182,0.58485
187.07075,0.58134
186.82968,0.57860
186.58861,0.57553
186.34754,0.57275
186.10647,0.57212
185.86540,0.57337
185.62433,0.57456
185.38326,0.57552
185.14219,0.57736
184.90112,0.57890
184.66005,0.57808
184.41898,0.57669
184.17791,0.57825
183.93683,0.58220
183.69576,0.58480
183.45469,0.58475
183.21362,0.58387
182.97255,0.58376
182.73148,0.58477
182.49041,0.58688
182.24934,0.58973
182.00827,0.59277
181.76720,0.59590
181.52613,0.59878
181.28506,0.59982
181.04399,0.59786
180.80292,0.59476
180.56185,0.59375
180.32078,0.59536
180.07971,0.59794
179.83864,0.60094
179.59756,0.60443
179.35649,0.60738
179.11542,0.60993
178.87435,0.61456
178.63328,0.62229
178.39221,0.63134
178.15114,0.64132
177.91007,0.65388
177.66900,0.66822
177.42793,0.68099
177.18686,0.69163
176.94579,0.70307
176.70472,0.71680
176.46365,0.73131
176.22258,0.74508
175.98151,0.75766
175.74044,0.76897
175.49937,0.77991
175.25829,0.79223
175.01722,0.80668
174.77615,0.82362
174.53508,0.84408
174.29401,0.86667
174.05294,0.88615
173.81187,0.89981
173.57080,0.91104
173.32973,0.92273
173.08866,0.93363
172.84759,0.94288
172.60652,0.95096
172.36545,0.95733
172.12438,0.96141
171.88331,0.96367
171.64224,0.96460
171.40117,0.96477
171.16010,0.96423
170.91902,0.96086
170.67795,0.95270
170.43688,0.94239
170.19581,0.93515
169.95474,0.93165
169.71367,0.92735
169.47260,0.91927
169.23153,0.90963
168.99046,0.90328
168.74939,0.90421
168.50832,0.91296
168.26725,0.92497
168.02618,0.93292
167.78511,0.93244
167.54404,0.92462
167.30297,0.91382
167.06190,0.90507
166.82083,0.90167
166.57975,0.90322
166.33868,0.90752
166.09761,0.91345
165.85654,0.92021
165.61547,0.92636
165.37440,0.93117
165.13333,0.93481
164.89226,0.93720
164.65119,0.93866
164.41012,0.94243
164.16905,0.95369
163.92798,0.97271
163.68691,0.99186
163.44584,1.00190
163.20477,1.00086
162.96370,0.99515
162.72263,0.99261
162.48156,0.99666
162.24048,1.00597
161.99941,1.01706
161.75834,1.02607
161.51727,1.02981
161.27620,1.02777
161.03513,1.02279
160.79406,1.01825
160.55299,1.01528
160.31192,1.01293
160.07085,1.00972
159.82978,1.00387
159.58871,0.99438
159.34764,0.98405
159.10657,0.97883
158.86550,0.98201
158.62443,0.98953
158.38336,0.99336
158.14229,0.98994
157.90121,0.98302
157.66014,0.97772
157.41907,0.97502
157.17800,0.97273
156.93693,0.96866
156.69586,0.96171
156.45479,0.95189
156.21372,0.94041
155.97265,0.92926
155.73158,0.92046
155.49051,0.91498
155.24944,0.91169
155.00837,0.90720
154.76730,0.89827
154.52623,0.88481
154.28516,0.87018
154.04409,0.85823
153.80302,0.85019
153.56194,0.84263
153.32087,0.82972
153.07980,0.81025
152.83873,0.78985
152.59766,0.77419
152.35659,0.76337
152.11552,0.75321
151.87445,0.74010
151.63338,0.72413
151.39231,0.70816
151.15124,0.69462
150.91017,0.68357
150.66910,0.67274
150.42803,0.65923
150.18696,0.64255
149.94589,0.62601
149.70482,0.61379
149.46375,0.60667
149.22267,0.60121
148.98160,0.59372
148.74053,0.58457
148.49946,0.57703
148.25839,0.57286
148.01732,0.57019
147.77625,0.56604
147.53518,0.56077
147.29411,0.55808
147.05304,0.55978
146.81197,0.56326
146.57090,0.56540
146.32983,0.56625
146.08876,0.56768
145.84769,0.57060
145.60662,0.57464
145.36555,0.57904
145.12448,0.58326
144.88340,0.58733
144.64233,0.59138
144.40126,0.59485
144.16019,0.59686
143.91912,0.59743
143.67805,0.59731
143.43698,0.59665
143.19591,0.59448
142.95484,0.58989
142.71377,0.58300
142.47270,0.57427
142.23163,0.56406
141.99056,0.55377
141.74949,0.54543
141.50842,0.53917
141.26735,0.53343
141.02628,0.52801
140.78521,0.52400
140.54413,0.52101
140.30306,0.51791
140.06199,0.51543
139.82092,0.51508
139.57985,0.51664
139.33878,0.51905
139.09771,0.52226
138.85664,0.52663
138.61557,0.53186
138.37450,0.53751
138.13343,0.54374
137.89236,0.55094
137.65129,0.55902
137.41022,0.56788
137.16915,0.57837
136.92808,0.59212
136.68701,0.60969
136.44594,0.62958
136.20486,0.64970
135.96379,0.66951
135.72272,0.69060
135.48165,0.71515
135.24058,0.74359
134.99951,0.77398
134.75844,0.80504
134.51737,0.83776
134.27630,0.87147
134.03523,0.90203
133.79416,0.92760
133.55309,0.95143
133.31202,0.97595
133.07095,0.99970
132.82988,1.02229
132.58881,1.04569
132.34774,1.06985
132.10667,1.09439
131.86559,1.12117
131.62452,1.14776
131.38345,1.16364
131.14238,1.16121
130.90131,1.14509
130.66024,1.12458
130.41917,1.10440
130.17810,1.08485
129.93703,1.06408
129.69596,1.03897
129.45489,1.00754
129.21382,0.97116
128.97275,0.93252
128.73168,0.89417
128.49061,0.85907
128.24954,0.82803
128.00847,0.79818
127.76740,0.76827
127.52632,0.74216
127.28525,0.72293
127.04418,0.70697
126.80311,0.68789
126.56204,0.66425
126.32097,0.63997
126.07990,0.61866
125.83883,0.60070
125.59776,0.58477
125.35669,0.56998
125.11562,0.55637
124.87455,0.54359
124.63348,0.53049
124.39241,0.51663
124.15134,0.50360
123.91027,0.49394
123.66920,0.48864
123.42812,0.48560
123.18705,0.48092
122.94598,0.47268
122.70491,0.46322
122.46384,0.45705
122.22277,0.45665
121.98170,0.46015
121.74063,0.46318
121.49956,0.46334
121.25849,0.46204
121.01742,0.46152
120.77635,0.46261
120.53528,0.46606
120.29421,0.47345
120.05314,0.48547
119.81207,0.50111
119.57100,0.51911
119.32993,0.53924
119.08885,0.56219
118.84778,0.58944
118.60671,0.62205
118.36564,0.65844
118.12457,0.69389
117.88350,0.72365
117.64243,0.74613
117.40136,0.76248
117.16029,0.77362
116.91922,0.77861
116.67815,0.77648
116.43708,0.76957
116.19601,0.76326
115.95494,0.76118
115.71387,0.76164
115.47280,0.76045
115.23173,0.75615
114.99066,0.74975
114.74958,0.74130
114.50851,0.73009
114.26744,0.71677
114.02637,0.70231
113.78530,0.68738
113.54423,0.67385
113.30316,0.66498
113.06209,0.66361
112.82102,0.67048
112.57995,0.68356
112.33888,0.69875
112.09781,0.71113
111.85674,0.71592
111.61567,0.71099
111.37460,0.69947
111.13353,0.68822
110.89246,0.68300
110.65139,0.68536
110.41031,0.69450
110.16924,0.70883
109.92817,0.72185
109.68710,0.72165
109.44603,0.70316
109.20496,0.67517
108.96389,0.64891
108.72282,0.62898
108.48175,0.61483
108.24068,0.60370
107.99961,0.59170
107.75854,0.57568
107.51747,0.55501
107.27640,0.53182
107.03533,0.51113
106.79426,0.49787
106.55319,0.49108
106.31212,0.48384
106.07104,0.47085
105.82997,0.45361
105.58890,0.43682
105.34783,0.42318
105.10676,0.41311
104.86569,0.40606
104.62462,0.39978
104.38355,0.39061
104.14248,0.37751
103.90141,0.36433
103.66034,0.35620
103.41927,0.35472
103.17820,0.35624
102.93713,0.35399
102.69606,0.34402
102.45499,0.32965
102.21392,0.31801
101.97285,0.31323
101.73177,0.31385
101.49070,0.31468
101.24963,0.31130
101.00856,0.30370
100.76749,0.29618
100.52642,0.29325
100.28535,0.29518
100.04428,0.29695
99.80321,0.29317
99.56214,0.28483
99.32107,0.27835
99.08000,0.27822
98.83893,0.28188
98.59786,0.28214
98.35679,0.27603
98.11572,0.26871
97.87465,0.26659
97.63358,0.26983
97.39250,0.27248
97.15143,0.27116
96.91036,0.27058
96.66929,0.27579
96.42822,0.28381
96.18715,0.28709
95.94608,0.28552
95.70501,0.28750
95.46394,0.29676
95.22287,0.30624
94.98180,0.30905
94.74073,0.30954
94.49966,0.31461
94.25859,0.32200
94.01752,0.32542
93.77645,0.32548
93.53538,0.32626
93.29431,0.32717
93.05323,0.32591
92.81216,0.32452
92.57109,0.32570
92.33002,0.32753
92.08895,0.32716
91.84788,0.32688
91.60681,0.33061
91.36574,0.33685
91.12467,0.34256
90.88360,0.35139
90.64253,0.36909
90.40146,0.39452
90.16039,0.42415
89.91932,0.45924
89.67825,0.50040
89.43718,0.54439
89.19611,0.59096
88.95504,0.63856
88.71396,0.67666
88.47289,0.69937
88.23182,0.71145
87.99075,0.71104
87.74968,0.69226
87.50861,0.65984
87.26754,0.62243
87.02647,0.58329
86.78540,0.54491
86.54433,0.51073
86.30326,0.48080
86.06219,0.45251
85.82112,0.42515
85.58005,0.39995
85.33898,0.37700
85.09791,0.35546
84.85684,0.33605
84.61577,0.32018
84.37469,0.30709
84.13362,0.29444
83.89255,0.28125
83.65148,0.26843
83.41041,0.25718
83.16934,0.24828
82.92827,0.24152
82.68720,0.23554
82.44613,0.22938
82.20506,0.22329
81.96399,0.21767
81.72292,0.21320
81.48185,0.21166
81.24078,0.21384
80.99971,0.21718
80.75864,0.21791
80.51757,0.21502
80.27650,0.21042
80.03542,0.20573
79.79435,0.20081
79.55328,0.19547
79.31221,0.19113
79.07114,0.19005
78.83007,0.19271
78.58900,0.19643
78.34793,0.19713
78.10686,0.19271
77.86579,0.18460
77.62472,0.17621
77.38365,0.17059
77.14258,0.16875
76.90151,0.16948
76.66044,0.17073
76.41937,0.17134
76.17830,0.17118
75.93723,0.17068
75.69615,0.17044
75.45508,0.17049
75.21401,0.17026
74.97294,0.16966
74.73187,0.16928
74.49080,0.16917
74.24973,0.16855
74.00866,0.16700
73.76759,0.16552
73.52652,0.16576
73.28545,0.16814
73.04438,0.17085
72.80331,0.17184
72.56224,0.17149
72.32117,0.17169
72.08010,0.17272
71.83903,0.17260
71.59796,0.16972
71.35688,0.16489
71.11581,0.16058
70.87474,0.15866
70.63367,0.15995
70.39260,0.16594
70.15153,0.17919
69.91046,0.20032
69.66939,0.22524
69.42832,0.24686
69.18725,0.25909
68.94618,0.25935
68.70511,0.24902
68.46404,0.23270
68.22297,0.21565
67.98190,0.20089
67.74083,0.18842
67.49976,0.17720
67.25869,0.16709
67.01761,0.15875
66.77654,0.15263
66.53547,0.14842
66.29440,0.14541
66.05333,0.14361
65.81226,0.14449
65.57119,0.14939
65.33012,0.15731
65.08905,0.16565
64.84798,0.17319
64.60691,0.18094
64.36584,0.19035
64.12477,0.20121
63.88370,0.21103
63.64263,0.21663
63.40156,0.21687
63.16049,0.21269
62.91942,0.20546
62.67834,0.19690
62.43727,0.18955
62.19620,0.18460
61.95513,0.18008
61.71406,0.17310
61.47299,0.16333
61.23192,0.15238
60.99085,0.14145
60.74978,0.13156
60.50871,0.12403
60.26764,0.11916
60.02657,0.11609
59.78550,0.11487
59.54443,0.11678
59.30336,0.12255
59.06229,0.13189
58.82122,0.14426
58.58015,0.15876
58.33907,0.17425
58.09800,0.18886
57.85693,0.19784
57.61586,0.19456
57.37479,0.17588
57.13372,0.14600
56.89265,0.11460
56.65158,0.09164
56.41051,0.08358
56.16944,0.09267
55.92837,0.11761
55.68730,0.15236
55.44623,0.18209
55.20516,0.18806
54.96409,0.16789
54.72302,0.13842
54.48195,0.11633
54.24088,0.11093
53.99980,0.12656
53.75873,0.16196
53.51766,0.20192
53.27659,0.21385
53.03552,0.18599
52.79445,0.14952
52.55338,0.13065
52.31231,0.13706
52.07124,0.16708
51.83017,0.20231
51.58910,0.20346
51.34803,0.16429
51.10696,0.12598
50.86589,0.11758
50.62482,0.14429
50.38375,0.18623
50.14268,0.19348
49.90161,0.15260
49.66053,0.11614
49.41946,0.11867
49.17839,0.16065
48.93732,0.19640
48.69625,0.17030
48.45518,0.13201
48.21411,0.13165
47.97304,0.16178
47.73197,0.17050
47.49090,0.13580
47.24983,0.10829
47.00876,0.11211
46.76769,0.11889
46.52662,0.10100
46.28555,0.08717
46.04448,0.09805
45.80341,0.11038
45.56234,0.10451
45.32126,0.09962
45.08019,0.10421
44.83912,0.10149
44.59805,0.09397
44.35698,0.10041
44.11591,0.11172
43.87484,0.11024
43.63377,0.10738
43.39270,0.11596
43.15163,0.13002
42.91056,0.14451
42.66949,0.16047
42.42842,0.16964
42.18735,0.16582
41.94628,0.15626
41.70521,0.14761
41.46414,0.14065
41.22307,0.13776
40.98199,0.14077
40.74092,0.14563
40.49985,0.14811
40.25878,0.15266
40.01771,0.16669
39.77664,0.18699
39.53557,0.20177
39.29450,0.20452
39.05343,0.19727
38.81236,0.18724
38.57129,0.18562
38.33022,0.19515
38.08915,0.20261
37.84808,0.19789
37.60701,0.18840
37.36594,0.18391
37.12487,0.18673
36.88380,0.19661
36.64272,0.20881
36.40165,0.21403
36.16058,0.21000
35.91951,0.20319
35.67844,0.19854
35.43737,0.19830
35.19630,0.20478
34.95523,0.21689
34.71416,0.22836
34.47309,0.23291
34.23202,0.23163
33.99095,0.23192
33.74988,0.23550
33.50881,0.23481
33.26774,0.22558
33.02667,0.21604
32.78560,0.21741
32.54453,0.22656
32.30345,0.22932
32.06238,0.22279
31.82131,0.21369
31.58024,0.20309
31.33917,0.18895
31.09810,0.17556
30.85703,0.16737
30.61596,0.16171
30.37489,0.15665
30.13382,0.15328
29.89275,0.14960
29.65168,0.14251
29.41061,0.13138
29.16954,0.11619
28.92847,0.09807
28.68740,0.07968
28.44633,0.06549
28.20526,0.06352
27.96418,0.07599
27.72311,0.08680
27.48204,0.08084
27.24097,0.06000
26.99990,0.03199
26.75883,0.00351
26.51776,-0.02193
26.27669,-0.04576
26.03562,-0.06538
25.79455,-0.07207
25.55348,-0.06242
25.31241,-0.04563
25.07134,-0.03303
24.83027,-0.02700
24.58920,-0.02531
24.34813,-0.02866
24.10706,-0.03809
23.86599,-0.04872
23.62491,-0.05237
23.38384,-0.04910
23.14277,-0.04517
22.90170,-0.04794
22.66063,-0.06390
22.41956,-0.08848
22.17849,-0.10758
21.93742,-0.11710
21.69635,-0.12804
21.45528,-0.14844
21.21421,-0.16749
20.97314,-0.16357
20.73207,-0.13663
20.49100,-0.11357
20.24993,-0.11879
20.00886,-0.15031
19.76779,-0.18091
19.52672,-0.19053
19.28564,-0.19281
19.04457,-0.21186
18.80350,-0.24788
18.56243,-0.27399
18.32136,-0.26175
18.08029,-0.22269
17.83922,-0.19977
17.59815,-0.21705
17.35708,-0.26740
17.11601,-0.32051
16.87494,-0.33892
16.63387,-0.31698
16.39280,-0.28028
16.15173,-0.24738
15.91066,-0.22309
15.66959,-0.21424
15.42852,-0.23030
15.18745,-0.26580
14.94637,-0.29771
14.70530,-0.31034
14.46423,-0.31669
14.22316,-0.33044
13.98209,-0.33692
13.74102,-0.32829
13.49995,-0.32401
13.25888,-0.34138
13.01781,-0.38319
12.77674,-0.42787
12.53567,-0.43263
12.29460,-0.38835
12.05353,-0.33608
11.81246,-0.31579
11.57139,-0.33752
11.33032,-0.37599
11.08925,-0.38939
10.84818,-0.36645
10.60710,-0.33372
10.36603,-0.30893
10.12496,-0.29323
9.88389,-0.29141
9.64282,-0.31080
9.40175,-0.34696
9.16068,-0.38595
8.91961,-0.42396
8.67854,-0.44647
8.43747,-0.42635
8.19640,-0.36596
7.95533,-0.30290
7.71426,-0.27102
7.47319,-0.27530
7.23212,-0.29799
6.99105,-0.31878
6.74998,-0.32710
6.50891,-0.32451
6.26783,-0.32581
6.02676,-0.34047
5.78569,-0.35812
5.54462,-0.36096
5.30355,-0.34505
5.06248,-0.31448
4.82141,-0.27384
4.58034,-0.26162
4.33927,-0.28620
4.09820,-0.32470
3.85713,-0.34469
3.61606,-0.33545
3.37499,-0.31659
3.13392,-0.29905
2.89285,-0.28909
2.65178,-0.28590
2.41071,-0.29227
2.16964,-0.32008
1.92856,-0.36408
1.68749,-0.38263
1.44642,-0.36809
1.20535,-0.35708
0.96428,-0.35818
0.72321,-0.38928
0.48214,-0.39997
0.24107,-0.34190
-0.00000,-0.00251
