399.69498,1.58254
399.45391,1.58372
399.21284,1.58275
398.97177,1.57901
398.73070,1.57574
398.48963,1.57444
398.24856,1.57194
398.00749,1.56363
397.76642,1.54951
397.52535,1.53494
397.28428,1.52552
397.04321,1.52203
396.80214,1.52157
396.56107,1.52307
396.32000,1.52855
396.07892,1.53771
395.83785,1.54736
395.59678,1.55743
395.35571,1.57110
395.11464,1.58567
394.87357,1.58758
394.63250,1.57323
394.39143,1.55623
394.15036,1.54199
393.90929,1.52331
393.66822,1.50003
393.42715,1.48421
393.18608,1.48699
392.94501,1.50677
392.70394,1.52984
392.46287,1.54129
392.22180,1.53489
391.98073,1.51595
391.73965,1.49581
391.49858,1.48372
391.25751,1.48146
391.01644,1.48226
390.77537,1.47718
390.53430,1.46301
390.29323,1.44526
390.05216,1.43389
389.81109,1.43472
389.57002,1.44401
389.32895,1.44960
389.08788,1.44208
388.84681,1.42898
388.60574,1.43020
388.36467,1.45541
388.12360,1.48823
387.88253,1.49936
387.64146,1.48238
387.40038,1.45872
387.15931,1.44710
386.91824,1.44547
386.67717,1.44064
386.43610,1.42681
386.19503,1.40967
385.95396,1.39622
385.71289,1.38924
385.47182,1.38852
385.23075,1.39374
384.98968,1.40367
384.74861,1.41038
384.50754,1.40158
384.26647,1.37542
384.02540,1.34436
383.78433,1.31854
383.54326,1.29768
383.30219,1.28343
383.06111,1.28479
382.82004,1.30342
382.57897,1.32385
382.33790,1.32748
382.09683,1.31358
381.85576,1.29771
381.61469,1.29235
381.37362,1.29428
381.13255,1.29142
380.89148,1.28156
380.65041,1.27619
380.40934,1.28479
380.16827,1.30320
379.92720,1.31888
379.68613,1.32376
379.44506,1.32073
379.20399,1.31944
378.96292,1.32749
378.72184,1.34361
378.48077,1.35881
378.23970,1.36424
377.99863,1.35761
377.75756,1.34478
377.51649,1.33334
377.27542,1.32518
377.03435,1.31904
376.79328,1.31977
376.55221,1.33547
376.31114,1.36546
376.07007,1.39732
375.82900,1.41699
375.58793,1.41977
375.34686,1.40766
375.10579,1.38705
374.86472,1.37103
374.62365,1.37098
374.38257,1.38564
374.14150,1.40502
373.90043,1.42382
373.65936,1.44127
373.41829,1.45282
373.17722,1.45295
372.93615,1.44190
372.69508,1.42476
372.45401,1.40942
372.21294,1.40490
371.97187,1.41414
371.73080,1.42858
371.48973,1.43697
371.24866,1.43711
371.00759,1.43162
370.76652,1.41942
370.52545,1.40162
370.28437,1.38836
370.04330,1.38901
369.80223,1.39961
369.56116,1.40570
369.32009,1.39778
369.07902,1.38172
368.83795,1.37141
368.59688,1.37477
368.35581,1.38722
368.11474,1.39477
367.87367,1.38811
367.63260,1.37201
367.39153,1.35584
367.15046,1.34364
366.90939,1.33501
366.66832,1.32823
366.42725,1.32279
366.18618,1.32044
365.94510,1.32264
365.70403,1.32801
365.46296,1.33337
365.22189,1.33624
364.98082,1.33555
364.73975,1.33073
364.49868,1.32274
364.25761,1.31407
364.01654,1.30608
363.77547,1.30091
363.53440,1.30219
363.29333,1.30970
363.05226,1.31718
362.81119,1.31852
362.57012,1.31304
362.32905,1.30431
362.08798,1.29756
361.84691,1.29662
361.60583,1.30032
361.36476,1.30349
361.12369,1.30284
360.88262,1.29807
360.64155,1.28865
360.40048,1.27570
360.15941,1.26553
359.91834,1.26546
359.67727,1.27510
359.43620,1.28449
359.19513,1.28519
358.95406,1.28038
358.71299,1.27695
358.47192,1.27425
358.23085,1.26894
357.98978,1.26231
357.74871,1.25562
357.50764,1.24812
357.26656,1.24194
357.02549,1.24094
356.78442,1.24415
356.54335,1.24826
356.30228,1.25557
356.06121,1.26867
355.82014,1.28162
355.57907,1.28659
355.33800,1.28521
355.09693,1.28433
354.85586,1.28393
354.61479,1.27817
354.37372,1.26611
354.13265,1.25300
353.89158,1.24372
353.65051,1.23930
353.40944,1.23814
353.16837,1.23937
352.92729,1.24440
352.68622,1.25282
352.44515,1.25918
352.20408,1.25826
351.96301,1.25252
351.72194,1.25077
351.48087,1.26006
351.23980,1.28004
350.99873,1.30157
350.75766,1.31308
350.51659,1.31206
350.27552,1.30512
350.03445,1.29755
349.79338,1.28954
349.55231,1.28148
349.31124,1.27598
349.07017,1.27454
348.82910,1.27625
348.58802,1.27909
348.34695,1.28148
348.10588,1.28294
347.86481,1.28379
347.62374,1.28403
347.38267,1.28324
347.14160,1.28260
346.90053,1.28521
346.65946,1.29308
346.41839,1.30253
346.17732,1.30558
345.93625,1.29902
345.69518,1.28933
345.45411,1.28664
345.21304,1.29459
344.97197,1.30651
344.73090,1.31305
344.48983,1.31374
344.24875,1.31487
344.00768,1.31708
343.76661,1.31722
343.52554,1.31836
343.28447,1.32565
343.04340,1.33723
342.80233,1.34587
342.56126,1.34700
342.32019,1.34293
342.07912,1.33859
341.83805,1.33674
341.59698,1.33906
341.35591,1.34828
341.11484,1.36619
340.87377,1.38871
340.63270,1.40415
340.39163,1.40125
340.15056,1.38296
339.90948,1.36510
339.66841,1.35919
339.42734,1.36440
339.18627,1.37575
338.94520,1.39134
338.70413,1.40878
338.46306,1.42216
338.22199,1.42542
337.98092,1.41907
337.73985,1.41038
337.49878,1.40399
337.25771,1.39871
337.01664,1.39324
336.77557,1.38862
336.53450,1.38684
336.29343,1.39084
336.05236,1.40008
335.81129,1.40234
335.57021,1.38345
335.32914,1.35159
335.08807,1.33238
334.84700,1.33897
334.60593,1.36088
334.36486,1.37801
334.12379,1.38059
333.88272,1.37480
333.64165,1.37160
333.40058,1.37287
333.15951,1.37039
332.91844,1.35782
332.67737,1.33942
332.43630,1.32449
332.19523,1.31716
331.95416,1.31429
331.71309,1.31141
331.47202,1.30910
331.23094,1.31001
330.98987,1.31305
330.74880,1.31424
330.50773,1.31209
330.26666,1.30939
330.02559,1.30982
329.78452,1.31433
329.54345,1.31952
329.30238,1.31912
329.06131,1.30986
328.82024,1.29501
328.57917,1.28367
328.33810,1.28437
328.09703,1.29483
327.85596,1.30154
327.61489,1.29576
327.37382,1.28694
327.13275,1.29014
326.89167,1.30691
326.65060,1.32527
326.40953,1.33329
326.16846,1.32785
325.92739,1.31321
325.68632,1.29852
325.44525,1.29345
325.20418,1.30146
324.96311,1.31830
324.72204,1.33671
324.48097,1.34861
324.23990,1.34607
323.99883,1.32801
323.75776,1.30313
323.51669,1.28498
323.27562,1.28482
323.03455,1.30488
322.79348,1.33342
322.55240,1.35118
322.31133,1.34906
322.07026,1.33381
321.82919,1.31565
321.58812,1.30155
321.34705,1.29893
321.10598,1.30823
320.86491,1.31815
320.62384,1.31900
320.38277,1.31250
320.14170,1.30371
319.90063,1.29512
319.65956,1.29069
319.41849,1.29687
319.17742,1.31412
318.93635,1.33239
318.69528,1.34147
318.45421,1.34159
318.21313,1.33846
317.97206,1.33402
317.73099,1.32813
317.48992,1.32397
317.24885,1.32567
317.00778,1.33347
316.76671,1.34458
316.52564,1.35360
316.28457,1.35156
316.04350,1.33596
315.80243,1.31787
315.56136,1.30876
315.32029,1.30944
315.07922,1.31574
314.83815,1.32721
314.59708,1.34480
314.35601,1.36269
314.11494,1.36985
313.87386,1.36399
313.63279,1.35354
313.39172,1.34660
313.15065,1.34796
312.90958,1.35871
312.66851,1.37410
312.42744,1.38465
312.18637,1.38371
311.94530,1.37311
311.70423,1.36122
311.46316,1.35769
311.22209,1.36510
310.98102,1.37409
310.73995,1.37094
310.49888,1.35356
310.25781,1.33510
310.01674,1.33153
309.77567,1.34858
309.53459,1.37500
309.29352,1.39034
309.05245,1.38713
308.81138,1.37830
308.57031,1.37750
308.32924,1.38318
308.08817,1.38648
307.84710,1.38586
307.60603,1.38666
307.36496,1.39104
307.12389,1.39323
306.88282,1.38682
306.64175,1.37462
306.40068,1.36456
306.15961,1.35948
305.91854,1.35772
305.67747,1.35961
305.43640,1.36660
305.19532,1.37502
304.95425,1.37715
304.71318,1.37073
304.47211,1.36116
304.23104,1.35365
303.98997,1.34781
303.74890,1.34048
303.50783,1.33071
303.26676,1.32049
303.02569,1.31306
302.78462,1.31191
302.54355,1.31764
302.30248,1.32527
302.06141,1.32996
301.82034,1.33214
301.57927,1.33260
301.33820,1.32853
301.09713,1.31956
300.85605,1.31036
300.61498,1.30371
300.37391,1.29893
300.13284,1.29665
299.89177,1.29817
299.65070,1.30135
299.40963,1.30184
299.16856,1.29794
298.92749,1.29229
298.68642,1.28660
298.44535,1.27891
298.20428,1.26898
297.96321,1.26135
297.72214,1.25989
297.48107,1.26179
297.24000,1.26056
296.99893,1.25303
296.75786,1.24246
296.51678,1.23582
296.27571,1.23729
296.03464,1.24408
295.79357,1.24951
295.55250,1.24930
295.31143,1.24308
295.07036,1.23255
294.82929,1.22143
294.58822,1.21413
294.34715,1.21153
294.10608,1.20993
293.86501,1.20626
293.62394,1.20269
293.38287,1.20274
293.14180,1.20494
292.90073,1.20520
292.65966,1.20241
292.41859,1.19837
292.17751,1.19557
291.93644,1.19578
291.69537,1.19832
291.45430,1.19998
291.21323,1.19761
290.97216,1.19074
290.73109,1.18186
290.49002,1.17504
290.24895,1.17297
290.00788,1.17383
289.76681,1.17302
289.52574,1.16883
289.28467,1.16405
289.04360,1.16099
288.80253,1.15872
288.56146,1.15666
288.32039,1.15694
288.07932,1.16044
287.83824,1.16318
287.59717,1.16093
287.35610,1.15616
287.11503,1.15495
286.87396,1.15798
286.63289,1.15929
286.39182,1.15409
286.15075,1.14470
285.90968,1.13781
285.66861,1.13762
285.42754,1.14223
285.18647,1.14601
284.94540,1.14541
284.70433,1.14204
284.46326,1.13951
284.22219,1.13822
283.98112,1.13559
283.74005,1.13149
283.49897,1.13003
283.25790,1.13427
283.01683,1.14134
282.77576,1.14515
282.53469,1.14398
282.29362,1.14203
282.05255,1.14320
281.81148,1.14635
281.57041,1.14751
281.32934,1.14466
281.08827,1.13937
280.84720,1.13475
280.60613,1.13352
280.36506,1.13752
280.12399,1.14625
279.88292,1.15506
279.64185,1.15721
279.40078,1.15096
279.15970,1.14311
278.91863,1.14189
278.67756,1.14793
278.43649,1.15425
278.19542,1.15401
277.95435,1.14749
277.71328,1.14020
277.47221,1.13627
277.23114,1.13567
276.99007,1.13602
276.74900,1.13638
276.50793,1.13857
276.26686,1.14368
276.02579,1.14885
275.78472,1.14968
275.54365,1.14524
275.30258,1.13946
275.06151,1.13757
274.82043,1.14089
274.57936,1.14607
274.33829,1.14935
274.09722,1.14993
273.85615,1.14897
273.61508,1.14727
273.37401,1.14504
273.13294,1.14319
272.89187,1.14369
272.65080,1.14742
272.40973,1.15249
272.16866,1.15735
271.92759,1.16347
271.68652,1.17129
271.44545,1.17643
271.20438,1.17609
270.96331,1.17495
270.72224,1.17810
270.48116,1.18294
270.24009,1.18458
269.99902,1.18407
269.75795,1.18519
269.51688,1.18761
269.27581,1.18858
269.03474,1.18862
268.79367,1.19125
268.55260,1.19836
268.31153,1.20822
268.07046,1.21829
267.82939,1.22797
267.58832,1.23718
267.34725,1.24484
267.10618,1.25105
266.86511,1.25785
266.62404,1.26588
266.38297,1.27300
266.14189,1.27728
265.90082,1.27913
265.65975,1.28018
265.41868,1.28156
265.17761,1.28421
264.93654,1.28913
264.69547,1.29577
264.45440,1.30164
264.21333,1.30617
263.97226,1.31377
263.73119,1.32914
263.49012,1.34930
263.24905,1.36619
263.00798,1.37848
262.76691,1.39227
262.52584,1.40935
262.28477,1.42364
262.04370,1.43029
261.80262,1.43299
261.56155,1.43997
261.32048,1.45595
261.07941,1.47933
260.83834,1.50485
260.59727,1.52917
260.35620,1.55505
260.11513,1.58843
259.87406,1.62923
259.63299,1.66742
259.39192,1.69375
259.15085,1.71213
258.90978,1.73249
258.66871,1.75516
258.42764,1.77392
258.18657,1.78837
257.94550,1.80458
257.70443,1.82696
257.46335,1.85340
257.22228,1.87330
256.98121,1.86974
256.74014,1.83713
256.49907,1.79263
256.25800,1.75732
256.01693,1.73964
255.77586,1.73695
255.53479,1.74069
255.29372,1.74077
255.05265,1.73318
254.81158,1.72119
254.57051,1.70437
254.32944,1.67936
254.08837,1.65419
253.84730,1.64499
253.60623,1.65501
253.36516,1.66808
253.12408,1.66700
252.88301,1.65110
252.64194,1.63184
252.40087,1.61843
252.15980,1.61078
251.91873,1.60646
251.67766,1.60580
251.43659,1.60613
251.19552,1.60162
250.95445,1.59302
250.71338,1.58613
250.47231,1.58189
250.23124,1.57712
249.99017,1.57309
249.74910,1.57316
249.50803,1.57347
249.26696,1.56795
249.02589,1.55976
248.78481,1.55495
248.54374,1.55581
248.30267,1.56483
248.06160,1.58113
247.82053,1.59536
247.57946,1.59752
247.33839,1.59045
247.09732,1.58751
246.85625,1.59555
246.61518,1.60839
246.37411,1.61592
246.13304,1.61792
245.89197,1.62537
245.65090,1.64549
245.40983,1.67099
245.16876,1.68928
244.92769,1.69778
244.68661,1.70536
244.44554,1.72351
244.20447,1.75985
243.96340,1.81561
243.72233,1.88131
243.48126,1.93804
243.24019,1.96875
242.99912,1.97000
242.75805,1.94989
242.51698,1.90841
242.27591,1.84010
242.03484,1.76752
241.79377,1.70701
241.55270,1.64427
241.31163,1.57118
241.07056,1.49943
240.82949,1.44204
240.58842,1.40115
240.34734,1.36923
240.10627,1.33653
239.86520,1.30089
239.62413,1.26848
239.38306,1.24332
239.14199,1.22068
238.90092,1.19322
238.65985,1.16208
238.41878,1.13570
238.17771,1.11802
237.93664,1.10430
237.69557,1.08822
237.45450,1.06939
237.21343,1.05260
236.97236,1.04075
236.73129,1.03121
236.49022,1.01976
236.24915,1.00648
236.00807,0.99495
235.76700,0.98663
235.52593,0.97958
235.28486,0.97259
235.04379,0.96694
234.80272,0.96301
234.56165,0.95813
234.32058,0.94985
234.07951,0.93960
233.83844,0.93108
233.59737,0.92584
233.35630,0.92212
233.11523,0.91802
232.87416,0.91410
232.63309,0.91112
232.39202,0.90733
232.15095,0.90160
231.90988,0.89737
231.66880,0.89886
231.42773,0.90436
231.18666,0.90730
230.94559,0.90359
230.70452,0.89508
230.46345,0.88613
230.22238,0.87935
229.98131,0.87456
229.74024,0.87007
229.49917,0.86515
229.25810,0.86145
229.01703,0.86129
228.77596,0.86426
228.53489,0.86765
228.29382,0.87025
228.05275,0.87248
227.81168,0.87245
227.57061,0.86704
227.32953,0.85737
227.08846,0.84781
226.84739,0.84109
226.60632,0.83753
226.36525,0.83655
226.12418,0.83704
225.88311,0.83779
225.64204,0.83809
225.40097,0.83775
225.15990,0.83690
224.91883,0.83592
224.67776,0.83542
224.43669,0.83624
224.19562,0.83936
223.95455,0.84479
223.71348,0.85062
223.47241,0.85416
223.23134,0.85405
222.99026,0.85145
222.74919,0.84937
222.50812,0.85081
222.26705,0.85692
222.02598,0.86608
221.78491,0.87478
221.54384,0.88062
221.30277,0.88433
221.06170,0.88854
220.82063,0.89484
220.57956,0.90233
220.33849,0.90859
220.09742,0.91242
219.85635,0.91537
219.61528,0.92023
219.37421,0.92853
219.13314,0.94004
218.89207,0.95352
218.65099,0.96767
218.40992,0.98081
218.16885,0.99082
217.92778,0.99779
217.68671,1.00574
217.44564,1.01816
217.20457,1.03310
216.96350,1.04644
216.72243,1.05815
216.48136,1.07101
216.24029,1.08531
215.99922,1.09826
215.75815,1.10759
215.51708,1.11444
215.27601,1.12283
215.03494,1.13599
214.79387,1.15315
214.55280,1.17048
214.31172,1.18450
214.07065,1.19411
213.82958,1.20007
213.58851,1.20318
213.34744,1.20368
213.10637,1.20343
212.86530,1.20687
212.62423,1.21692
212.38316,1.23124
212.14209,1.24423
211.90102,1.25056
211.65995,1.24736
211.41888,1.23846
211.17781,1.23394
210.93674,1.24108
210.69567,1.25688
210.45460,1.27047
210.21353,1.27330
209.97245,1.26572
209.73138,1.25369
209.49031,1.24293
209.24924,1.23746
209.00817,1.23986
208.76710,1.24945
208.52603,1.25888
208.28496,1.25586
208.04389,1.23699
207.80282,1.21369
207.56175,1.19898
207.32068,1.19605
207.07961,1.19919
206.83854,1.20106
206.59747,1.19694
206.35640,1.18541
206.11533,1.16947
205.87426,1.15436
205.63318,1.14304
205.39211,1.13432
205.15104,1.12491
204.90997,1.11367
204.66890,1.10186
204.42783,1.08897
204.18676,1.07336
203.94569,1.05663
203.70462,1.04138
203.46355,1.02651
203.22248,1.01039
202.98141,0.99560
202.74034,0.98549
202.49927,0.97879
202.25820,0.97088
202.01713,0.95871
201.77606,0.94287
201.53499,0.92672
201.29391,0.91346
201.05284,0.90277
200.81177,0.89105
200.57070,0.87615
200.32963,0.86046
200.08856,0.84770
199.84749,0.83878
199.60642,0.83159
199.36535,0.82369
199.12428,0.81387
198.88321,0.80226
198.64214,0.79021
198.40107,0.77986
198.16000,0.77261
197.91893,0.76749
197.67786,0.76165
197.43679,0.75302
197.19572,0.74189
196.95464,0.72993
196.71357,0.71879
196.47250,0.70972
196.23143,0.70263
195.99036,0.69574
195.74929,0.68773
195.50822,0.67968
195.26715,0.67345
195.02608,0.66925
194.78501,0.66556
194.54394,0.66089
194.30287,0.65532
194.06180,0.65047
193.82073,0.64759
193.57966,0.64543
193.33859,0.64137
193.09752,0.63493
192.85645,0.62860
192.61537,0.62419
192.37430,0.62036
192.13323,0.61473
191.89216,0.60749
191.65109,0.60135
191.41002,0.59791
191.16895,0.59561
190.92788,0.59201
190.68681,0.58749
190.44574,0.58482
190.20467,0.58500
189.96360,0.58540
189.72253,0.58322
189.48146,0.57932
189.24039,0.57661
188.99932,0.57591
188.75825,0.57548
188.51718,0.57423
188.27610,0.57308
188.03503,0.57272
187.79396,0.57223
187.55289,0.57063
187.31182,0.56840
187.07075,0.56661
186.82968,0.56522
186.58861,0.56325
186.34754,0.56057
186.10647,0.55851
185.86540,0.55782
185.62433,0.55751
185.38326,0.55689
185.14219,0.55702
184.90112,0.55826
184.66005,0.55905
184.41898,0.55881
184.17791,0.55936
183.93683,0.56177
183.69576,0.56480
183.45469,0.56733
183.21362,0.56948
182.97255,0.57066
182.73148,0.56992
182.49041,0.56841
182.24934,0.56835
182.00827,0.56973
181.76720,0.57097
181.52613,0.57205
181.28506,0.57401
181.04399,0.57659
180.80292,0.57876
180.56185,0.58069
180.32078,0.58302
180.07971,0.58555
179.83864,0.58826
179.59756,0.59196
179.35649,0.59706
179.11542,0.60282
178.87435,0.60850
178.63328,0.61423
178.39221,0.62065
178.15114,0.62820
177.91007,0.63697
177.66900,0.64708
177.42793,0.65861
177.18686,0.67109
176.94579,0.68394
176.70472,0.69733
176.46365,0.71170
176.22258,0.72681
175.98151,0.74279
175.74044,0.76042
175.49937,0.77954
175.25829,0.79891
175.01722,0.81754
174.77615,0.83465
174.53508,0.84954
174.29401,0.86306
174.05294,0.87717
173.81187,0.89249
173.57080,0.90760
173.32973,0.92003
173.08866,0.92845
172.84759,0.93462
172.60652,0.94189
172.36545,0.95117
172.12438,0.96043
171.88331,0.96785
171.64224,0.97258
171.40117,0.97368
171.16010,0.97103
170.91902,0.96589
170.67795,0.95888
170.43688,0.94979
170.19581,0.94004
169.95474,0.93242
169.71367,0.92789
169.47260,0.92461
169.23153,0.92072
168.99046,0.91634
168.74939,0.91197
168.50832,0.90696
168.26725,0.90105
168.02618,0.89611
167.78511,0.89464
167.54404,0.89752
167.30297,0.90379
167.06190,0.91141
166.82083,0.91766
166.57975,0.91990
166.33868,0.91778
166.09761,0.91467
165.85654,0.91519
165.61547,0.92079
165.37440,0.92854
165.13333,0.93428
164.89226,0.93700
164.65119,0.93994
164.41012,0.94679
164.16905,0.95694
163.92798,0.96607
163.68691,0.97189
163.44584,0.97644
163.20477,0.98253
162.96370,0.99127
162.72263,1.00222
162.48156,1.01319
162.24048,1.02117
161.99941,1.02537
161.75834,1.02797
161.51727,1.03106
161.27620,1.03460
161.03513,1.03716
160.79406,1.03753
160.55299,1.03567
160.31192,1.03264
160.07085,1.02938
159.82978,1.02430
159.58871,1.01445
159.34764,1.00077
159.10657,0.98952
158.86550,0.98628
158.62443,0.99054
158.38336,0.99701
158.14229,1.00007
157.90121,0.99626
157.66014,0.98519
157.41907,0.96985
157.17800,0.95497
156.93693,0.94480
156.69586,0.94129
156.45479,0.94290
156.21372,0.94451
155.97265,0.93986
155.73158,0.92697
155.49051,0.91039
155.24944,0.89662
155.00837,0.88826
154.76730,0.88296
154.52623,0.87640
154.28516,0.86537
154.04409,0.84979
153.80302,0.83245
153.56194,0.81655
153.32087,0.80337
153.07980,0.79158
152.83873,0.77871
152.59766,0.76357
152.35659,0.74745
152.11552,0.73264
151.87445,0.71991
151.63338,0.70775
151.39231,0.69413
151.15124,0.67924
150.91017,0.66559
150.66910,0.65487
150.42803,0.64584
150.18696,0.63589
149.94589,0.62418
149.70482,0.61227
149.46375,0.60200
149.22267,0.59344
148.98160,0.58512
148.74053,0.57590
148.49946,0.56619
148.25839,0.55762
148.01732,0.55185
147.77625,0.54945
147.53518,0.54938
147.29411,0.54959
147.05304,0.54860
146.81197,0.54655
146.57090,0.54503
146.32983,0.54589
146.08876,0.54970
145.84769,0.55470
145.60662,0.55830
145.36555,0.56037
145.12448,0.56370
144.88340,0.57017
144.64233,0.57798
144.40126,0.58356
144.16019,0.58550
143.91912,0.58521
143.67805,0.58411
143.43698,0.58183
143.19591,0.57764
142.95484,0.57239
142.71377,0.56747
142.47270,0.56257
142.23163,0.55604
141.99056,0.54744
141.74949,0.53810
141.50842,0.52952
141.26735,0.52213
141.02628,0.51564
140.78521,0.50970
140.54413,0.50450
140.30306,0.50062
140.06199,0.49876
139.82092,0.49951
139.57985,0.50303
139.33878,0.50826
139.09771,0.51316
138.85664,0.51652
138.61557,0.51926
138.37450,0.52320
138.13343,0.52940
137.89236,0.53802
137.65129,0.54909
137.41022,0.56211
137.16915,0.57595
136.92808,0.58994
136.68701,0.60457
136.44594,0.62032
136.20486,0.63740
135.96379,0.65704
135.72272,0.68075
135.48165,0.70817
135.24058,0.73747
134.99951,0.76791
134.75844,0.79991
134.51737,0.83305
134.27630,0.86511
134.03523,0.89391
133.79416,0.92021
133.55309,0.94782
133.31202,0.97935
133.07095,1.01332
132.82988,1.04640
132.58881,1.07639
132.34774,1.10246
132.10667,1.12418
131.86559,1.13988
131.62452,1.14744
131.38345,1.14936
131.14238,1.15139
130.90131,1.15244
130.66024,1.14352
130.41917,1.12030
130.17810,1.08874
129.93703,1.05628
129.69596,1.02492
129.45489,0.99344
129.21382,0.96146
128.97275,0.92986
128.73168,0.89860
128.49061,0.86616
128.24954,0.83201
128.00847,0.79789
127.76740,0.76609
127.52632,0.73767
127.28525,0.71216
127.04418,0.68842
126.80311,0.66564
126.56204,0.64396
126.32097,0.62390
126.07990,0.60548
125.83883,0.58877
125.59776,0.57439
125.35669,0.56239
125.11562,0.55140
124.87455,0.53976
124.63348,0.52688
124.39241,0.51319
124.15134,0.49975
123.91027,0.48800
123.66920,0.47891
123.42812,0.47220
123.18705,0.46664
122.94598,0.46121
122.70491,0.45575
122.46384,0.45078
122.22277,0.44686
121.98170,0.44407
121.74063,0.44246
121.49956,0.44264
121.25849,0.44518
121.01742,0.44962
120.77635,0.45494
120.53528,0.46122
120.29421,0.47004
120.05314,0.48234
119.81207,0.49661
119.57100,0.51063
119.32993,0.52462
119.08885,0.54146
118.84778,0.56382
118.60671,0.59212
118.36564,0.62465
118.12457,0.65835
117.88350,0.69007
117.64243,0.71852
117.40136,0.74440
117.16029,0.76735
116.91922,0.78416
116.67815,0.79165
116.43708,0.79043
116.19601,0.78403
115.95494,0.77480
115.71387,0.76223
115.47280,0.74575
115.23173,0.72743
114.99066,0.71098
114.74958,0.69912
114.50851,0.69265
114.26744,0.69050
114.02637,0.68987
113.78530,0.68800
113.54423,0.68421
113.30316,0.67946
113.06209,0.67447
112.82102,0.66913
112.57995,0.66391
112.33888,0.66122
112.09781,0.66422
111.85674,0.67436
111.61567,0.68945
111.37460,0.70374
111.13353,0.71119
110.89246,0.70993
110.65139,0.70322
110.41031,0.69594
110.16924,0.69053
109.92817,0.68600
109.68710,0.67995
109.44603,0.67102
109.20496,0.65898
108.96389,0.64405
108.72282,0.62689
108.48175,0.60787
108.24068,0.58666
107.99961,0.56404
107.75854,0.54325
107.51747,0.52752
107.27640,0.51664
107.03533,0.50686
106.79426,0.49394
106.55319,0.47695
106.31212,0.45910
106.07104,0.44392
105.82997,0.43164
105.58890,0.42085
105.34783,0.41190
105.10676,0.40585
104.86569,0.40064
104.62462,0.39183
104.38355,0.37804
104.14248,0.36308
103.90141,0.35193
103.66034,0.34665
103.41927,0.34515
103.17820,0.34231
102.93713,0.33403
102.69606,0.32152
102.45499,0.30975
102.21392,0.30223
101.97285,0.29858
101.73177,0.29612
101.49070,0.29251
101.24963,0.28726
101.00856,0.28191
100.76749,0.27848
100.52642,0.27731
100.28535,0.27631
100.04428,0.27291
99.80321,0.26696
99.56214,0.26114
99.32107,0.25801
99.08000,0.25734
98.83893,0.25674
98.59786,0.25445
98.35679,0.25096
98.11572,0.24817
97.87465,0.24784
97.63358,0.25036
97.39250,0.25397
97.15143,0.25569
96.91036,0.25485
96.66929,0.25505
96.42822,0.26021
96.18715,0.26909
95.94608,0.27605
95.70501,0.27850
95.46394,0.28090
95.22287,0.28804
94.98180,0.29819
94.74073,0.30513
94.49966,0.30624
94.25859,0.30606
94.01752,0.30926
93.77645,0.31370
93.53538,0.31399
93.29431,0.31072
93.05323,0.30959
92.81216,0.31171
92.57109,0.31264
92.33002,0.31130
92.08895,0.31185
91.84788,0.31539
91.60681,0.31882
91.36574,0.32253
91.12467,0.33066
90.88360,0.34429
90.64253,0.36201
90.40146,0.38544
90.16039,0.41642
89.91932,0.45231
89.67825,0.49050
89.43718,0.53236
89.19611,0.57726
88.95504,0.62045
88.71396,0.65888
88.47289,0.68932
88.23182,0.70331
87.99075,0.69493
87.74968,0.66866
87.50861,0.63398
87.26754,0.59770
87.02647,0.56156
86.78540,0.52483
86.54433,0.48832
86.30326,0.45446
86.06219,0.42466
85.82112,0.39892
85.58005,0.37643
85.33898,0.35571
85.09791,0.33611
84.85684,0.31850
84.61577,0.30305
84.37469,0.28856
84.13362,0.27465
83.89255,0.26243
83.65148,0.25270
83.41041,0.24519
83.16934,0.23895
82.92827,0.23308
82.68720,0.22719
82.44613,0.22090
82.20506,0.21396
81.96399,0.20734
81.72292,0.20283
81.48185,0.20056
81.24078,0.19857
80.99971,0.19543
80.75864,0.19184
80.51757,0.18927
80.27650,0.18791
80.03542,0.18677
79.79435,0.18534
79.55328,0.18409
79.31221,0.18327
79.07114,0.18242
78.83007,0.18120
78.58900,0.17966
78.34793,0.17740
78.10686,0.17351
77.86579,0.16790
77.62472,0.16176
77.38365,0.15627
77.14258,0.15139
76.90151,0.14691
76.66044,0.14361
76.41937,0.14242
76.17830,0.14331
75.93723,0.14543
75.69615,0.14743
75.45508,0.14793
75.21401,0.14682
74.97294,0.14560
74.73187,0.14580
74.49080,0.14722
74.24973,0.14845
74.00866,0.14869
73.76759,0.14859
73.52652,0.14855
73.28545,0.14769
73.04438,0.14587
72.80331,0.14501
72.56224,0.14659
72.32117,0.14962
72.08010,0.15242
71.83903,0.15447
71.59796,0.15558
71.35688,0.15489
71.11581,0.15212
70.87474,0.14896
70.63367,0.14857
70.39260,0.15335
70.15153,0.16341
69.91046,0.17735
69.66939,0.19366
69.42832,0.21039
69.18725,0.22402
68.94618,0.23015
68.70511,0.22631
68.46404,0.21412
68.22297,0.19802
67.98190,0.18236
67.74083,0.16972
67.49976,0.16050
67.25869,0.15332
67.01761,0.14660
66.77654,0.14014
66.53547,0.13459
66.29440,0.13001
66.05333,0.12606
65.81226,0.12346
65.57119,0.12402
65.33012,0.12876
65.08905,0.13696
64.84798,0.14706
64.60691,0.15763
64.36584,0.16732
64.12477,0.17495
63.88370,0.17991
63.64263,0.18167
63.40156,0.17914
63.16049,0.17191
62.91942,0.16185
62.67834,0.15230
62.43727,0.14530
62.19620,0.14033
61.95513,0.13575
61.71406,0.13078
61.47299,0.12549
61.23192,0.11988
60.99085,0.11418
60.74978,0.10938
60.50871,0.10681
60.26764,0.10701
60.02657,0.10902
59.78550,0.11070
59.54443,0.11006
59.30336,0.10678
59.06229,0.10288
58.82122,0.10172
58.58015,0.10627
58.33907,0.11762
58.09800,0.13431
57.85693,0.15180
57.61586,0.16300
57.37479,0.16207
57.13372,0.14951
56.89265,0.13164
56.65158,0.11469
56.41051,0.10132
56.16944,0.09194
55.92837,0.08735
55.68730,0.08982
55.44623,0.10109
55.20516,0.11899
54.96409,0.13706
54.72302,0.14718
54.48195,0.14401
54.24088,0.12972
53.99980,0.11332
53.75873,0.10442
53.51766,0.10878
53.27659,0.12704
53.03552,0.15247
52.79445,0.16850
52.55338,0.15963
52.31231,0.13186
52.07124,0.10485
51.83017,0.09301
51.58910,0.10102
51.34803,0.12281
51.10696,0.14067
50.86589,0.13761
50.62482,0.11825
50.38375,0.10145
50.14268,0.10076
49.90161,0.11881
49.66053,0.14385
49.41946,0.14997
49.17839,0.12837
48.93732,0.10582
48.69625,0.10758
48.45518,0.13290
48.21411,0.15005
47.97304,0.13381
47.73197,0.11127
47.49090,0.11498
47.24983,0.14132
47.00876,0.14599
46.76769,0.11230
46.52662,0.08640
46.28555,0.08995
46.04448,0.10154
45.80341,0.09868
45.56234,0.09428
45.32126,0.10141
45.08019,0.10817
44.83912,0.10653
44.59805,0.10724
44.35698,0.11181
44.11591,0.11084
43.87484,0.10591
43.63377,0.10362
43.39270,0.10342
43.15163,0.10395
42.91056,0.10629
42.66949,0.11003
42.42842,0.11551
42.18735,0.12293
41.94628,0.12760
41.70521,0.12547
41.46414,0.11941
41.22307,0.11486
40.98199,0.11467
40.74092,0.11689
40.49985,0.11709
40.25878,0.11669
40.01771,0.12317
39.77664,0.13700
39.53557,0.14909
39.29450,0.15318
39.05343,0.15292
38.81236,0.15619
38.57129,0.16674
38.33022,0.18029
38.08915,0.18846
37.84808,0.18669
37.60701,0.17883
37.36594,0.17472
37.12487,0.17900
36.88380,0.18356
36.64272,0.17945
36.40165,0.17029
36.16058,0.16340
35.91951,0.16013
35.67844,0.15921
35.43737,0.15847
35.19630,0.15414
34.95523,0.14679
34.71416,0.14186
34.47309,0.14197
34.23202,0.14620
33.99095,0.15179
33.74988,0.15459
33.50881,0.15380
33.26774,0.15191
33.02667,0.14935
32.78560,0.14314
32.54453,0.13171
32.30345,0.11924
32.06238,0.10933
31.82131,0.09767
31.58024,0.07762
31.33917,0.05162
31.09810,0.03151
30.85703,0.02518
30.61596,0.02522
30.37489,0.01544
30.13382,-0.00875
29.89275,-0.03336
29.65168,-0.04365
29.41061,-0.03969
29.16954,-0.02988
28.92847,-0.02018
28.68740,-0.02062
28.44633,-0.04465
28.20526,-0.08440
27.96418,-0.10906
27.72311,-0.10512
27.48204,-0.09141
27.24097,-0.08763
26.99990,-0.09616
26.75883,-0.11080
26.51776,-0.12769
26.27669,-0.14725
26.03562,-0.17047
25.79455,-0.19584
25.55348,-0.22080
25.31241,-0.24531
25.07134,-0.26874
24.83027,-0.28673
24.58920,-0.29521
24.34813,-0.29696
24.10706,-0.30371
23.86599,-0.32102
23.62491,-0.34364
23.38384,-0.37263
23.14277,-0.41176
22.90170,-0.43942
22.66063,-0.42422
22.41956,-0.39748
22.17849,-0.37179
21.93742,-0.34566
21.69635,-0.33429
21.45528,-0.34375
21.21421,-0.35934
20.97314,-0.36111
20.73207,-0.35064
20.49100,-0.34789
20.24993,-0.36509
20.00886,-0.39246
19.76779,-0.41016
19.52672,-0.41265
19.28564,-0.42777
19.04457,-0.45303
18.80350,-0.45283
18.56243,-0.42760
18.32136,-0.39729
18.08029,-0.37901
17.83922,-0.38464
17.59815,-0.40954
17.35708,-0.42824
17.11601,-0.42547
16.87494,-0.41972
16.63387,-0.42551
16.39280,-0.43405
16.15173,-0.42983
15.91066,-0.41619
15.66959,-0.41118
15.42852,-0.41694
15.18745,-0.41852
14.94637,-0.40979
14.70530,-0.39853
14.46423,-0.38985
14.22316,-0.38503
13.98209,-0.38608
13.74102,-0.39230
13.49995,-0.40096
13.25888,-0.40785
13.01781,-0.41273
12.77674,-0.42035
12.53567,-0.42610
12.29460,-0.42445
12.05353,-0.41564
11.81246,-0.40047
11.57139,-0.38667
11.33032,-0.38852
11.08925,-0.41021
10.84818,-0.43265
10.60710,-0.42985
10.36603,-0.40571
10.12496,-0.38961
9.88389,-0.39762
9.64282,-0.41667
9.40175,-0.42459
9.16068,-0.41862
8.91961,-0.41861
8.67854,-0.43400
8.43747,-0.44452
8.19640,-0.44052
7.95533,-0.44387
7.71426,-0.45927
7.47319,-0.47079
7.23212,-0.46296
6.99105,-0.43813
6.74998,-0.41488
6.50891,-0.40494
6.26783,-0.40457
6.02676,-0.40562
5.78569,-0.40262
5.54462,-0.40149
5.30355,-0.41745
5.06248,-0.45272
4.82141,-0.46595
4.58034,-0.44308
4.33927,-0.42795
4.09820,-0.43362
3.85713,-0.44884
3.61606,-0.45199
3.37499,-0.44266
3.13392,-0.44128
2.89285,-0.45659
2.65178,-0.47360
2.41071,-0.47898
2.16964,-0.47014
1.92856,-0.45734
1.68749,-0.45641
1.44642,-0.47906
1.20535,-0.50606
0.96428,-0.50066
0.72321,-0.48302
0.48214,-0.48291
0.24107,-0.45886
-0.00000,-0.12510
