399.69498,1.54854
399.45391,1.55620
399.21284,1.56529
398.97177,1.56809
398.73070,1.56144
398.48963,1.55456
398.24856,1.56140
398.00749,1.58383
397.76642,1.60290
397.52535,1.59631
397.28428,1.57015
397.04321,1.55077
396.80214,1.54996
396.56107,1.55589
396.32000,1.55260
396.07892,1.54299
395.83785,1.53840
395.59678,1.53777
395.35571,1.53970
395.11464,1.55148
394.87357,1.57289
394.63250,1.59258
394.39143,1.60433
394.15036,1.61300
393.90929,1.62226
393.66822,1.62672
393.42715,1.62397
393.18608,1.61781
392.94501,1.60906
392.70394,1.59837
392.46287,1.59180
392.22180,1.59219
391.98073,1.58764
391.73965,1.56463
391.49858,1.53196
391.25751,1.51156
391.01644,1.51251
390.77537,1.52867
390.53430,1.54990
390.29323,1.56375
390.05216,1.55617
389.81109,1.52540
389.57002,1.48871
389.32895,1.46497
389.08788,1.45820
388.84681,1.46081
388.60574,1.46708
388.36467,1.48168
388.12360,1.50759
387.88253,1.53139
387.64146,1.53328
387.40038,1.51116
387.15931,1.49034
386.91824,1.48520
386.67717,1.47357
386.43610,1.43931
386.19503,1.40474
385.95396,1.39127
385.71289,1.39029
385.47182,1.38154
385.23075,1.36176
384.98968,1.34621
384.74861,1.35129
384.50754,1.38191
384.26647,1.41883
384.02540,1.42732
383.78433,1.40770
383.54326,1.38969
383.30219,1.38506
383.06111,1.38177
382.82004,1.36501
382.57897,1.33636
382.33790,1.30913
382.09683,1.29276
381.85576,1.28861
381.61469,1.29041
381.37362,1.29103
381.13255,1.29077
380.89148,1.29316
380.65041,1.29891
380.40934,1.30443
380.16827,1.30321
379.92720,1.29428
379.68613,1.28412
379.44506,1.27674
379.20399,1.27296
378.96292,1.27485
378.72184,1.28390
378.48077,1.29726
378.23970,1.30836
377.99863,1.31159
377.75756,1.31021
377.51649,1.31365
377.27542,1.32559
377.03435,1.34294
376.79328,1.36092
376.55221,1.37614
376.31114,1.38751
376.07007,1.39884
375.82900,1.41687
375.58793,1.43804
375.34686,1.44609
375.10579,1.43447
374.86472,1.41644
374.62365,1.40699
374.38257,1.41065
374.14150,1.42136
373.90043,1.42892
373.65936,1.43066
373.41829,1.43160
373.17722,1.43490
372.93615,1.44233
372.69508,1.45474
372.45401,1.46667
372.21294,1.46489
371.97187,1.44139
371.73080,1.40832
371.48973,1.38850
371.24866,1.38924
371.00759,1.39518
370.76652,1.38973
370.52545,1.37655
370.28437,1.37111
370.04330,1.38187
369.80223,1.40434
369.56116,1.42351
369.32009,1.42324
369.07902,1.40048
368.83795,1.36850
368.59688,1.34396
368.35581,1.33379
368.11474,1.33501
367.87367,1.34139
367.63260,1.34731
367.39153,1.34996
367.15046,1.35164
366.90939,1.35654
366.66832,1.36357
366.42725,1.36566
366.18618,1.35796
365.94510,1.34361
365.70403,1.32901
365.46296,1.32007
365.22189,1.32135
364.98082,1.33206
364.73975,1.34483
364.49868,1.35131
364.25761,1.34752
364.01654,1.33676
363.77547,1.32590
363.53440,1.32078
363.29333,1.32195
363.05226,1.32177
362.81119,1.31360
362.57012,1.30180
362.32905,1.29570
362.08798,1.29608
361.84691,1.29403
361.60583,1.28730
361.36476,1.28804
361.12369,1.30480
360.88262,1.32559
360.64155,1.32981
360.40048,1.31538
360.15941,1.29688
359.91834,1.28338
359.67727,1.27512
359.43620,1.27185
359.19513,1.27243
358.95406,1.27166
358.71299,1.26576
358.47192,1.25824
358.23085,1.25394
357.98978,1.25360
357.74871,1.25799
357.50764,1.26940
357.26656,1.28511
357.02549,1.29654
356.78442,1.29868
356.54335,1.29477
356.30228,1.28857
356.06121,1.27999
355.82014,1.26980
355.57907,1.26197
355.33800,1.26097
355.09693,1.26740
354.85586,1.27465
354.61479,1.27350
354.37372,1.26373
354.13265,1.25592
353.89158,1.25841
353.65051,1.26837
353.40944,1.27695
353.16837,1.27950
352.92729,1.27754
352.68622,1.27361
352.44515,1.27051
352.20408,1.27235
351.96301,1.27973
351.72194,1.28564
351.48087,1.28252
351.23980,1.27286
350.99873,1.26746
350.75766,1.27224
350.51659,1.28084
350.27552,1.28240
350.03445,1.27399
349.79338,1.26149
349.55231,1.25147
349.31124,1.24795
349.07017,1.25311
348.82910,1.26650
348.58802,1.28487
348.34695,1.30199
348.10588,1.31084
347.86481,1.31093
347.62374,1.31007
347.38267,1.31406
347.14160,1.31916
346.90053,1.31837
346.65946,1.31135
346.41839,1.30177
346.17732,1.28909
345.93625,1.27208
345.69518,1.25816
345.45411,1.26153
345.21304,1.28809
344.97197,1.32290
344.73090,1.34096
344.48983,1.33750
344.24875,1.32966
344.00768,1.32654
343.76661,1.32209
343.52554,1.31373
343.28447,1.30855
343.04340,1.31203
342.80233,1.32205
342.56126,1.33402
342.32019,1.34784
342.07912,1.36586
341.83805,1.38387
341.59698,1.38717
341.35591,1.36823
341.11484,1.34396
340.87377,1.33560
340.63270,1.34532
340.39163,1.35811
340.15056,1.36228
339.90948,1.36323
339.66841,1.37224
339.42734,1.39113
339.18627,1.40975
338.94520,1.41392
338.70413,1.40118
338.46306,1.38625
338.22199,1.38670
337.98092,1.40595
337.73985,1.42843
337.49878,1.43356
337.25771,1.42132
337.01664,1.41221
336.77557,1.41633
336.53450,1.42051
336.29343,1.41226
336.05236,1.40073
335.81129,1.39988
335.57021,1.40805
335.32914,1.41418
335.08807,1.41243
334.84700,1.40563
334.60593,1.39906
334.36486,1.39237
334.12379,1.38131
333.88272,1.37004
333.64165,1.37289
333.40058,1.39252
333.15951,1.40847
332.91844,1.40010
332.67737,1.37209
332.43630,1.34258
332.19523,1.32109
331.95416,1.30733
331.71309,1.30266
331.47202,1.31026
331.23094,1.32464
330.98987,1.33250
330.74880,1.32892
330.50773,1.32330
330.26666,1.32474
330.02559,1.33151
329.78452,1.33611
329.54345,1.33508
329.30238,1.32921
329.06131,1.31903
328.82024,1.30744
328.57917,1.29719
328.33810,1.29259
328.09703,1.29704
327.85596,1.30248
327.61489,1.29860
327.37382,1.28710
327.13275,1.27652
326.89167,1.27197
326.65060,1.27319
326.40953,1.27516
326.16846,1.27480
325.92739,1.27633
325.68632,1.28530
325.44525,1.30054
325.20418,1.31330
324.96311,1.31890
324.72204,1.31991
324.48097,1.31680
324.23990,1.30750
323.99883,1.29376
323.75776,1.28245
323.51669,1.28104
323.27562,1.29262
323.03455,1.30962
322.79348,1.31796
322.55240,1.31528
322.31133,1.31367
322.07026,1.32067
321.82919,1.32805
321.58812,1.32685
321.34705,1.32140
321.10598,1.31763
320.86491,1.31440
320.62384,1.31128
320.38277,1.31050
320.14170,1.31035
319.90063,1.30961
319.65956,1.31058
319.41849,1.31047
319.17742,1.30333
318.93635,1.29440
318.69528,1.29238
318.45421,1.29273
318.21313,1.28954
317.97206,1.29192
317.73099,1.30503
317.48992,1.31593
317.24885,1.31325
317.00778,1.30581
316.76671,1.30972
316.52564,1.32553
316.28457,1.33659
316.04350,1.33087
315.80243,1.31734
315.56136,1.31175
315.32029,1.31581
315.07922,1.32042
314.83815,1.32426
314.59708,1.33640
314.35601,1.35864
314.11494,1.37684
313.87386,1.37874
313.63279,1.37210
313.39172,1.36947
313.15065,1.36959
312.90958,1.37027
312.66851,1.37905
312.42744,1.39662
312.18637,1.40968
311.94530,1.41094
311.70423,1.40573
311.46316,1.39710
311.22209,1.38331
310.98102,1.36738
310.73995,1.35780
310.49888,1.35799
310.25781,1.36239
310.01674,1.36411
309.77567,1.36410
309.53459,1.37029
309.29352,1.38881
309.05245,1.41974
308.81138,1.45573
308.57031,1.47980
308.32924,1.47455
308.08817,1.44424
307.84710,1.41274
307.60603,1.39660
307.36496,1.39393
307.12389,1.39534
306.88282,1.39852
306.64175,1.40645
306.40068,1.41378
306.15961,1.40724
305.91854,1.38767
305.67747,1.37470
305.43640,1.38003
305.19532,1.39466
304.95425,1.40296
304.71318,1.40070
304.47211,1.39586
304.23104,1.39572
303.98997,1.39803
303.74890,1.39425
303.50783,1.37835
303.26676,1.35255
303.02569,1.33029
302.78462,1.32527
302.54355,1.33434
302.30248,1.34315
302.06141,1.34300
301.82034,1.33292
301.57927,1.31571
301.33820,1.29849
301.09713,1.29072
300.85605,1.29796
300.61498,1.31828
300.37391,1.34125
300.13284,1.35193
299.89177,1.34407
299.65070,1.32639
299.40963,1.30947
299.16856,1.29580
298.92749,1.28388
298.68642,1.27366
298.44535,1.26709
298.20428,1.26625
297.96321,1.27010
297.72214,1.27281
297.48107,1.26803
297.24000,1.25543
296.99893,1.24166
296.75786,1.23433
296.51678,1.23439
296.27571,1.23845
296.03464,1.24509
295.79357,1.25283
295.55250,1.25829
295.31143,1.25838
295.07036,1.25184
294.82929,1.23954
294.58822,1.22440
294.34715,1.21076
294.10608,1.20038
293.86501,1.19092
293.62394,1.18215
293.38287,1.17896
293.14180,1.18540
292.90073,1.19929
292.65966,1.21200
292.41859,1.21343
292.17751,1.20147
291.93644,1.18557
291.69537,1.17632
291.45430,1.17492
291.21323,1.17449
290.97216,1.16972
290.73109,1.16371
290.49002,1.16344
290.24895,1.17006
290.00788,1.17605
289.76681,1.17369
289.52574,1.16470
289.28467,1.15807
289.04360,1.15951
288.80253,1.16602
288.56146,1.17027
288.32039,1.16906
288.07932,1.16564
287.83824,1.16394
287.59717,1.16411
287.35610,1.16356
287.11503,1.16111
286.87396,1.15902
286.63289,1.15939
286.39182,1.16052
286.15075,1.16021
285.90968,1.15927
285.66861,1.15878
285.42754,1.15765
285.18647,1.15502
284.94540,1.15191
284.70433,1.14855
284.46326,1.14354
284.22219,1.13771
283.98112,1.13424
283.74005,1.13451
283.49897,1.13639
283.25790,1.13626
283.01683,1.13295
282.77576,1.12930
282.53469,1.12969
282.29362,1.13470
282.05255,1.13851
281.81148,1.13525
281.57041,1.12768
281.32934,1.12448
281.08827,1.12900
280.84720,1.13544
280.60613,1.13724
280.36506,1.13562
280.12399,1.13613
279.88292,1.14013
279.64185,1.14426
279.40078,1.14566
279.15970,1.14367
278.91863,1.13894
278.67756,1.13443
278.43649,1.13454
278.19542,1.14040
277.95435,1.14751
277.71328,1.14958
277.47221,1.14348
277.23114,1.13093
276.99007,1.11807
276.74900,1.11214
276.50793,1.11584
276.26686,1.12560
276.02579,1.13629
275.78472,1.14477
275.54365,1.14763
275.30258,1.14166
275.06151,1.13035
274.82043,1.12432
274.57936,1.12993
274.33829,1.14231
274.09722,1.15283
273.85615,1.15897
273.61508,1.16133
273.37401,1.15831
273.13294,1.15171
272.89187,1.14926
272.65080,1.15461
272.40973,1.16127
272.16866,1.16201
271.92759,1.15925
271.68652,1.15957
271.44545,1.16361
271.20438,1.16780
270.96331,1.17164
270.72224,1.17760
270.48116,1.18415
270.24009,1.18538
269.99902,1.17965
269.75795,1.17308
269.51688,1.17214
269.27581,1.17698
269.03474,1.18250
268.79367,1.18419
268.55260,1.18178
268.31153,1.17884
268.07046,1.17988
267.82939,1.18570
267.58832,1.19279
267.34725,1.19847
267.10618,1.20447
266.86511,1.21386
266.62404,1.22781
266.38297,1.24528
266.14189,1.26126
265.90082,1.26852
265.65975,1.26566
265.41868,1.25898
265.17761,1.25537
264.93654,1.25867
264.69547,1.27039
264.45440,1.28860
264.21333,1.30923
263.97226,1.33045
263.73119,1.35103
263.49012,1.36662
263.24905,1.37380
263.00798,1.37664
262.76691,1.38381
262.52584,1.39810
262.28477,1.41374
262.04370,1.42510
261.80262,1.43309
261.56155,1.44249
261.32048,1.45896
261.07941,1.48646
260.83834,1.52060
260.59727,1.54621
260.35620,1.55340
260.11513,1.55353
259.87406,1.56270
259.63299,1.58090
259.39192,1.60083
259.15085,1.62532
258.90978,1.65917
258.66871,1.68996
258.42764,1.69932
258.18657,1.69435
257.94550,1.70006
257.70443,1.72821
257.46335,1.76601
257.22228,1.79173
256.98121,1.80489
256.74014,1.83098
256.49907,1.88029
256.25800,1.91519
256.01693,1.89821
255.77586,1.85299
255.53479,1.82034
255.29372,1.80838
255.05265,1.79501
254.81158,1.76446
254.57051,1.72422
254.32944,1.68460
254.08837,1.65893
253.84730,1.66200
253.60623,1.68876
253.36516,1.70587
253.12408,1.68672
252.88301,1.65059
252.64194,1.63395
252.40087,1.64530
252.15980,1.66355
251.91873,1.66763
251.67766,1.65861
251.43659,1.64703
251.19552,1.63714
250.95445,1.62995
250.71338,1.62829
250.47231,1.63465
250.23124,1.64200
249.99017,1.63745
249.74910,1.61985
249.50803,1.60287
249.26696,1.59742
249.02589,1.59705
248.78481,1.58518
248.54374,1.56126
248.30267,1.54599
248.06160,1.55392
247.82053,1.57834
247.57946,1.60325
247.33839,1.62268
247.09732,1.64150
246.85625,1.66194
246.61518,1.67685
246.37411,1.67886
246.13304,1.67172
245.89197,1.66240
245.65090,1.65298
245.40983,1.65097
245.16876,1.66787
244.92769,1.70179
244.68661,1.73399
244.44554,1.75277
244.20447,1.77054
243.96340,1.80233
243.72233,1.84606
243.48126,1.89672
243.24019,1.96820
242.99912,2.04571
242.75805,2.01370
242.51698,1.92650
242.27591,1.86430
242.03484,1.78384
241.79377,1.68730
241.55270,1.60869
241.31163,1.54933
241.07056,1.49555
240.82949,1.44285
240.58842,1.39671
240.34734,1.35977
240.10627,1.32712
239.86520,1.29344
239.62413,1.25850
239.38306,1.22444
239.14199,1.19274
238.90092,1.16388
238.65985,1.13769
238.41878,1.11439
238.17771,1.09455
237.93664,1.07731
237.69557,1.06086
237.45450,1.04546
237.21343,1.03294
236.97236,1.02381
236.73129,1.01578
236.49022,1.00449
236.24915,0.98749
236.00807,0.96840
235.76700,0.95388
235.52593,0.94657
235.28486,0.94374
235.04379,0.94192
234.80272,0.93937
234.56165,0.93439
234.32058,0.92604
234.07951,0.91668
233.83844,0.91000
233.59737,0.90685
233.35630,0.90577
233.11523,0.90606
232.87416,0.90757
232.63309,0.90898
232.39202,0.90939
232.15095,0.90861
231.90988,0.90488
231.66880,0.89661
231.42773,0.88581
231.18666,0.87603
230.94559,0.86812
230.70452,0.86124
230.46345,0.85654
230.22238,0.85610
229.98131,0.85895
229.74024,0.86146
229.49917,0.86163
229.25810,0.86037
229.01703,0.85948
228.77596,0.86080
228.53489,0.86462
228.29382,0.86765
228.05275,0.86549
227.81168,0.85796
227.57061,0.84911
227.32953,0.84208
227.08846,0.83751
226.84739,0.83557
226.60632,0.83668
226.36525,0.83976
226.12418,0.84140
225.88311,0.83884
225.64204,0.83286
225.40097,0.82671
225.15990,0.82340
224.91883,0.82405
224.67776,0.82743
224.43669,0.83104
224.19562,0.83335
223.95455,0.83416
223.71348,0.83376
223.47241,0.83268
223.23134,0.83157
222.99026,0.83127
222.74919,0.83323
222.50812,0.83843
222.26705,0.84485
222.02598,0.84958
221.78491,0.85337
221.54384,0.85855
221.30277,0.86420
221.06170,0.86860
220.82063,0.87325
220.57956,0.88029
220.33849,0.88893
220.09742,0.89685
219.85635,0.90290
219.61528,0.90811
219.37421,0.91466
219.13314,0.92338
218.89207,0.93346
218.65099,0.94477
218.40992,0.95744
218.16885,0.96992
217.92778,0.98105
217.68671,0.99208
217.44564,1.00391
217.20457,1.01556
216.96350,1.02623
216.72243,1.03606
216.48136,1.04555
216.24029,1.05631
215.99922,1.06875
215.75815,1.07903
215.51708,1.08475
215.27601,1.09153
215.03494,1.10591
214.79387,1.12521
214.55280,1.14184
214.31172,1.15415
214.07065,1.16479
213.82958,1.17281
213.58851,1.17499
213.34744,1.17276
213.10637,1.17281
212.86530,1.18124
212.62423,1.19889
212.38316,1.22036
212.14209,1.23620
211.90102,1.24048
211.65995,1.23614
211.41888,1.22994
211.17781,1.22716
210.93674,1.22973
210.69567,1.23512
210.45460,1.23853
210.21353,1.23716
209.97245,1.23301
209.73138,1.23098
209.49031,1.23205
209.24924,1.23143
209.00817,1.22525
208.76710,1.21636
208.52603,1.21110
208.28496,1.21195
208.04389,1.21551
207.80282,1.21648
207.56175,1.21179
207.32068,1.20140
207.07961,1.18779
206.83854,1.17480
206.59747,1.16435
206.35640,1.15500
206.11533,1.14507
205.87426,1.13466
205.63318,1.12350
205.39211,1.10949
205.15104,1.09237
204.90997,1.07640
204.66890,1.06600
204.42783,1.06055
204.18676,1.05473
203.94569,1.04345
203.70462,1.02706
203.46355,1.01068
203.22248,0.99913
202.98141,0.99331
202.74034,0.98894
202.49927,0.97960
202.25820,0.96315
202.01713,0.94277
201.77606,0.92203
201.53499,0.90273
201.29391,0.88709
201.05284,0.87755
200.81177,0.87244
200.57070,0.86536
200.32963,0.85207
200.08856,0.83472
199.84749,0.81844
199.60642,0.80720
199.36535,0.80144
199.12428,0.79747
198.88321,0.79055
198.64214,0.77945
198.40107,0.76742
198.16000,0.75864
197.91893,0.75431
197.67786,0.75141
197.43679,0.74511
197.19572,0.73350
196.95464,0.71984
196.71357,0.70908
196.47250,0.70300
196.23143,0.69856
195.99036,0.69108
195.74929,0.67999
195.50822,0.67013
195.26715,0.66601
195.02608,0.66652
194.78501,0.66590
194.54394,0.65959
194.30287,0.64905
194.06180,0.64002
193.82073,0.63670
193.57966,0.63786
193.33859,0.63811
193.09752,0.63416
192.85645,0.62873
192.61537,0.62592
192.37430,0.62559
192.13323,0.62389
191.89216,0.61833
191.65109,0.61113
191.41002,0.60530
191.16895,0.60027
190.92788,0.59385
190.68681,0.58680
190.44574,0.58244
190.20467,0.58170
189.96360,0.58134
189.72253,0.57800
189.48146,0.57270
189.24039,0.56907
188.99932,0.56814
188.75825,0.56837
188.51718,0.56915
188.27610,0.57088
188.03503,0.57255
187.79396,0.57245
187.55289,0.57091
187.31182,0.57002
187.07075,0.57088
186.82968,0.57248
186.58861,0.57331
186.34754,0.57293
186.10647,0.57146
185.86540,0.56857
185.62433,0.56396
185.38326,0.55828
185.14219,0.55356
184.90112,0.55262
184.66005,0.55616
184.41898,0.56046
184.17791,0.56131
183.93683,0.56024
183.69576,0.56184
183.45469,0.56595
183.21362,0.56871
182.97255,0.56960
182.73148,0.57129
182.49041,0.57372
182.24934,0.57476
182.00827,0.57507
181.76720,0.57641
181.52613,0.57744
181.28506,0.57626
181.04399,0.57462
180.80292,0.57491
180.56185,0.57650
180.32078,0.57839
180.07971,0.58188
179.83864,0.58768
179.59756,0.59404
179.35649,0.59913
179.11542,0.60307
178.87435,0.60712
178.63328,0.61232
178.39221,0.61892
178.15114,0.62687
177.91007,0.63684
177.66900,0.64882
177.42793,0.66067
177.18686,0.67104
176.94579,0.68137
176.70472,0.69257
176.46365,0.70373
176.22258,0.71517
175.98151,0.72818
175.74044,0.74254
175.49937,0.75744
175.25829,0.77353
175.01722,0.79187
174.77615,0.81267
174.53508,0.83550
174.29401,0.85942
174.05294,0.88354
173.81187,0.90551
173.57080,0.92002
173.32973,0.92434
173.08866,0.92405
172.84759,0.92616
172.60652,0.93030
172.36545,0.93229
172.12438,0.93244
171.88331,0.93489
171.64224,0.94084
171.40117,0.94710
171.16010,0.95134
170.91902,0.95406
170.67795,0.95434
170.43688,0.94890
170.19581,0.93815
169.95474,0.92770
169.71367,0.92127
169.47260,0.91667
169.23153,0.90983
168.99046,0.90070
168.74939,0.89288
168.50832,0.88863
168.26725,0.88746
168.02618,0.88874
167.78511,0.89243
167.54404,0.89639
167.30297,0.89615
167.06190,0.88999
166.82083,0.88217
166.57975,0.87902
166.33868,0.88287
166.09761,0.89027
165.85654,0.89652
165.61547,0.90145
165.37440,0.90909
165.13333,0.92139
164.89226,0.93495
164.65119,0.94466
164.41012,0.94943
164.16905,0.95264
163.92798,0.95743
163.68691,0.96343
163.44584,0.96812
163.20477,0.97031
162.96370,0.97203
162.72263,0.97684
162.48156,0.98591
162.24048,0.99747
161.99941,1.00963
161.75834,1.02002
161.51727,1.02457
161.27620,1.02191
161.03513,1.01497
160.79406,1.00594
160.55299,0.99617
160.31192,0.99030
160.07085,0.99298
159.82978,1.00195
159.58871,1.00917
159.34764,1.00813
159.10657,0.99842
158.86550,0.98489
158.62443,0.97316
158.38336,0.96508
158.14229,0.95940
157.90121,0.95635
157.66014,0.95776
157.41907,0.96177
157.17800,0.96231
156.93693,0.95523
156.69586,0.94183
156.45479,0.92611
156.21372,0.91150
155.97265,0.90039
155.73158,0.89452
155.49051,0.89365
155.24944,0.89399
155.00837,0.89011
154.76730,0.87967
154.52623,0.86595
154.28516,0.85414
154.04409,0.84584
153.80302,0.83846
153.56194,0.82895
153.32087,0.81621
153.07980,0.80027
152.83873,0.78186
152.59766,0.76336
152.35659,0.74782
152.11552,0.73591
151.87445,0.72481
151.63338,0.71123
151.39231,0.69509
151.15124,0.67879
150.91017,0.66428
150.66910,0.65217
150.42803,0.64202
150.18696,0.63262
149.94589,0.62241
149.70482,0.61058
149.46375,0.59792
149.22267,0.58661
148.98160,0.57892
148.74053,0.57518
148.49946,0.57279
148.25839,0.56832
148.01732,0.56104
147.77625,0.55372
147.53518,0.54929
147.29411,0.54781
147.05304,0.54738
146.81197,0.54682
146.57090,0.54684
146.32983,0.54851
146.08876,0.55147
145.84769,0.55391
145.60662,0.55459
145.36555,0.55466
145.12448,0.55658
144.88340,0.56157
144.64233,0.56850
144.40126,0.57480
144.16019,0.57876
143.91912,0.58119
143.67805,0.58404
143.43698,0.58711
143.19591,0.58718
142.95484,0.58195
142.71377,0.57327
142.47270,0.56439
142.23163,0.55586
141.99056,0.54638
141.74949,0.53641
141.50842,0.52805
141.26735,0.52205
141.02628,0.51701
140.78521,0.51181
140.54413,0.50706
140.30306,0.50398
140.06199,0.50303
139.82092,0.50429
139.57985,0.50793
139.33878,0.51306
139.09771,0.51666
138.85664,0.51653
138.61557,0.51508
138.37450,0.51758
138.13343,0.52617
137.89236,0.53805
137.65129,0.55008
137.41022,0.56243
137.16915,0.57619
136.92808,0.59072
136.68701,0.60578
136.44594,0.62357
136.20486,0.64513
135.96379,0.66743
135.72272,0.68769
135.48165,0.70704
135.24058,0.72797
134.99951,0.75182
134.75844,0.77947
134.51737,0.81098
134.27630,0.84472
134.03523,0.87909
133.79416,0.91336
133.55309,0.94661
133.31202,0.97796
133.07095,1.00680
132.82988,1.03225
132.58881,1.05404
132.34774,1.07173
132.10667,1.08328
131.86559,1.08928
131.62452,1.09550
131.38345,1.10251
131.14238,1.10152
130.90131,1.08936
130.66024,1.07414
130.41917,1.06127
130.17810,1.04766
129.93703,1.03021
129.69596,1.01124
129.45489,0.99281
129.21382,0.97071
128.97275,0.93853
128.73168,0.89727
128.49061,0.85584
128.24954,0.82124
128.00847,0.79317
127.76740,0.76873
127.52632,0.74715
127.28525,0.72815
127.04418,0.70904
126.80311,0.68700
126.56204,0.66283
126.32097,0.63980
126.07990,0.61926
125.83883,0.59990
125.59776,0.58066
125.35669,0.56229
125.11562,0.54574
124.87455,0.53094
124.63348,0.51750
124.39241,0.50514
124.15134,0.49348
123.91027,0.48239
123.66920,0.47253
123.42812,0.46459
123.18705,0.45882
122.94598,0.45548
122.70491,0.45455
122.46384,0.45496
122.22277,0.45554
121.98170,0.45609
121.74063,0.45628
121.49956,0.45542
121.25849,0.45440
121.01742,0.45579
120.77635,0.46103
120.53528,0.46899
120.29421,0.47789
120.05314,0.48777
119.81207,0.50012
119.57100,0.51548
119.32993,0.53260
119.08885,0.55011
118.84778,0.56859
118.60671,0.59069
118.36564,0.61912
118.12457,0.65358
117.88350,0.68926
117.64243,0.72019
117.40136,0.74413
117.16029,0.76207
116.91922,0.77545
116.67815,0.78589
116.43708,0.79391
116.19601,0.79672
115.95494,0.79066
115.71387,0.77586
115.47280,0.75657
115.23173,0.73843
114.99066,0.72595
114.74958,0.72021
114.50851,0.71765
114.26744,0.71394
114.02637,0.70832
113.78530,0.70243
113.54423,0.69646
113.30316,0.68887
113.06209,0.67898
112.82102,0.66856
112.57995,0.66093
112.33888,0.65875
112.09781,0.66160
111.85674,0.66627
111.61567,0.67085
111.37460,0.67680
111.13353,0.68593
110.89246,0.69731
110.65139,0.70808
110.41031,0.71488
110.16924,0.71385
109.92817,0.70239
109.68710,0.68195
109.44603,0.65817
109.20496,0.63756
108.96389,0.62349
108.72282,0.61557
108.48175,0.61093
108.24068,0.60507
107.99961,0.59313
107.75854,0.57244
107.51747,0.54509
107.27640,0.51668
107.03533,0.49205
106.79426,0.47322
106.55319,0.46103
106.31212,0.45590
106.07104,0.45612
105.82997,0.45662
105.58890,0.45099
105.34783,0.43609
105.10676,0.41508
104.86569,0.39466
104.62462,0.37948
104.38355,0.37035
104.14248,0.36652
103.90141,0.36718
103.66034,0.36934
103.41927,0.36678
103.17820,0.35559
102.93713,0.33944
102.69606,0.32586
102.45499,0.31963
102.21392,0.32004
101.97285,0.32188
101.73177,0.31934
101.49070,0.31061
101.24963,0.29890
101.00856,0.28950
100.76749,0.28581
100.52642,0.28711
100.28535,0.28875
100.04428,0.28590
99.80321,0.27820
99.56214,0.26995
99.32107,0.26565
99.08000,0.26634
98.83893,0.26916
98.59786,0.26914
98.35679,0.26315
98.11572,0.25385
97.87465,0.24840
97.63358,0.25178
97.39250,0.26150
97.15143,0.26880
96.91036,0.26818
96.66929,0.26475
96.42822,0.26723
96.18715,0.27684
95.94608,0.28553
95.70501,0.28713
95.46394,0.28743
95.22287,0.29530
94.98180,0.30997
94.74073,0.32179
94.49966,0.32377
94.25859,0.31961
94.01752,0.31758
93.77645,0.32029
93.53538,0.32308
93.29431,0.32303
93.05323,0.32445
92.81216,0.32996
92.57109,0.33295
92.33002,0.32769
92.08895,0.32109
91.84788,0.32185
91.60681,0.32743
91.36574,0.33173
91.12467,0.33868
90.88360,0.35448
90.64253,0.37463
90.40146,0.39249
90.16039,0.41355
89.91932,0.44602
89.67825,0.48776
89.43718,0.53359
89.19611,0.58351
88.95504,0.63433
88.71396,0.67755
88.47289,0.70861
88.23182,0.72461
87.99075,0.72117
87.74968,0.70034
87.50861,0.66953
87.26754,0.63423
87.02647,0.59651
86.78540,0.55688
86.54433,0.51683
86.30326,0.48099
86.06219,0.45257
85.82112,0.42802
85.58005,0.40178
85.33898,0.37445
85.09791,0.35073
84.85684,0.33192
84.61577,0.31494
84.37469,0.29742
84.13362,0.28068
83.89255,0.26716
83.65148,0.25737
83.41041,0.25063
83.16934,0.24647
82.92827,0.24357
82.68720,0.23947
82.44613,0.23303
82.20506,0.22562
81.96399,0.21918
81.72292,0.21436
81.48185,0.21055
81.24078,0.20714
80.99971,0.20418
80.75864,0.20180
80.51757,0.19960
80.27650,0.19696
80.03542,0.19390
79.79435,0.19129
79.55328,0.19003
79.31221,0.18974
79.07114,0.18915
78.83007,0.18804
78.58900,0.18730
78.34793,0.18727
78.10686,0.18716
77.86579,0.18570
77.62472,0.18210
77.38365,0.17713
77.14258,0.17310
76.90151,0.17161
76.66044,0.17186
76.41937,0.17198
76.17830,0.17096
75.93723,0.16883
75.69615,0.16617
75.45508,0.16394
75.21401,0.16270
74.97294,0.16172
74.73187,0.16018
74.49080,0.15882
74.24973,0.15894
74.00866,0.16025
73.76759,0.16175
73.52652,0.16335
73.28545,0.16443
73.04438,0.16342
72.80331,0.16061
72.56224,0.15876
72.32117,0.15983
72.08010,0.16307
71.83903,0.16594
71.59796,0.16562
71.35688,0.16121
71.11581,0.15510
70.87474,0.15136
70.63367,0.15277
70.39260,0.16021
70.15153,0.17402
69.91046,0.19480
69.66939,0.22216
69.42832,0.25127
69.18725,0.27105
68.94618,0.27172
68.70511,0.25535
68.46404,0.23156
68.22297,0.20766
67.98190,0.18706
67.74083,0.17142
67.49976,0.16098
67.25869,0.15446
67.01761,0.15036
66.77654,0.14830
66.53547,0.14865
66.29440,0.15115
66.05333,0.15474
65.81226,0.15836
65.57119,0.16142
65.33012,0.16435
65.08905,0.16909
64.84798,0.17774
64.60691,0.18986
64.36584,0.20233
64.12477,0.21184
63.88370,0.21605
63.64263,0.21312
63.40156,0.20316
63.16049,0.18912
62.91942,0.17452
62.67834,0.16091
62.43727,0.14804
62.19620,0.13577
61.95513,0.12521
61.71406,0.11752
61.47299,0.11248
61.23192,0.10879
60.99085,0.10587
60.74978,0.10518
60.50871,0.10963
60.26764,0.12135
60.02657,0.13955
59.78550,0.15961
59.54443,0.17489
59.30336,0.18043
59.06229,0.17589
58.82122,0.16489
58.58015,0.15211
58.33907,0.14068
58.09800,0.13174
57.85693,0.12537
57.61586,0.12155
57.37479,0.12091
57.13372,0.12444
56.89265,0.13245
56.65158,0.14366
56.41051,0.15650
56.16944,0.17034
55.92837,0.18239
55.68730,0.18485
55.44623,0.17211
55.20516,0.14888
54.96409,0.12517
54.72302,0.10903
54.48195,0.10397
54.24088,0.10981
53.99980,0.12617
53.75873,0.15413
53.51766,0.19088
53.27659,0.21860
53.03552,0.21184
52.79445,0.17537
52.55338,0.13468
52.31231,0.10623
52.07124,0.09834
51.83017,0.11546
51.58910,0.15553
51.34803,0.19791
51.10696,0.19902
50.86589,0.15269
50.62482,0.10426
50.38375,0.08138
50.14268,0.09180
49.90161,0.13560
49.66053,0.18873
49.41946,0.18719
49.17839,0.13029
48.93732,0.09073
48.69625,0.09801
48.45518,0.14591
48.21411,0.18954
47.97304,0.16168
47.73197,0.11101
47.49090,0.10036
47.24983,0.13221
47.00876,0.15882
46.76769,0.13050
46.52662,0.09595
46.28555,0.10222
46.04448,0.12768
45.80341,0.11826
45.56234,0.09146
45.32126,0.09176
45.08019,0.10493
44.83912,0.09975
44.59805,0.09626
44.35698,0.11561
44.11591,0.13480
43.87484,0.13365
43.63377,0.13207
43.39270,0.14265
43.15163,0.15640
42.91056,0.16604
42.66949,0.17184
42.42842,0.17473
42.18735,0.17314
41.94628,0.16279
41.70521,0.14722
41.46414,0.13811
41.22307,0.13818
40.98199,0.14184
40.74092,0.14951
40.49985,0.16275
40.25878,0.17233
40.01771,0.17166
39.77664,0.17081
39.53557,0.17993
39.29450,0.19448
39.05343,0.20099
38.81236,0.19477
38.57129,0.18767
38.33022,0.19038
38.08915,0.19862
37.84808,0.20704
37.60701,0.22131
37.36594,0.24105
37.12487,0.25370
36.88380,0.25092
36.64272,0.23542
36.40165,0.21273
36.16058,0.18707
35.91951,0.16263
35.67844,0.14428
35.43737,0.13688
35.19630,0.14241
34.95523,0.15688
34.71416,0.17170
34.47309,0.17979
34.23202,0.17918
33.99095,0.16981
33.74988,0.15303
33.50881,0.13674
33.26774,0.13019
33.02667,0.13088
32.78560,0.12987
32.54453,0.12886
32.30345,0.13670
32.06238,0.15090
31.82131,0.15788
31.58024,0.14931
31.33917,0.13003
31.09810,0.11341
30.85703,0.10096
30.61596,0.08137
30.37489,0.05366
30.13382,0.03020
29.89275,0.01875
29.65168,0.01726
29.41061,0.02099
29.16954,0.02144
28.92847,0.00662
28.68740,-0.03284
28.44633,-0.09356
28.20526,-0.14952
27.96418,-0.16517
27.72311,-0.13113
27.48204,-0.08200
27.24097,-0.05744
26.99990,-0.06471
26.75883,-0.08677
26.51776,-0.10522
26.27669,-0.10752
26.03562,-0.09245
25.79455,-0.08051
25.55348,-0.09816
25.31241,-0.14990
25.07134,-0.19889
24.83027,-0.20312
24.58920,-0.18025
24.34813,-0.18306
24.10706,-0.22930
23.86599,-0.29253
23.62491,-0.33945
23.38384,-0.35300
23.14277,-0.35062
22.90170,-0.36767
22.66063,-0.39867
22.41956,-0.43031
22.17849,-0.43124
21.93742,-0.38084
21.69635,-0.36368
21.45528,-0.40368
21.21421,-0.44047
20.97314,-0.45488
20.73207,-0.46089
20.49100,-0.45707
20.24993,-0.44820
20.00886,-0.43771
19.76779,-0.44223
19.52672,-0.47248
19.28564,-0.52708
19.04457,-0.58058
18.80350,-0.58770
18.56243,-0.55726
18.32136,-0.51953
18.08029,-0.47462
17.83922,-0.44398
17.59815,-0.44644
17.35708,-0.47736
17.11601,-0.50842
16.87494,-0.50762
16.63387,-0.46927
16.39280,-0.41808
16.15173,-0.38590
15.91066,-0.38895
15.66959,-0.41913
15.42852,-0.44797
15.18745,-0.46441
14.94637,-0.47255
14.70530,-0.45485
14.46423,-0.40944
14.22316,-0.37767
13.98209,-0.37298
13.74102,-0.38282
13.49995,-0.40139
13.25888,-0.42042
13.01781,-0.42813
12.77674,-0.43285
12.53567,-0.44562
12.29460,-0.45945
12.05353,-0.44699
11.81246,-0.41059
11.57139,-0.38585
11.33032,-0.37705
11.08925,-0.38312
10.84818,-0.41293
10.60710,-0.44875
10.36603,-0.44753
10.12496,-0.41549
9.88389,-0.37445
9.64282,-0.35422
9.40175,-0.36766
9.16068,-0.39213
8.91961,-0.39762
8.67854,-0.38666
8.43747,-0.38769
8.19640,-0.41581
7.95533,-0.45735
7.71426,-0.49210
7.47319,-0.51219
7.23212,-0.50830
6.99105,-0.47619
6.74998,-0.43655
6.50891,-0.41979
6.26783,-0.44041
6.02676,-0.48229
5.78569,-0.50392
5.54462,-0.48540
5.30355,-0.44738
5.06248,-0.41728
4.82141,-0.40172
4.58034,-0.41026
4.33927,-0.44926
4.09820,-0.48849
3.85713,-0.46068
3.61606,-0.42210
3.37499,-0.42629
3.13392,-0.44217
2.89285,-0.41969
2.65178,-0.41256
2.41071,-0.41898
2.16964,-0.42536
1.92856,-0.43744
1.68749,-0.47754
1.44642,-0.53260
1.20535,-0.51529
0.96428,-0.46995
0.72321,-0.44277
0.48214,-0.47742
0.24107,-0.42931
-0.00000,-0.04495
