399.69498,1.85787
399.45391,1.83075
399.21284,1.85292
398.97177,1.87328
398.73070,1.84006
398.48963,1.78928
398.24856,1.76215
398.00749,1.76928
397.76642,1.79342
397.52535,1.79544
397.28428,1.75971
397.04321,1.71263
396.80214,1.68918
396.56107,1.69712
396.32000,1.71518
396.07892,1.71426
395.83785,1.70287
395.59678,1.71135
395.35571,1.73503
395.11464,1.75654
394.87357,1.75975
394.63250,1.74933
394.39143,1.76023
394.15036,1.77357
393.90929,1.76102
393.66822,1.73299
393.42715,1.71668
393.18608,1.71345
392.94501,1.70664
392.70394,1.68355
392.46287,1.66394
392.22180,1.66210
391.98073,1.65668
391.73965,1.63325
391.49858,1.62693
391.25751,1.65932
391.01644,1.69409
390.77537,1.70229
390.53430,1.68956
390.29323,1.66004
390.05216,1.62581
389.81109,1.61355
389.57002,1.63255
389.32895,1.67531
389.08788,1.71368
388.84681,1.71534
388.60574,1.70123
388.36467,1.70102
388.12360,1.68432
387.88253,1.64177
387.64146,1.62265
387.40038,1.64147
387.15931,1.65419
386.91824,1.62501
386.67717,1.59767
386.43610,1.61093
386.19503,1.65922
385.95396,1.67511
385.71289,1.60916
385.47182,1.56428
385.23075,1.57089
384.98968,1.60734
384.74861,1.59460
384.50754,1.59568
384.26647,1.59976
384.02540,1.57144
383.78433,1.51647
383.54326,1.47134
383.30219,1.46207
383.06111,1.47848
382.82004,1.49960
382.57897,1.51098
382.33790,1.52047
382.09683,1.53613
381.85576,1.52593
381.61469,1.49993
381.37362,1.44451
381.13255,1.40344
380.89148,1.39981
380.65041,1.43592
380.40934,1.49444
380.16827,1.51334
379.92720,1.48654
379.68613,1.45636
379.44506,1.43646
379.20399,1.42727
378.96292,1.44467
378.72184,1.50084
378.48077,1.54090
378.23970,1.52768
377.99863,1.53142
377.75756,1.57238
377.51649,1.60167
377.27542,1.60650
377.03435,1.59052
376.79328,1.55045
376.55221,1.51995
376.31114,1.51638
376.07007,1.53037
375.82900,1.54915
375.58793,1.55453
375.34686,1.54225
375.10579,1.53932
374.86472,1.57250
374.62365,1.62845
374.38257,1.64596
374.14150,1.59673
373.90043,1.54226
373.65936,1.51816
373.41829,1.51936
373.17722,1.52306
372.93615,1.54272
372.69508,1.60820
372.45401,1.68886
372.21294,1.69363
371.97187,1.70289
371.73080,1.71502
371.48973,1.66975
371.24866,1.60456
371.00759,1.56240
370.76652,1.56874
370.52545,1.61301
370.28437,1.64732
370.04330,1.64444
369.80223,1.62445
369.56116,1.60433
369.32009,1.58774
369.07902,1.58086
368.83795,1.58799
368.59688,1.59052
368.35581,1.57494
368.11474,1.55515
367.87367,1.53975
367.63260,1.52711
367.39153,1.51497
367.15046,1.50012
366.90939,1.49297
366.66832,1.50246
366.42725,1.52174
366.18618,1.53924
365.94510,1.54799
365.70403,1.54681
365.46296,1.54284
365.22189,1.54235
364.98082,1.53589
364.73975,1.52359
364.49868,1.51914
364.25761,1.51946
364.01654,1.50378
363.77547,1.47539
363.53440,1.46401
363.29333,1.48223
363.05226,1.51867
362.81119,1.54967
362.57012,1.55340
362.32905,1.53059
362.08798,1.50711
361.84691,1.49669
361.60583,1.48623
361.36476,1.46460
361.12369,1.43809
360.88262,1.42045
360.64155,1.41882
360.40048,1.42857
360.15941,1.43983
359.91834,1.44811
359.67727,1.45319
359.43620,1.44929
359.19513,1.44226
358.95406,1.44673
358.71299,1.45672
358.47192,1.46252
358.23085,1.47446
357.98978,1.49459
357.74871,1.49266
357.50764,1.46915
357.26656,1.46729
357.02549,1.50738
356.78442,1.55330
356.54335,1.55764
356.30228,1.53257
356.06121,1.48993
355.82014,1.44944
355.57907,1.43106
355.33800,1.43195
355.09693,1.44051
354.85586,1.45455
354.61479,1.47299
354.37372,1.48409
354.13265,1.47927
353.89158,1.46732
353.65051,1.46103
353.40944,1.46188
353.16837,1.46364
352.92729,1.45861
352.68622,1.44130
352.44515,1.41617
352.20408,1.40068
351.96301,1.40221
351.72194,1.41418
351.48087,1.42320
351.23980,1.42099
350.99873,1.41842
350.75766,1.42952
350.51659,1.44822
350.27552,1.46259
350.03445,1.47060
349.79338,1.47365
349.55231,1.47691
349.31124,1.48434
349.07017,1.49862
348.82910,1.52159
348.58802,1.54738
348.34695,1.56854
348.10588,1.57593
347.86481,1.55785
347.62374,1.52069
347.38267,1.49439
347.14160,1.50540
346.90053,1.54422
346.65946,1.56149
346.41839,1.53162
346.17732,1.49300
345.93625,1.47431
345.69518,1.46892
345.45411,1.46438
345.21304,1.46302
344.97197,1.47769
344.73090,1.50998
344.48983,1.54502
344.24875,1.56299
344.00768,1.55498
343.76661,1.55059
343.52554,1.56100
343.28447,1.55893
343.04340,1.54726
342.80233,1.55081
342.56126,1.54963
342.32019,1.52858
342.07912,1.51326
341.83805,1.52477
341.59698,1.55822
341.35591,1.58387
341.11484,1.58378
340.87377,1.57637
340.63270,1.58126
340.39163,1.60285
340.15056,1.64396
339.90948,1.63621
339.66841,1.55790
339.42734,1.50854
339.18627,1.51720
338.94520,1.57263
338.70413,1.62313
338.46306,1.61826
338.22199,1.57484
337.98092,1.55237
337.73985,1.58461
337.49878,1.62341
337.25771,1.59227
337.01664,1.56410
336.77557,1.55961
336.53450,1.56413
336.29343,1.56404
336.05236,1.54985
335.81129,1.52529
335.57021,1.52155
335.32914,1.55982
335.08807,1.61716
334.84700,1.63801
334.60593,1.63658
334.36486,1.61737
334.12379,1.58677
333.88272,1.55656
333.64165,1.53381
333.40058,1.51511
333.15951,1.50240
332.91844,1.49747
332.67737,1.49725
332.43630,1.49036
332.19523,1.46567
331.95416,1.44655
331.71309,1.44513
331.47202,1.45062
331.23094,1.45546
330.98987,1.47022
330.74880,1.50679
330.50773,1.54143
330.26666,1.54363
330.02559,1.52470
329.78452,1.51375
329.54345,1.50762
329.30238,1.48461
329.06131,1.49328
328.82024,1.52147
328.57917,1.52314
328.33810,1.50655
328.09703,1.50527
327.85596,1.54108
327.61489,1.58677
327.37382,1.59736
327.13275,1.60957
326.89167,1.55760
326.65060,1.52768
326.40953,1.53997
326.16846,1.55549
325.92739,1.55604
325.68632,1.57981
325.44525,1.60245
325.20418,1.55169
324.96311,1.49401
324.72204,1.48148
324.48097,1.50831
324.23990,1.53793
323.99883,1.54635
323.75776,1.51537
323.51669,1.46192
323.27562,1.44371
323.03455,1.44578
322.79348,1.44300
322.55240,1.43105
322.31133,1.42990
322.07026,1.45949
321.82919,1.51627
321.58812,1.52772
321.34705,1.44969
321.10598,1.40702
320.86491,1.40765
320.62384,1.43612
320.38277,1.47585
320.14170,1.46852
319.90063,1.42203
319.65956,1.41303
319.41849,1.43471
319.17742,1.46051
318.93635,1.47973
318.69528,1.48962
318.45421,1.50684
318.21313,1.52582
317.97206,1.48309
317.73099,1.43222
317.48992,1.41606
317.24885,1.43018
317.00778,1.45365
316.76671,1.49059
316.52564,1.52476
316.28457,1.51115
316.04350,1.48435
315.80243,1.46521
315.56136,1.46030
315.32029,1.48516
315.07922,1.54109
314.83815,1.58549
314.59708,1.57860
314.35601,1.54626
314.11494,1.51391
313.87386,1.51921
313.63279,1.57801
313.39172,1.67285
313.15065,1.73118
312.90958,1.66982
312.66851,1.55275
312.42744,1.48167
312.18637,1.47492
311.94530,1.50996
311.70423,1.55004
311.46316,1.57209
311.22209,1.59325
310.98102,1.60873
310.73995,1.55944
310.49888,1.55422
310.25781,1.57938
310.01674,1.57341
309.77567,1.55515
309.53459,1.56406
309.29352,1.59595
309.05245,1.62159
308.81138,1.59911
308.57031,1.53471
308.32924,1.49538
308.08817,1.50611
307.84710,1.54806
307.60603,1.60099
307.36496,1.65950
307.12389,1.73001
306.88282,1.75685
306.64175,1.65067
306.40068,1.54705
306.15961,1.49165
305.91854,1.47401
305.67747,1.48542
305.43640,1.53730
305.19532,1.62191
304.95425,1.64197
304.71318,1.56728
304.47211,1.49813
304.23104,1.46600
303.98997,1.47659
303.74890,1.51948
303.50783,1.57860
303.26676,1.60280
303.02569,1.55301
302.78462,1.50781
302.54355,1.49915
302.30248,1.51880
302.06141,1.55125
301.82034,1.57920
301.57927,1.57946
301.33820,1.54214
301.09713,1.47945
300.85605,1.41389
300.61498,1.37037
300.37391,1.36145
300.13284,1.38192
299.89177,1.41161
299.65070,1.43173
299.40963,1.44060
299.16856,1.44496
298.92749,1.45288
298.68642,1.46840
298.44535,1.48398
298.20428,1.48688
297.96321,1.48220
297.72214,1.48612
297.48107,1.49904
297.24000,1.50590
296.99893,1.49357
296.75786,1.47281
296.51678,1.45912
296.27571,1.45112
296.03464,1.43888
295.79357,1.42146
295.55250,1.40898
295.31143,1.40704
295.07036,1.40709
294.82929,1.39434
294.58822,1.37051
294.34715,1.36001
294.10608,1.37520
293.86501,1.39860
293.62394,1.40107
293.38287,1.38589
293.14180,1.37710
292.90073,1.38427
292.65966,1.40053
292.41859,1.40083
292.17751,1.36637
291.93644,1.31505
291.69537,1.27680
291.45430,1.26793
291.21323,1.28905
290.97216,1.32232
290.73109,1.34055
290.49002,1.33587
290.24895,1.32141
290.00788,1.31807
289.76681,1.33361
289.52574,1.34727
289.28467,1.33567
289.04360,1.31118
288.80253,1.29992
288.56146,1.31056
288.32039,1.33042
288.07932,1.33509
287.83824,1.31924
287.59717,1.30002
287.35610,1.29068
287.11503,1.29321
286.87396,1.29978
286.63289,1.30069
286.39182,1.29603
286.15075,1.29520
285.90968,1.30263
285.66861,1.31311
285.42754,1.31962
285.18647,1.31611
284.94540,1.29999
284.70433,1.28146
284.46326,1.27621
284.22219,1.28545
283.98112,1.29155
283.74005,1.28017
283.49897,1.26111
283.25790,1.25351
283.01683,1.26080
282.77576,1.26903
282.53469,1.26686
282.29362,1.25913
282.05255,1.25615
281.81148,1.25819
281.57041,1.25679
281.32934,1.24967
281.08827,1.24729
280.84720,1.25916
280.60613,1.27709
280.36506,1.28436
280.12399,1.28539
279.88292,1.29739
279.64185,1.32216
279.40078,1.34363
279.15970,1.35034
278.91863,1.34893
278.67756,1.34501
278.43649,1.33105
278.19542,1.30690
277.95435,1.28926
277.71328,1.28575
277.47221,1.28650
277.23114,1.28003
276.99007,1.26387
276.74900,1.24353
276.50793,1.22749
276.26686,1.22015
276.02579,1.21876
275.78472,1.21910
275.54365,1.22251
275.30258,1.23384
275.06151,1.25322
274.82043,1.27089
274.57936,1.27506
274.33829,1.26727
274.09722,1.26044
273.85615,1.26262
273.61508,1.27048
273.37401,1.27606
273.13294,1.27709
272.89187,1.27890
272.65080,1.28599
272.40973,1.29454
272.16866,1.29745
271.92759,1.29522
271.68652,1.28977
271.44545,1.27737
271.20438,1.25955
270.96331,1.24948
270.72224,1.25860
270.48116,1.28357
270.24009,1.31044
269.99902,1.32889
269.75795,1.33919
269.51688,1.34605
269.27581,1.35073
269.03474,1.35032
268.79367,1.34166
268.55260,1.32729
268.31153,1.31646
268.07046,1.31677
267.82939,1.32560
267.58832,1.33178
267.34725,1.33061
267.10618,1.33067
266.86511,1.33944
266.62404,1.35323
266.38297,1.36511
266.14189,1.37416
265.90082,1.38070
265.65975,1.38079
265.41868,1.37222
265.17761,1.36040
264.93654,1.35765
264.69547,1.37221
264.45440,1.39543
264.21333,1.41087
263.97226,1.42100
263.73119,1.44252
263.49012,1.47275
263.24905,1.48749
263.00798,1.48076
262.76691,1.47629
262.52584,1.49281
262.28477,1.52493
262.04370,1.55613
261.80262,1.57727
261.56155,1.58689
261.32048,1.58875
261.07941,1.59900
260.83834,1.63167
260.59727,1.67702
260.35620,1.70116
260.11513,1.69216
259.87406,1.68661
259.63299,1.70555
259.39192,1.75179
259.15085,1.82912
258.90978,1.91883
258.66871,1.96495
258.42764,1.93408
258.18657,1.85713
257.94550,1.79286
257.70443,1.78049
257.46335,1.81949
257.22228,1.87514
256.98121,1.89864
256.74014,1.87584
256.49907,1.85085
256.25800,1.87112
256.01693,1.93521
255.77586,1.98263
255.53479,1.95664
255.29372,1.91037
255.05265,1.89943
254.81158,1.91786
254.57051,1.96143
254.32944,2.00469
254.08837,1.96679
253.84730,1.85712
253.60623,1.77710
253.36516,1.76234
253.12408,1.79116
252.88301,1.81740
252.64194,1.83477
252.40087,1.83322
252.15980,1.80331
251.91873,1.77980
251.67766,1.78057
251.43659,1.79422
251.19552,1.80371
250.95445,1.80086
250.71338,1.78042
250.47231,1.76859
250.23124,1.79265
249.99017,1.83782
249.74910,1.86051
249.50803,1.83400
249.26696,1.77554
249.02589,1.72435
248.78481,1.70443
248.54374,1.71642
248.30267,1.73921
248.06160,1.74329
247.82053,1.72209
247.57946,1.70021
247.33839,1.70790
247.09732,1.74906
246.85625,1.77528
246.61518,1.77929
246.37411,1.81030
246.13304,1.87419
245.89197,1.91371
245.65090,1.87137
245.40983,1.83162
245.16876,1.84690
244.92769,1.87947
244.68661,1.89865
244.44554,1.88357
244.20447,1.85596
243.96340,1.89319
243.72233,2.02769
243.48126,2.13766
243.24019,1.99886
242.99912,1.88080
242.75805,1.84534
242.51698,1.84784
242.27591,1.83832
242.03484,1.77394
241.79377,1.67548
241.55270,1.59195
241.31163,1.54471
241.07056,1.52223
240.82949,1.48902
240.58842,1.43278
240.34734,1.38472
240.10627,1.36460
239.86520,1.35918
239.62413,1.34565
239.38306,1.31958
239.14199,1.29222
238.90092,1.26593
238.65985,1.23398
238.41878,1.19850
238.17771,1.17104
237.93664,1.15582
237.69557,1.14423
237.45450,1.12757
237.21343,1.10929
236.97236,1.09834
236.73129,1.09553
236.49022,1.09153
236.24915,1.07716
236.00807,1.05445
235.76700,1.03532
235.52593,1.02934
235.28486,1.03333
235.04379,1.03328
234.80272,1.02220
234.56165,1.00975
234.32058,1.00458
234.07951,1.00055
233.83844,0.99142
233.59737,0.98509
233.35630,0.98841
233.11523,0.99120
232.87416,0.97885
232.63309,0.95934
232.39202,0.95119
232.15095,0.95731
231.90988,0.96608
231.66880,0.97164
231.42773,0.98253
231.18666,0.99857
230.94559,1.00265
230.70452,0.98644
230.46345,0.96184
230.22238,0.93896
229.98131,0.91816
229.74024,0.90116
229.49917,0.89212
229.25810,0.89086
229.01703,0.89325
228.77596,0.89571
228.53489,0.89627
228.29382,0.89530
228.05275,0.89798
227.81168,0.91155
227.57061,0.93620
227.32953,0.96053
227.08846,0.97113
226.84739,0.96495
226.60632,0.94599
226.36525,0.91956
226.12418,0.89440
225.88311,0.87792
225.64204,0.87029
225.40097,0.86909
225.15990,0.87457
224.91883,0.88602
224.67776,0.89592
224.43669,0.89827
224.19562,0.89877
223.95455,0.90324
223.71348,0.90656
223.47241,0.90428
223.23134,0.90182
222.99026,0.90387
222.74919,0.90718
222.50812,0.90858
222.26705,0.91038
222.02598,0.91461
221.78491,0.92205
221.54384,0.93515
221.30277,0.95252
221.06170,0.96659
220.82063,0.97432
220.57956,0.97841
220.33849,0.97973
220.09742,0.97958
219.85635,0.98081
219.61528,0.98198
219.37421,0.98124
219.13314,0.98363
218.89207,0.99485
218.65099,1.01445
218.40992,1.03780
218.16885,1.05732
217.92778,1.06408
217.68671,1.05738
217.44564,1.04880
217.20457,1.05054
216.96350,1.06697
216.72243,1.09532
216.48136,1.12804
216.24029,1.15891
215.99922,1.18699
215.75815,1.20888
215.51708,1.21343
215.27601,1.19918
215.03494,1.18116
214.79387,1.17136
214.55280,1.17426
214.31172,1.19123
214.07065,1.21556
213.82958,1.23457
213.58851,1.24128
213.34744,1.23734
213.10637,1.22837
212.86530,1.21949
212.62423,1.21365
212.38316,1.21405
212.14209,1.22657
211.90102,1.25995
211.65995,1.31580
211.41888,1.37167
211.17781,1.38748
210.93674,1.35810
210.69567,1.31331
210.45460,1.27733
210.21353,1.25938
209.97245,1.25725
209.73138,1.26793
209.49031,1.28750
209.24924,1.30276
209.00817,1.29565
208.76710,1.26729
208.52603,1.23874
208.28496,1.22625
208.04389,1.22921
207.80282,1.23252
207.56175,1.22470
207.32068,1.21489
207.07961,1.21618
206.83854,1.21924
206.59747,1.20505
206.35640,1.17897
206.11533,1.16435
205.87426,1.17635
205.63318,1.21139
205.39211,1.23920
205.15104,1.22116
204.90997,1.16931
204.66890,1.11991
204.42783,1.09200
204.18676,1.09189
203.94569,1.11414
203.70462,1.13484
203.46355,1.12663
203.22248,1.09386
202.98141,1.05868
202.74034,1.02971
202.49927,1.00884
202.25820,1.00452
202.01713,1.01976
201.77606,1.03502
201.53499,1.02164
201.29391,0.98188
201.05284,0.94161
200.81177,0.91867
200.57070,0.91417
200.32963,0.91411
200.08856,0.90438
199.84749,0.88875
199.60642,0.87783
199.36535,0.87127
199.12428,0.86269
198.88321,0.85239
198.64214,0.84553
198.40107,0.84200
198.16000,0.83480
197.91893,0.81971
197.67786,0.80184
197.43679,0.79040
197.19572,0.78885
196.95464,0.78928
196.71357,0.78101
196.47250,0.76663
196.23143,0.75692
195.99036,0.75480
195.74929,0.75489
195.50822,0.74936
195.26715,0.73542
195.02608,0.72179
194.78501,0.71937
194.54394,0.73069
194.30287,0.74620
194.06180,0.74646
193.82073,0.72482
193.57966,0.69969
193.33859,0.68914
193.09752,0.69449
192.85645,0.70131
192.61537,0.69541
192.37430,0.68136
192.13323,0.67258
191.89216,0.67432
191.65109,0.68054
191.41002,0.68069
191.16895,0.67147
190.92788,0.65969
190.68681,0.65243
190.44574,0.64993
190.20467,0.64829
189.96360,0.64558
189.72253,0.64264
189.48146,0.63899
189.24039,0.63320
188.99932,0.62777
188.75825,0.62816
188.51718,0.63435
188.27610,0.63689
188.03503,0.62929
187.79396,0.61934
187.55289,0.61831
187.31182,0.62536
187.07075,0.62919
186.82968,0.62822
186.58861,0.63251
186.34754,0.64292
186.10647,0.64610
185.86540,0.63680
185.62433,0.62818
185.38326,0.62765
185.14219,0.62676
184.90112,0.62005
184.66005,0.61734
184.41898,0.62443
184.17791,0.63345
183.93683,0.63624
183.69576,0.63483
183.45469,0.63366
183.21362,0.63242
182.97255,0.63066
182.73148,0.63040
182.49041,0.63142
182.24934,0.63104
182.00827,0.62956
181.76720,0.62995
181.52613,0.63239
181.28506,0.63425
181.04399,0.63484
180.80292,0.63633
180.56185,0.64030
180.32078,0.64614
180.07971,0.65192
179.83864,0.65481
179.59756,0.65402
179.35649,0.65388
179.11542,0.65924
178.87435,0.66924
178.63328,0.68091
178.39221,0.69526
178.15114,0.71140
177.91007,0.72229
177.66900,0.72703
177.42793,0.73556
177.18686,0.75212
176.94579,0.76854
176.70472,0.77808
176.46365,0.78255
176.22258,0.78686
175.98151,0.79641
175.74044,0.81202
175.49937,0.82671
175.25829,0.83636
175.01722,0.84531
174.77615,0.85482
174.53508,0.86132
174.29401,0.86829
174.05294,0.88301
173.81187,0.90368
173.57080,0.92223
173.32973,0.93752
173.08866,0.95681
172.84759,0.98496
172.60652,1.01759
172.36545,1.04524
172.12438,1.06124
171.88331,1.05997
171.64224,1.04049
171.40117,1.01127
171.16010,0.97983
170.91902,0.95079
170.67795,0.92884
170.43688,0.91694
170.19581,0.91428
169.95474,0.91870
169.71367,0.92971
169.47260,0.94597
169.23153,0.96299
168.99046,0.97641
168.74939,0.98307
168.50832,0.98055
168.26725,0.97081
168.02618,0.95911
167.78511,0.94780
167.54404,0.93713
167.30297,0.92881
167.06190,0.92483
166.82083,0.92660
166.57975,0.93498
166.33868,0.94841
166.09761,0.96244
165.85654,0.97276
165.61547,0.97703
165.37440,0.97428
165.13333,0.96660
164.89226,0.95917
164.65119,0.95315
164.41012,0.94593
164.16905,0.94120
163.92798,0.94795
163.68691,0.96891
163.44584,0.99795
163.20477,1.02763
162.96370,1.05067
162.72263,1.05737
162.48156,1.04454
162.24048,1.02212
161.99941,1.00235
161.75834,0.99145
161.51727,0.99337
161.27620,1.01185
161.03513,1.04409
160.79406,1.07555
160.55299,1.08521
160.31192,1.06414
160.07085,1.02683
159.82978,0.99437
159.58871,0.97835
159.34764,0.98175
159.10657,1.00165
158.86550,1.02842
158.62443,1.04845
158.38336,1.05236
158.14229,1.04006
157.90121,1.01882
157.66014,0.99768
157.41907,0.98051
157.17800,0.96607
156.93693,0.95663
156.69586,0.96051
156.45479,0.98142
156.21372,1.00433
155.97265,1.00157
155.73158,0.96899
155.49051,0.92969
155.24944,0.90499
155.00837,0.90389
154.76730,0.91976
154.52623,0.93152
154.28516,0.91996
154.04409,0.88890
153.80302,0.85850
153.56194,0.84182
153.32087,0.83888
153.07980,0.84341
152.83873,0.84549
152.59766,0.83142
152.35659,0.79782
152.11552,0.76020
151.87445,0.73365
151.63338,0.72233
151.39231,0.72315
151.15124,0.72855
150.91017,0.72899
150.66910,0.71823
150.42803,0.69725
150.18696,0.67305
149.94589,0.65387
149.70482,0.64442
149.46375,0.64410
149.22267,0.64687
148.98160,0.64355
148.74053,0.63091
148.49946,0.61629
148.25839,0.60969
148.01732,0.61376
147.77625,0.62109
147.53518,0.62172
147.29411,0.61449
147.05304,0.60730
146.81197,0.60716
146.57090,0.61328
146.32983,0.61639
146.08876,0.60906
145.84769,0.59798
145.60662,0.59571
145.36555,0.60566
145.12448,0.61894
144.88340,0.62356
144.64233,0.61777
144.40126,0.61099
144.16019,0.61108
143.91912,0.61678
143.67805,0.62232
143.43698,0.62535
143.19591,0.62711
142.95484,0.62709
142.71377,0.62306
142.47270,0.61480
142.23163,0.60477
141.99056,0.59567
141.74949,0.58719
141.50842,0.57648
141.26735,0.56385
141.02628,0.55431
140.78521,0.55014
140.54413,0.54666
140.30306,0.54055
140.06199,0.53755
139.82092,0.54360
139.57985,0.55469
139.33878,0.56127
139.09771,0.56109
138.85664,0.55994
138.61557,0.56080
138.37450,0.56161
138.13343,0.56311
137.89236,0.57077
137.65129,0.58660
137.41022,0.60623
137.16915,0.62510
136.92808,0.64223
136.68701,0.65808
136.44594,0.67340
136.20486,0.68914
135.96379,0.70465
135.72272,0.71937
135.48165,0.73884
135.24058,0.77155
134.99951,0.81582
134.75844,0.85727
134.51737,0.88559
134.27630,0.90467
134.03523,0.92207
133.79416,0.94123
133.55309,0.96254
133.31202,0.98246
133.07095,0.99770
132.82988,1.01288
132.58881,1.03117
132.34774,1.04654
132.10667,1.05794
131.86559,1.07435
131.62452,1.09319
131.38345,1.10141
131.14238,1.09917
130.90131,1.09753
130.66024,1.10049
130.41917,1.10243
130.17810,1.09418
129.93703,1.07266
129.69596,1.04587
129.45489,1.02044
129.21382,0.99308
128.97275,0.95957
128.73168,0.92363
128.49061,0.89096
128.24954,0.86030
128.00847,0.82734
127.76740,0.79213
127.52632,0.75876
127.28525,0.73094
127.04418,0.70852
126.80311,0.68767
126.56204,0.66510
126.32097,0.64166
126.07990,0.62091
125.83883,0.60478
125.59776,0.59211
125.35669,0.58122
125.11562,0.57187
124.87455,0.56398
124.63348,0.55647
124.39241,0.54783
124.15134,0.53679
123.91027,0.52413
123.66920,0.51391
123.42812,0.51028
123.18705,0.51250
122.94598,0.51555
122.70491,0.51588
122.46384,0.51383
122.22277,0.51091
121.98170,0.50810
121.74063,0.50620
121.49956,0.50604
121.25849,0.50909
121.01742,0.51652
120.77635,0.52667
120.53528,0.53620
120.29421,0.54451
120.05314,0.55408
119.81207,0.56530
119.57100,0.57506
119.32993,0.58339
119.08885,0.59528
118.84778,0.61240
118.60671,0.63023
118.36564,0.64615
118.12457,0.66411
117.88350,0.68788
117.64243,0.71424
117.40136,0.73476
117.16029,0.74360
116.91922,0.74505
116.67815,0.75088
116.43708,0.76725
116.19601,0.78828
115.95494,0.80641
115.71387,0.82477
115.47280,0.85098
115.23173,0.87848
114.99066,0.88307
114.74958,0.85265
114.50851,0.80452
114.26744,0.75953
114.02637,0.72464
113.78530,0.69474
113.54423,0.66364
113.30316,0.63401
113.06209,0.61609
112.82102,0.61772
112.57995,0.63699
112.33888,0.66487
112.09781,0.69578
111.85674,0.73435
111.61567,0.78556
111.37460,0.83387
111.13353,0.84263
110.89246,0.80461
110.65139,0.75369
110.41031,0.71318
110.16924,0.68668
109.92817,0.67121
109.68710,0.66654
109.44603,0.67776
109.20496,0.70978
108.96389,0.75071
108.72282,0.75977
108.48175,0.71535
108.24068,0.65022
107.99961,0.59478
107.75854,0.55975
107.51747,0.54444
107.27640,0.54214
107.03533,0.54703
106.79426,0.55711
106.55319,0.56544
106.31212,0.55438
106.07104,0.51726
105.82997,0.47233
105.58890,0.43812
105.34783,0.42169
105.10676,0.42239
104.86569,0.43512
104.62462,0.45393
104.38355,0.46987
104.14248,0.46524
103.90141,0.43080
103.66034,0.38370
103.41927,0.34809
103.17820,0.33727
102.93713,0.34926
102.69606,0.36889
102.45499,0.37606
102.21392,0.36382
101.97285,0.34432
101.73177,0.32877
101.49070,0.32025
101.24963,0.32033
101.00856,0.32898
100.76749,0.33867
100.52642,0.33644
100.28535,0.31843
100.04428,0.29553
99.80321,0.28168
99.56214,0.28569
99.32107,0.30781
99.08000,0.33136
98.83893,0.32771
98.59786,0.29737
98.35679,0.27007
98.11572,0.26619
97.87465,0.28678
97.63358,0.31045
97.39250,0.30861
97.15143,0.28833
96.91036,0.27840
96.66929,0.29150
96.42822,0.31694
96.18715,0.32686
95.94608,0.31236
95.70501,0.30054
95.46394,0.31412
95.22287,0.34849
94.98180,0.37153
94.74073,0.36454
94.49966,0.35511
94.25859,0.36381
94.01752,0.37674
93.77645,0.37106
93.53538,0.35758
93.29431,0.35840
93.05323,0.36497
92.81216,0.35529
92.57109,0.34241
92.33002,0.35157
92.08895,0.37596
91.84788,0.38312
91.60681,0.36895
91.36574,0.36389
91.12467,0.37881
90.88360,0.39724
90.64253,0.40991
90.40146,0.42872
90.16039,0.45606
89.91932,0.48512
89.67825,0.52185
89.43718,0.56763
89.19611,0.60911
88.95504,0.64931
88.71396,0.69482
88.47289,0.72202
88.23182,0.72205
87.99075,0.71818
87.74968,0.70982
87.50861,0.68665
87.26754,0.65904
87.02647,0.63217
86.78540,0.59632
86.54433,0.55486
86.30326,0.52213
86.06219,0.49913
85.82112,0.47466
85.58005,0.44668
85.33898,0.42256
85.09791,0.40345
84.85684,0.38376
84.61577,0.36015
84.37469,0.33464
84.13362,0.31178
83.89255,0.29532
83.65148,0.28589
83.41041,0.28095
83.16934,0.27729
82.92827,0.27320
82.68720,0.26782
82.44613,0.25964
82.20506,0.24853
81.96399,0.23727
81.72292,0.22912
81.48185,0.22493
81.24078,0.22429
80.99971,0.22721
80.75864,0.23152
80.51757,0.23342
80.27650,0.23170
80.03542,0.22783
79.79435,0.22363
79.55328,0.22043
79.31221,0.21826
79.07114,0.21590
78.83007,0.21291
78.58900,0.21042
78.34793,0.20916
78.10686,0.20843
77.86579,0.20733
77.62472,0.20556
77.38365,0.20360
77.14258,0.20259
76.90151,0.20265
76.66044,0.20129
76.41937,0.19580
76.17830,0.18748
75.93723,0.18126
75.69615,0.18164
75.45508,0.18892
75.21401,0.19607
74.97294,0.19148
74.73187,0.17304
74.49080,0.15322
74.24973,0.14363
74.00866,0.14568
73.76759,0.15520
73.52652,0.16739
73.28545,0.17719
73.04438,0.18010
72.80331,0.17578
72.56224,0.17002
72.32117,0.17077
72.08010,0.18151
71.83903,0.19708
71.59796,0.20451
71.35688,0.19462
71.11581,0.17411
70.87474,0.15699
70.63367,0.15293
70.39260,0.16489
70.15153,0.19142
69.91046,0.23025
69.66939,0.27925
69.42832,0.33515
69.18725,0.39123
68.94618,0.42532
68.70511,0.40461
68.46404,0.34670
68.22297,0.28312
67.98190,0.22767
67.74083,0.18746
67.49976,0.16490
67.25869,0.15540
67.01761,0.14930
66.77654,0.13878
66.53547,0.12409
66.29440,0.11162
66.05333,0.10598
65.81226,0.10612
65.57119,0.10951
65.33012,0.11765
65.08905,0.13530
64.84798,0.16350
64.60691,0.19465
64.36584,0.21724
64.12477,0.22588
63.88370,0.22384
63.64263,0.21698
63.40156,0.21008
63.16049,0.20615
62.91942,0.20536
62.67834,0.20531
62.43727,0.20342
62.19620,0.19826
61.95513,0.18964
61.71406,0.17893
61.47299,0.16942
61.23192,0.16570
60.99085,0.17063
60.74978,0.18218
60.50871,0.19344
60.26764,0.19707
60.02657,0.19010
59.78550,0.17264
59.54443,0.14592
59.30336,0.11436
59.06229,0.08404
58.82122,0.05953
58.58015,0.04458
58.33907,0.04025
58.09800,0.04285
57.85693,0.04832
57.61586,0.05781
57.37479,0.07666
57.13372,0.10921
56.89265,0.15652
56.65158,0.22363
56.41051,0.30164
56.16944,0.29277
55.92837,0.20279
55.68730,0.12496
55.44623,0.07289
55.20516,0.04326
54.96409,0.03229
54.72302,0.03523
54.48195,0.05204
54.24088,0.08986
53.99980,0.16862
53.75873,0.29113
53.51766,0.29943
53.27659,0.16035
53.03552,0.05969
52.79445,0.00934
52.55338,-0.00671
52.31231,0.00702
52.07124,0.05189
51.83017,0.14610
51.58910,0.28606
51.34803,0.26031
51.10696,0.12089
50.86589,0.03483
50.62482,0.00115
50.38375,0.01215
50.14268,0.09126
49.90161,0.24531
49.66053,0.24953
49.41946,0.07125
49.17839,-0.02768
48.93732,-0.03473
48.69625,0.05282
48.45518,0.22542
48.21411,0.19614
47.97304,0.02155
47.73197,-0.05884
47.49090,-0.02944
47.24983,0.08710
47.00876,0.13358
46.76769,0.04865
46.52662,0.03126
46.28555,0.09779
46.04448,0.12300
45.80341,0.05856
45.56234,0.03854
45.32126,0.05571
45.08019,0.02507
44.83912,-0.00818
44.59805,0.02565
44.35698,0.08885
44.11591,0.08580
43.87484,0.04287
43.63377,0.01509
43.39270,0.00562
43.15163,0.01957
42.91056,0.04765
42.66949,0.04777
42.42842,0.01510
42.18735,0.00050
41.94628,0.02132
41.70521,0.04659
41.46414,0.05899
41.22307,0.06288
40.98199,0.05911
40.74092,0.05712
40.49985,0.06738
40.25878,0.08285
40.01771,0.08795
39.77664,0.07499
39.53557,0.05047
39.29450,0.02794
39.05343,0.01442
38.81236,0.01554
38.57129,0.04149
38.33022,0.09124
38.08915,0.13158
37.84808,0.12755
37.60701,0.09299
37.36594,0.06897
37.12487,0.08341
36.88380,0.11472
36.64272,0.11587
36.40165,0.09670
36.16058,0.09373
35.91951,0.10356
35.67844,0.10315
35.43737,0.08892
35.19630,0.07174
34.95523,0.05841
34.71416,0.05178
34.47309,0.05292
34.23202,0.05774
33.99095,0.05737
33.74988,0.04676
33.50881,0.02967
33.26774,0.01227
33.02667,0.00190
32.78560,0.00652
32.54453,0.02102
32.30345,0.03338
32.06238,0.03891
31.82131,0.03882
31.58024,0.03300
31.33917,0.02074
31.09810,0.00317
30.85703,-0.01502
30.61596,-0.02174
30.37489,-0.01484
30.13382,-0.01835
29.89275,-0.04886
29.65168,-0.09292
29.41061,-0.12923
29.16954,-0.15078
28.92847,-0.15864
28.68740,-0.14639
28.44633,-0.10066
28.20526,-0.03413
27.96418,0.00953
27.72311,-0.00821
27.48204,-0.08074
27.24097,-0.14350
26.99990,-0.15577
26.75883,-0.13777
26.51776,-0.12992
26.27669,-0.14776
26.03562,-0.16260
25.79455,-0.14208
25.55348,-0.09700
25.31241,-0.05342
25.07134,-0.02782
24.83027,-0.03667
24.58920,-0.08706
24.34813,-0.14952
24.10706,-0.16190
23.86599,-0.10695
23.62491,-0.05023
23.38384,-0.03320
23.14277,-0.05032
22.90170,-0.08851
22.66063,-0.12772
22.41956,-0.13691
22.17849,-0.11835
21.93742,-0.13268
21.69635,-0.21660
21.45528,-0.32877
21.21421,-0.38472
20.97314,-0.33936
20.73207,-0.23730
20.49100,-0.15551
20.24993,-0.13464
20.00886,-0.15878
19.76779,-0.17059
19.52672,-0.15141
19.28564,-0.13736
19.04457,-0.13625
18.80350,-0.14304
18.56243,-0.16005
18.32136,-0.16222
18.08029,-0.11664
17.83922,-0.05210
17.59815,-0.01378
17.35708,-0.00756
17.11601,-0.00897
16.87494,-0.00389
16.63387,-0.00526
16.39280,-0.02426
16.15173,-0.04385
15.91066,-0.04772
15.66959,-0.04729
15.42852,-0.06559
15.18745,-0.10021
14.94637,-0.12087
14.70530,-0.11551
14.46423,-0.09357
14.22316,-0.05091
13.98209,0.00544
13.74102,0.03530
13.49995,0.01121
13.25888,-0.03217
13.01781,-0.05011
12.77674,-0.04884
12.53567,-0.03764
12.29460,-0.00633
12.05353,0.03973
11.81246,0.07435
11.57139,0.07335
11.33032,0.03798
11.08925,-0.01189
10.84818,-0.04736
10.60710,-0.04902
10.36603,-0.03435
10.12496,-0.02816
9.88389,-0.03404
9.64282,-0.06158
9.40175,-0.10120
9.16068,-0.10958
8.91961,-0.07449
8.67854,-0.03760
8.43747,-0.04040
8.19640,-0.07951
7.95533,-0.10862
7.71426,-0.11159
7.47319,-0.10965
7.23212,-0.10910
6.99105,-0.10335
6.74998,-0.10407
6.50891,-0.11282
6.26783,-0.10559
6.02676,-0.07363
5.78569,-0.04065
5.54462,-0.01812
5.30355,-0.00861
5.06248,-0.02864
4.82141,-0.07567
4.58034,-0.13822
4.33927,-0.17544
4.09820,-0.14920
3.85713,-0.08389
3.61606,-0.01740
3.37499,0.02748
3.13392,0.03797
2.89285,0.00305
2.65178,-0.02668
2.41071,-0.01227
2.16964,0.03638
1.92856,0.08234
1.68749,0.08760
1.44642,0.05865
1.20535,0.02412
0.96428,0.00054
0.72321,-0.03264
0.48214,-0.11908
0.24107,-0.19278
-0.00000,0.06827
