399.69498,1.54825
399.45391,1.54554
399.21284,1.54393
398.97177,1.54633
398.73070,1.54920
398.48963,1.54764
398.24856,1.54360
398.00749,1.54146
397.76642,1.54220
397.52535,1.54315
397.28428,1.53958
397.04321,1.53101
396.80214,1.52559
396.56107,1.53039
396.32000,1.54128
396.07892,1.54717
395.83785,1.54274
395.59678,1.53313
395.35571,1.52665
395.11464,1.52669
394.87357,1.52761
394.63250,1.52126
394.39143,1.51120
394.15036,1.51069
393.90929,1.52353
393.66822,1.53497
393.42715,1.53007
393.18608,1.51466
392.94501,1.50484
392.70394,1.50926
392.46287,1.52519
392.22180,1.54169
391.98073,1.54822
391.73965,1.54065
391.49858,1.52535
391.25751,1.51837
391.01644,1.53052
390.77537,1.55357
390.53430,1.56459
390.29323,1.55213
390.05216,1.52925
389.81109,1.51177
389.57002,1.50249
389.32895,1.49846
389.08788,1.49978
388.84681,1.50484
388.60574,1.50316
388.36467,1.48693
388.12360,1.46690
387.88253,1.46112
387.64146,1.47717
387.40038,1.50529
387.15931,1.52197
386.91824,1.51427
386.67717,1.49226
386.43610,1.46779
386.19503,1.44718
385.95396,1.43447
385.71289,1.42838
385.47182,1.42580
385.23075,1.42738
384.98968,1.43187
384.74861,1.43408
384.50754,1.42939
384.26647,1.41299
384.02540,1.39008
383.78433,1.37192
383.54326,1.35744
383.30219,1.34078
383.06111,1.32255
382.82004,1.30735
382.57897,1.29807
382.33790,1.29522
382.09683,1.29781
381.85576,1.30075
381.61469,1.29674
381.37362,1.28870
381.13255,1.29058
380.89148,1.30685
380.65041,1.32119
380.40934,1.31783
380.16827,1.30398
379.92720,1.29374
379.68613,1.28974
379.44506,1.28965
379.20399,1.29124
378.96292,1.28874
378.72184,1.27856
378.48077,1.26761
378.23970,1.26565
377.99863,1.27299
377.75756,1.28305
377.51649,1.29257
377.27542,1.30273
377.03435,1.31369
376.79328,1.32407
376.55221,1.33260
376.31114,1.33763
376.07007,1.33950
375.82900,1.34252
375.58793,1.35325
375.34686,1.37578
375.10579,1.40392
374.86472,1.42071
374.62365,1.41739
374.38257,1.40840
374.14150,1.41274
373.90043,1.43147
373.65936,1.44980
373.41829,1.45232
373.17722,1.43790
372.93615,1.42058
372.69508,1.41294
372.45401,1.41550
372.21294,1.42352
371.97187,1.43239
371.73080,1.43602
371.48973,1.42777
371.24866,1.40826
371.00759,1.38686
370.76652,1.37065
370.52545,1.35925
370.28437,1.35134
370.04330,1.34983
369.80223,1.35743
369.56116,1.36902
369.32009,1.37349
369.07902,1.36733
368.83795,1.35949
368.59688,1.35830
368.35581,1.36145
368.11474,1.36096
367.87367,1.35354
367.63260,1.34365
367.39153,1.33765
367.15046,1.33786
366.90939,1.34072
366.66832,1.33999
366.42725,1.33312
366.18618,1.32406
365.94510,1.31845
365.70403,1.31763
365.46296,1.31929
365.22189,1.32133
364.98082,1.32229
364.73975,1.32031
364.49868,1.31566
364.25761,1.31023
364.01654,1.30479
363.77547,1.30170
363.53440,1.30455
363.29333,1.31238
363.05226,1.31807
362.81119,1.31509
362.57012,1.30431
362.32905,1.29116
362.08798,1.27977
361.84691,1.27244
361.60583,1.27111
361.36476,1.27563
361.12369,1.28198
360.88262,1.28585
360.64155,1.28606
360.40048,1.28213
360.15941,1.27430
359.91834,1.26705
359.67727,1.26514
359.43620,1.26663
359.19513,1.26650
358.95406,1.26354
358.71299,1.25813
358.47192,1.25061
358.23085,1.24528
357.98978,1.24674
357.74871,1.25300
357.50764,1.25912
357.26656,1.26348
357.02549,1.26467
356.78442,1.26026
356.54335,1.25381
356.30228,1.25324
356.06121,1.25860
355.82014,1.26104
355.57907,1.25624
355.33800,1.24944
355.09693,1.24677
354.85586,1.24983
354.61479,1.25686
354.37372,1.26441
354.13265,1.26954
353.89158,1.27224
353.65051,1.27405
353.40944,1.27480
353.16837,1.27382
352.92729,1.27108
352.68622,1.26575
352.44515,1.25752
352.20408,1.24920
351.96301,1.24489
351.72194,1.24516
351.48087,1.24664
351.23980,1.24556
350.99873,1.24109
350.75766,1.23717
350.51659,1.23977
350.27552,1.24971
350.03445,1.26007
349.79338,1.26370
349.55231,1.26091
349.31124,1.25656
349.07017,1.25325
348.82910,1.25107
348.58802,1.25055
348.34695,1.25219
348.10588,1.25456
347.86481,1.25582
347.62374,1.25749
347.38267,1.26249
347.14160,1.26868
346.90053,1.27050
346.65946,1.26775
346.41839,1.26653
346.17732,1.27066
345.93625,1.27645
345.69518,1.27832
345.45411,1.27691
345.21304,1.27856
344.97197,1.28851
344.73090,1.30568
344.48983,1.32186
344.24875,1.32792
344.00768,1.32279
343.76661,1.31424
343.52554,1.31025
343.28447,1.31236
343.04340,1.31672
342.80233,1.31965
342.56126,1.32250
342.32019,1.32858
342.07912,1.33534
341.83805,1.33648
341.59698,1.33334
341.35591,1.33498
341.11484,1.34479
340.87377,1.35581
340.63270,1.36181
340.39163,1.36412
340.15056,1.36523
339.90948,1.36591
339.66841,1.36830
339.42734,1.37513
339.18627,1.38901
338.94520,1.40972
338.70413,1.42610
338.46306,1.42394
338.22199,1.40517
337.98092,1.38781
337.73985,1.38841
337.49878,1.40852
337.25771,1.43566
337.01664,1.45138
336.77557,1.44614
336.53450,1.42933
336.29343,1.41507
336.05236,1.40542
335.81129,1.39341
335.57021,1.37744
335.32914,1.36425
335.08807,1.35929
334.84700,1.36185
334.60593,1.36770
334.36486,1.37216
334.12379,1.37339
333.88272,1.37414
333.64165,1.37681
333.40058,1.37833
333.15951,1.37341
332.91844,1.36339
332.67737,1.35535
332.43630,1.35190
332.19523,1.34719
331.95416,1.33449
331.71309,1.31845
331.47202,1.30958
331.23094,1.30958
330.98987,1.31346
330.74880,1.31802
330.50773,1.32263
330.26666,1.32510
330.02559,1.32088
329.78452,1.30995
329.54345,1.30069
329.30238,1.29972
329.06131,1.30244
328.82024,1.29962
328.57917,1.29150
328.33810,1.28649
328.09703,1.28720
327.85596,1.28861
327.61489,1.29010
327.37382,1.29510
327.13275,1.30092
326.89167,1.30207
326.65060,1.29941
326.40953,1.29681
326.16846,1.29440
325.92739,1.29173
325.68632,1.29275
325.44525,1.30079
325.20418,1.31016
324.96311,1.31048
324.72204,1.30075
324.48097,1.29011
324.23990,1.28540
323.99883,1.28675
323.75776,1.29103
323.51669,1.29683
323.27562,1.30467
323.03455,1.31398
322.79348,1.32274
322.55240,1.32872
322.31133,1.33089
322.07026,1.33003
321.82919,1.32772
321.58812,1.32546
321.34705,1.32410
321.10598,1.32469
320.86491,1.32695
320.62384,1.32889
320.38277,1.33085
320.14170,1.33603
319.90063,1.34539
319.65956,1.35483
319.41849,1.36042
319.17742,1.36171
318.93635,1.35796
318.69528,1.34749
318.45421,1.33321
318.21313,1.32346
317.97206,1.32468
317.73099,1.33562
317.48992,1.34697
317.24885,1.34640
317.00778,1.33151
316.76671,1.31283
316.52564,1.30016
316.28457,1.29731
316.04350,1.30489
315.80243,1.32064
315.56136,1.33666
315.32029,1.34211
315.07922,1.33552
314.83815,1.32728
314.59708,1.32497
314.35601,1.32822
314.11494,1.33723
313.87386,1.35329
313.63279,1.36902
313.39172,1.37348
313.15065,1.36880
312.90958,1.36340
312.66851,1.35880
312.42744,1.35347
312.18637,1.35069
311.94530,1.35507
311.70423,1.36463
311.46316,1.37455
311.22209,1.38625
310.98102,1.40024
310.73995,1.40967
310.49888,1.40893
310.25781,1.39963
310.01674,1.38845
309.77567,1.38475
309.53459,1.39331
309.29352,1.40540
309.05245,1.40686
308.81138,1.39710
308.57031,1.38699
308.32924,1.38352
308.08817,1.38819
307.84710,1.40198
307.60603,1.42063
307.36496,1.43250
307.12389,1.42984
306.88282,1.41611
306.64175,1.39949
306.40068,1.38518
306.15961,1.37721
305.91854,1.37801
305.67747,1.38530
305.43640,1.39574
305.19532,1.40587
304.95425,1.41084
304.71318,1.40927
304.47211,1.40408
304.23104,1.39888
303.98997,1.39625
303.74890,1.39427
303.50783,1.38518
303.26676,1.36508
303.02569,1.34387
302.78462,1.33615
302.54355,1.34231
302.30248,1.34873
302.06141,1.34687
301.82034,1.33928
301.57927,1.32760
301.33820,1.31026
301.09713,1.29149
300.85605,1.27951
300.61498,1.27585
300.37391,1.27544
300.13284,1.27604
299.89177,1.27968
299.65070,1.28445
299.40963,1.28309
299.16856,1.27236
298.92749,1.25842
298.68642,1.25047
298.44535,1.25184
298.20428,1.25845
297.96321,1.26392
297.72214,1.26377
297.48107,1.25721
297.24000,1.24834
296.99893,1.24378
296.75786,1.24633
296.51678,1.25030
296.27571,1.24646
296.03464,1.23325
295.79357,1.21909
295.55250,1.21137
295.31143,1.20872
295.07036,1.20582
294.82929,1.20083
294.58822,1.19575
294.34715,1.19328
294.10608,1.19457
293.86501,1.19816
293.62394,1.20076
293.38287,1.20075
293.14180,1.19866
292.90073,1.19397
292.65966,1.18526
292.41859,1.17468
292.17751,1.16786
291.93644,1.16808
291.69537,1.17270
291.45430,1.17547
291.21323,1.17246
290.97216,1.16608
290.73109,1.16172
290.49002,1.16055
290.24895,1.15811
290.00788,1.15058
289.76681,1.13994
289.52574,1.13158
289.28467,1.12835
289.04360,1.12936
288.80253,1.13281
288.56146,1.13806
288.32039,1.14409
288.07932,1.14735
287.83824,1.14524
287.59717,1.14078
287.35610,1.13839
287.11503,1.13717
286.87396,1.13332
286.63289,1.12715
286.39182,1.12187
286.15075,1.11848
285.90968,1.11685
285.66861,1.11839
285.42754,1.12382
285.18647,1.13004
284.94540,1.13269
284.70433,1.13118
284.46326,1.12791
284.22219,1.12423
283.98112,1.12107
283.74005,1.12081
283.49897,1.12386
283.25790,1.12613
283.01683,1.12403
282.77576,1.11921
282.53469,1.11539
282.29362,1.11326
282.05255,1.11083
281.81148,1.10726
281.57041,1.10465
281.32934,1.10565
281.08827,1.11011
280.84720,1.11525
280.60613,1.11953
280.36506,1.12383
280.12399,1.12794
279.88292,1.12969
279.64185,1.12913
279.40078,1.12851
279.15970,1.12749
278.91863,1.12323
278.67756,1.11661
278.43649,1.11287
278.19542,1.11447
277.95435,1.11769
277.71328,1.11849
277.47221,1.11752
277.23114,1.11701
276.99007,1.11697
276.74900,1.11669
276.50793,1.11682
276.26686,1.11775
276.02579,1.11759
275.78472,1.11459
275.54365,1.11145
275.30258,1.11386
275.06151,1.12262
274.82043,1.13039
274.57936,1.12988
274.33829,1.12281
274.09722,1.11597
273.85615,1.11314
273.61508,1.11469
273.37401,1.11988
273.13294,1.12578
272.89187,1.12815
272.65080,1.12613
272.40973,1.12349
272.16866,1.12392
271.92759,1.12752
271.68652,1.13209
271.44545,1.13634
271.20438,1.14081
270.96331,1.14599
270.72224,1.15058
270.48116,1.15333
270.24009,1.15516
269.99902,1.15798
269.75795,1.16190
269.51688,1.16498
269.27581,1.16647
269.03474,1.16855
268.79367,1.17362
268.55260,1.18072
268.31153,1.18641
268.07046,1.18916
267.82939,1.19116
267.58832,1.19460
267.34725,1.19846
267.10618,1.20182
266.86511,1.20729
266.62404,1.21738
266.38297,1.22946
266.14189,1.23756
265.90082,1.23898
265.65975,1.23682
265.41868,1.23575
265.17761,1.23864
264.93654,1.24724
264.69547,1.26162
264.45440,1.27719
264.21333,1.28721
263.97226,1.29171
263.73119,1.29850
263.49012,1.31394
263.24905,1.33850
263.00798,1.36792
262.76691,1.39260
262.52584,1.40369
262.28477,1.40512
262.04370,1.40912
261.80262,1.42067
261.56155,1.43491
261.32048,1.44662
261.07941,1.45650
260.83834,1.46938
260.59727,1.48978
260.35620,1.51649
260.11513,1.54185
259.87406,1.56050
259.63299,1.57471
259.39192,1.58912
259.15085,1.60490
258.90978,1.62314
258.66871,1.65223
258.42764,1.70055
258.18657,1.75933
257.94550,1.79869
257.70443,1.80162
257.46335,1.78564
257.22228,1.77786
256.98121,1.79143
256.74014,1.82479
256.49907,1.86994
256.25800,1.90779
256.01693,1.91106
255.77586,1.87806
255.53479,1.84144
255.29372,1.82314
255.05265,1.81133
254.81158,1.78919
254.57051,1.76145
254.32944,1.74040
254.08837,1.72922
253.84730,1.72158
253.60623,1.70945
253.36516,1.69207
253.12408,1.67848
252.88301,1.67887
252.64194,1.69141
252.40087,1.69979
252.15980,1.69104
251.91873,1.67005
251.67766,1.64649
251.43659,1.62504
251.19552,1.60999
250.95445,1.60375
250.71338,1.60141
250.47231,1.59653
250.23124,1.59226
249.99017,1.59486
249.74910,1.60038
249.50803,1.59807
249.26696,1.58548
249.02589,1.57360
248.78481,1.57458
248.54374,1.58986
248.30267,1.61183
248.06160,1.62964
247.82053,1.63330
247.57946,1.62177
247.33839,1.60394
247.09732,1.58945
246.85625,1.58345
246.61518,1.58874
246.37411,1.60594
246.13304,1.62788
245.89197,1.64359
245.65090,1.65383
245.40983,1.67052
245.16876,1.69626
244.92769,1.71800
244.68661,1.72960
244.44554,1.74751
244.20447,1.78884
243.96340,1.84656
243.72233,1.89812
243.48126,1.93570
243.24019,1.97551
242.99912,2.02422
242.75805,2.02235
242.51698,1.91739
242.27591,1.79168
242.03484,1.69150
241.79377,1.62090
241.55270,1.56325
241.31163,1.50406
241.07056,1.44595
240.82949,1.39923
240.58842,1.36816
240.34734,1.34783
240.10627,1.32635
239.86520,1.29281
239.62413,1.24939
239.38306,1.20863
239.14199,1.17780
238.90092,1.15360
238.65985,1.13121
238.41878,1.11130
238.17771,1.09597
237.93664,1.08303
237.69557,1.06820
237.45450,1.05058
237.21343,1.03276
236.97236,1.01713
236.73129,1.00491
236.49022,0.99685
236.24915,0.99226
236.00807,0.98798
235.76700,0.98062
235.52593,0.96996
235.28486,0.95872
235.04379,0.94924
234.80272,0.94162
234.56165,0.93463
234.32058,0.92701
234.07951,0.91868
233.83844,0.91190
233.59737,0.90972
233.35630,0.91137
233.11523,0.91124
232.87416,0.90575
232.63309,0.89791
232.39202,0.89234
232.15095,0.88976
231.90988,0.88800
231.66880,0.88554
231.42773,0.88243
231.18666,0.87916
230.94559,0.87595
230.70452,0.87296
230.46345,0.86979
230.22238,0.86573
229.98131,0.86163
229.74024,0.85949
229.49917,0.85898
229.25810,0.85746
229.01703,0.85452
228.77596,0.85266
228.53489,0.85270
228.29382,0.85212
228.05275,0.84844
227.81168,0.84205
227.57061,0.83543
227.32953,0.83059
227.08846,0.82777
226.84739,0.82621
226.60632,0.82517
226.36525,0.82431
226.12418,0.82410
225.88311,0.82522
225.64204,0.82721
225.40097,0.82904
225.15990,0.83095
224.91883,0.83322
224.67776,0.83431
224.43669,0.83327
224.19562,0.83208
223.95455,0.83268
223.71348,0.83383
223.47241,0.83329
223.23134,0.83122
222.99026,0.82971
222.74919,0.83087
222.50812,0.83575
222.26705,0.84303
222.02598,0.84964
221.78491,0.85411
221.54384,0.85796
221.30277,0.86269
221.06170,0.86831
220.82063,0.87533
220.57956,0.88408
220.33849,0.89232
220.09742,0.89773
219.85635,0.90183
219.61528,0.90826
219.37421,0.91867
219.13314,0.93163
218.89207,0.94381
218.65099,0.95245
218.40992,0.95788
218.16885,0.96292
217.92778,0.96982
217.68671,0.97866
217.44564,0.98802
217.20457,0.99689
216.96350,1.00581
216.72243,1.01606
216.48136,1.02857
216.24029,1.04357
215.99922,1.05946
215.75815,1.07377
215.51708,1.08664
215.27601,1.09944
215.03494,1.11003
214.79387,1.11652
214.55280,1.12333
214.31172,1.13537
214.07065,1.14927
213.82958,1.15851
213.58851,1.16417
213.34744,1.17254
213.10637,1.18448
212.86530,1.19333
212.62423,1.19362
212.38316,1.18905
212.14209,1.18873
211.90102,1.19713
211.65995,1.21055
211.41888,1.22242
211.17781,1.22961
210.93674,1.23239
210.69567,1.23079
210.45460,1.22481
210.21353,1.21686
209.97245,1.21069
209.73138,1.20852
209.49031,1.20977
209.24924,1.21201
209.00817,1.21168
208.76710,1.20476
208.52603,1.19112
208.28496,1.17765
208.04389,1.17164
207.80282,1.17256
207.56175,1.17310
207.32068,1.16726
207.07961,1.15585
206.83854,1.14373
206.59747,1.13370
206.35640,1.12487
206.11533,1.11604
205.87426,1.10808
205.63318,1.10168
205.39211,1.09526
205.15104,1.08708
204.90997,1.07630
204.66890,1.06138
204.42783,1.04182
204.18676,1.02153
203.94569,1.00600
203.70462,0.99712
203.46355,0.99307
203.22248,0.99030
202.98141,0.98454
202.74034,0.97281
202.49927,0.95604
202.25820,0.93821
202.01713,0.92216
201.77606,0.90840
201.53499,0.89721
201.29391,0.88850
201.05284,0.88029
200.81177,0.86956
200.57070,0.85530
200.32963,0.83991
200.08856,0.82723
199.84749,0.81913
199.60642,0.81423
199.36535,0.80938
199.12428,0.80221
198.88321,0.79245
198.64214,0.78166
198.40107,0.77183
198.16000,0.76379
197.91893,0.75671
197.67786,0.74912
197.43679,0.74028
197.19572,0.73030
196.95464,0.71999
196.71357,0.71092
196.47250,0.70440
196.23143,0.70004
195.99036,0.69555
195.74929,0.68861
195.50822,0.67909
195.26715,0.66909
195.02608,0.66102
194.78501,0.65590
194.54394,0.65218
194.30287,0.64689
194.06180,0.63949
193.82073,0.63334
193.57966,0.63154
193.33859,0.63244
193.09752,0.63122
192.85645,0.62594
192.61537,0.61975
192.37430,0.61615
192.13323,0.61471
191.89216,0.61229
191.65109,0.60737
191.41002,0.60163
191.16895,0.59734
190.92788,0.59462
190.68681,0.59160
190.44574,0.58709
190.20467,0.58280
189.96360,0.58147
189.72253,0.58283
189.48146,0.58353
189.24039,0.58148
188.99932,0.57805
188.75825,0.57531
188.51718,0.57328
188.27610,0.57119
188.03503,0.56936
187.79396,0.56850
187.55289,0.56790
187.31182,0.56605
187.07075,0.56304
186.82968,0.56071
186.58861,0.56011
186.34754,0.56014
186.10647,0.55969
185.86540,0.55965
185.62433,0.56112
185.38326,0.56293
185.14219,0.56329
184.90112,0.56276
184.66005,0.56289
184.41898,0.56313
184.17791,0.56257
183.93683,0.56275
183.69576,0.56528
183.45469,0.56846
183.21362,0.56935
182.97255,0.56827
182.73148,0.56796
182.49041,0.56939
182.24934,0.57125
182.00827,0.57295
181.76720,0.57550
181.52613,0.57913
181.28506,0.58223
181.04399,0.58331
180.80292,0.58267
180.56185,0.58190
180.32078,0.58278
180.07971,0.58604
179.83864,0.59062
179.59756,0.59448
179.35649,0.59671
179.11542,0.59832
178.87435,0.60091
178.63328,0.60579
178.39221,0.61396
178.15114,0.62503
177.91007,0.63655
177.66900,0.64658
177.42793,0.65612
177.18686,0.66682
176.94579,0.67884
176.70472,0.69264
176.46365,0.70921
176.22258,0.72679
175.98151,0.74126
175.74044,0.75121
175.49937,0.75944
175.25829,0.76971
175.01722,0.78412
174.77615,0.80255
174.53508,0.82334
174.29401,0.84463
174.05294,0.86483
173.81187,0.88253
173.57080,0.89737
173.32973,0.91007
173.08866,0.92110
172.84759,0.93050
172.60652,0.93843
172.36545,0.94493
172.12438,0.94956
171.88331,0.95157
171.64224,0.95037
171.40117,0.94671
171.16010,0.94220
170.91902,0.93700
170.67795,0.93047
170.43688,0.92346
170.19581,0.91744
169.95474,0.91264
169.71367,0.90842
169.47260,0.90403
169.23153,0.89922
168.99046,0.89535
168.74939,0.89429
168.50832,0.89538
168.26725,0.89557
168.02618,0.89301
167.78511,0.88887
167.54404,0.88507
167.30297,0.88203
167.06190,0.87903
166.82083,0.87643
166.57975,0.87584
166.33868,0.87824
166.09761,0.88352
165.85654,0.89154
165.61547,0.90173
165.37440,0.91200
165.13333,0.91993
164.89226,0.92481
164.65119,0.92800
164.41012,0.93144
164.16905,0.93634
163.92798,0.94315
163.68691,0.95171
163.44584,0.96129
163.20477,0.97117
162.96370,0.98107
162.72263,0.99044
162.48156,0.99819
162.24048,1.00387
161.99941,1.00723
161.75834,1.00684
161.51727,1.00173
161.27620,0.99420
161.03513,0.98882
160.79406,0.98877
160.55299,0.99353
160.31192,0.99909
160.07085,1.00090
159.82978,0.99719
159.58871,0.98977
159.34764,0.98221
159.10657,0.97737
158.86550,0.97511
158.62443,0.97277
158.38336,0.96850
158.14229,0.96271
157.90121,0.95588
157.66014,0.94729
157.41907,0.93712
157.17800,0.92764
156.93693,0.92097
156.69586,0.91715
156.45479,0.91474
156.21372,0.91202
155.97265,0.90783
155.73158,0.90269
155.49051,0.89787
155.24944,0.89228
155.00837,0.88271
154.76730,0.86875
154.52623,0.85433
154.28516,0.84312
154.04409,0.83507
153.80302,0.82757
153.56194,0.81788
153.32087,0.80475
153.07980,0.78891
152.83873,0.77208
152.59766,0.75568
152.35659,0.74072
152.11552,0.72779
151.87445,0.71651
151.63338,0.70528
151.39231,0.69244
151.15124,0.67795
150.91017,0.66360
150.66910,0.65106
150.42803,0.64044
150.18696,0.63078
149.94589,0.62115
149.70482,0.61101
149.46375,0.60010
149.22267,0.58866
148.98160,0.57793
148.74053,0.56984
148.49946,0.56532
148.25839,0.56294
148.01732,0.56045
147.77625,0.55713
147.53518,0.55388
147.29411,0.55138
147.05304,0.54985
146.81197,0.54957
146.57090,0.55030
146.32983,0.55109
146.08876,0.55215
145.84769,0.55567
145.60662,0.56263
145.36555,0.57005
145.12448,0.57418
144.88340,0.57569
144.64233,0.57835
144.40126,0.58382
144.16019,0.59008
143.91912,0.59402
143.67805,0.59393
143.43698,0.59031
143.19591,0.58488
142.95484,0.57847
142.71377,0.57050
142.47270,0.56078
142.23163,0.55086
141.99056,0.54284
141.74949,0.53690
141.50842,0.53133
141.26735,0.52510
141.02628,0.51915
140.78521,0.51455
140.54413,0.51112
140.30306,0.50835
140.06199,0.50628
139.82092,0.50510
139.57985,0.50529
139.33878,0.50785
139.09771,0.51298
138.85664,0.51914
138.61557,0.52482
138.37450,0.53033
138.13343,0.53691
137.89236,0.54528
137.65129,0.55571
137.41022,0.56814
137.16915,0.58162
136.92808,0.59488
136.68701,0.60786
136.44594,0.62206
136.20486,0.63917
135.96379,0.65962
135.72272,0.68210
135.48165,0.70504
135.24058,0.72861
134.99951,0.75458
134.75844,0.78403
134.51737,0.81607
134.27630,0.84827
134.03523,0.87837
133.79416,0.90630
133.55309,0.93415
133.31202,0.96270
133.07095,0.99015
132.82988,1.01539
132.58881,1.03924
132.34774,1.06171
132.10667,1.08180
131.86559,1.09907
131.62452,1.11270
131.38345,1.12129
131.14238,1.12434
130.90131,1.12103
130.66024,1.10937
130.41917,1.08972
130.17810,1.06562
129.93703,1.04034
129.69596,1.01504
129.45489,0.98817
129.21382,0.95637
128.97275,0.91880
128.73168,0.88008
128.49061,0.84605
128.24954,0.81804
128.00847,0.79291
127.76740,0.76742
127.52632,0.74076
127.28525,0.71351
127.04418,0.68687
126.80311,0.66308
126.56204,0.64362
126.32097,0.62692
126.07990,0.61028
125.83883,0.59368
125.59776,0.57888
125.35669,0.56605
125.11562,0.55393
124.87455,0.54212
124.63348,0.53071
124.39241,0.51906
124.15134,0.50686
123.91027,0.49501
123.66920,0.48466
123.42812,0.47625
123.18705,0.46965
122.94598,0.46433
122.70491,0.45994
122.46384,0.45704
122.22277,0.45623
121.98170,0.45654
121.74063,0.45616
121.49956,0.45501
121.25849,0.45503
121.01742,0.45769
120.77635,0.46266
120.53528,0.46900
120.29421,0.47656
120.05314,0.48613
119.81207,0.49859
119.57100,0.51430
119.32993,0.53318
119.08885,0.55498
118.84778,0.57923
118.60671,0.60497
118.36564,0.63099
118.12457,0.65679
117.88350,0.68282
117.64243,0.70899
117.40136,0.73296
117.16029,0.75134
116.91922,0.76365
116.67815,0.77290
116.43708,0.78089
116.19601,0.78490
115.95494,0.78056
115.71387,0.76701
115.47280,0.74794
115.23173,0.72891
114.99066,0.71407
114.74958,0.70427
114.50851,0.69765
114.26744,0.69187
114.02637,0.68593
113.78530,0.68068
113.54423,0.67779
113.30316,0.67732
113.06209,0.67665
112.82102,0.67351
112.57995,0.66881
112.33888,0.66475
112.09781,0.66138
111.85674,0.65789
111.61567,0.65656
111.37460,0.66189
111.13353,0.67535
110.89246,0.69265
110.65139,0.70695
110.41031,0.71359
110.16924,0.71215
109.92817,0.70523
109.68710,0.69476
109.44603,0.67950
109.20496,0.65787
108.96389,0.63249
108.72282,0.60921
108.48175,0.59212
108.24068,0.58109
107.99961,0.57328
107.75854,0.56555
107.51747,0.55524
107.27640,0.54065
107.03533,0.52193
106.79426,0.50090
106.55319,0.48023
106.31212,0.46271
106.07104,0.45017
105.82997,0.44217
105.58890,0.43625
105.34783,0.42950
105.10676,0.41994
104.86569,0.40747
104.62462,0.39406
104.38355,0.38211
104.14248,0.37275
103.90141,0.36584
103.66034,0.36081
103.41927,0.35658
103.17820,0.35150
102.93713,0.34425
102.69606,0.33487
102.45499,0.32485
102.21392,0.31635
101.97285,0.31133
101.73177,0.31033
101.49070,0.31143
101.24963,0.31110
101.00856,0.30723
100.76749,0.30086
100.52642,0.29428
100.28535,0.28911
100.04428,0.28622
99.80321,0.28571
99.56214,0.28624
99.32107,0.28530
99.08000,0.28091
98.83893,0.27399
98.59786,0.26849
98.35679,0.26837
98.11572,0.27384
97.87465,0.28023
97.63358,0.28165
97.39250,0.27727
97.15143,0.27246
96.91036,0.27303
96.66929,0.27977
96.42822,0.28729
96.18715,0.28973
95.94608,0.28890
95.70501,0.29246
95.46394,0.30360
95.22287,0.31591
94.98180,0.32079
94.74073,0.31907
94.49966,0.31872
94.25859,0.32286
94.01752,0.32695
93.77645,0.32725
93.53538,0.32632
93.29431,0.32733
93.05323,0.32887
92.81216,0.32858
92.57109,0.32824
92.33002,0.33040
92.08895,0.33311
91.84788,0.33341
91.60681,0.33362
91.36574,0.33822
91.12467,0.34687
90.88360,0.35664
90.64253,0.37024
90.40146,0.39348
90.16039,0.42537
89.91932,0.46022
89.67825,0.49775
89.43718,0.54046
89.19611,0.58506
88.95504,0.62762
88.71396,0.66831
88.47289,0.70143
88.23182,0.71496
87.99075,0.70651
87.74968,0.68277
87.50861,0.64963
87.26754,0.61272
87.02647,0.57632
86.78540,0.54092
86.54433,0.50691
86.30326,0.47630
86.06219,0.44928
85.82112,0.42389
85.58005,0.39899
85.33898,0.37492
85.09791,0.35275
84.85684,0.33370
84.61577,0.31831
84.37469,0.30574
84.13362,0.29448
83.89255,0.28345
83.65148,0.27287
83.41041,0.26390
83.16934,0.25668
82.92827,0.24976
82.68720,0.24242
82.44613,0.23593
82.20506,0.23167
81.96399,0.22906
81.72292,0.22628
81.48185,0.22236
81.24078,0.21780
80.99971,0.21337
80.75864,0.20911
80.51757,0.20509
80.27650,0.20197
80.03542,0.20024
79.79435,0.19962
79.55328,0.19958
79.31221,0.19948
79.07114,0.19821
78.83007,0.19530
78.58900,0.19215
78.34793,0.19050
78.10686,0.19020
77.86579,0.18985
77.62472,0.18879
77.38365,0.18709
77.14258,0.18507
76.90151,0.18371
76.66044,0.18383
76.41937,0.18442
76.17830,0.18350
75.93723,0.18065
75.69615,0.17696
75.45508,0.17306
75.21401,0.16884
74.97294,0.16465
74.73187,0.16164
74.49080,0.16099
74.24973,0.16352
74.00866,0.16906
73.76759,0.17542
73.52652,0.17872
73.28545,0.17644
73.04438,0.17026
72.80331,0.16440
72.56224,0.16174
72.32117,0.16242
72.08010,0.16534
71.83903,0.16965
71.59796,0.17433
71.35688,0.17749
71.11581,0.17790
70.87474,0.17661
70.63367,0.17567
70.39260,0.17626
70.15153,0.17934
69.91046,0.18666
69.66939,0.19970
69.42832,0.21752
69.18725,0.23582
68.94618,0.24841
68.70511,0.25095
68.46404,0.24360
68.22297,0.22969
67.98190,0.21282
67.74083,0.19596
67.49976,0.18150
67.25869,0.17068
67.01761,0.16300
66.77654,0.15689
66.53547,0.15151
66.29440,0.14772
66.05333,0.14684
65.81226,0.14917
65.57119,0.15402
65.33012,0.16071
65.08905,0.16889
64.84798,0.17836
64.60691,0.18872
64.36584,0.19903
64.12477,0.20794
63.88370,0.21402
63.64263,0.21623
63.40156,0.21412
63.16049,0.20799
62.91942,0.19887
62.67834,0.18814
62.43727,0.17709
62.19620,0.16701
61.95513,0.15900
61.71406,0.15283
61.47299,0.14661
61.23192,0.13843
60.99085,0.12880
60.74978,0.12099
60.50871,0.11826
60.26764,0.12069
60.02657,0.12516
59.78550,0.12869
59.54443,0.13129
59.30336,0.13505
59.06229,0.14073
58.82122,0.14679
58.58015,0.15171
58.33907,0.15580
58.09800,0.16032
57.85693,0.16622
57.61586,0.17335
57.37479,0.17871
57.13372,0.17681
56.89265,0.16527
56.65158,0.14808
56.41051,0.13093
56.16944,0.11680
55.92837,0.10695
55.68730,0.10299
55.44623,0.10685
55.20516,0.11937
54.96409,0.13931
54.72302,0.16320
54.48195,0.18455
54.24088,0.19412
53.99980,0.18663
53.75873,0.16712
53.51766,0.14541
53.27659,0.12933
53.03552,0.12376
52.79445,0.13066
52.55338,0.14880
52.31231,0.17345
52.07124,0.19459
51.83017,0.19884
51.58910,0.18307
51.34803,0.15883
51.10696,0.13850
50.86589,0.13038
50.62482,0.13988
50.38375,0.16639
50.14268,0.19579
49.90161,0.19910
49.66053,0.16557
49.41946,0.12473
49.17839,0.10633
48.93732,0.12321
48.69625,0.17003
48.45518,0.20266
48.21411,0.17604
47.97304,0.13522
47.73197,0.12608
47.49090,0.15115
47.24983,0.17436
47.00876,0.15340
46.76769,0.11800
46.52662,0.10874
46.28555,0.11940
46.04448,0.12215
45.80341,0.11630
45.56234,0.12203
45.32126,0.13476
45.08019,0.13418
44.83912,0.12853
44.59805,0.13472
44.35698,0.14142
44.11591,0.13518
43.87484,0.12766
43.63377,0.12696
43.39270,0.12663
43.15163,0.12738
42.91056,0.13569
42.66949,0.14659
42.42842,0.15277
42.18735,0.15552
41.94628,0.15583
41.70521,0.15309
41.46414,0.15114
41.22307,0.15242
40.98199,0.15353
40.74092,0.15153
40.49985,0.14891
40.25878,0.15092
40.01771,0.15965
39.77664,0.17285
39.53557,0.18878
39.29450,0.20628
39.05343,0.21972
38.81236,0.22334
38.57129,0.22005
38.33022,0.21859
38.08915,0.22603
37.84808,0.24120
37.60701,0.25173
37.36594,0.24749
37.12487,0.23411
36.88380,0.22245
36.64272,0.21532
36.40165,0.21083
36.16058,0.20963
35.91951,0.21181
35.67844,0.21469
35.43737,0.21680
35.19630,0.21858
34.95523,0.21959
34.71416,0.21832
34.47309,0.21381
34.23202,0.20584
33.99095,0.19516
33.74988,0.18351
33.50881,0.17235
33.26774,0.16392
33.02667,0.16241
32.78560,0.16726
32.54453,0.17034
32.30345,0.16678
32.06238,0.16298
31.82131,0.16714
31.58024,0.17586
31.33917,0.17638
31.09810,0.16054
30.85703,0.13178
30.61596,0.09966
30.37489,0.07136
30.13382,0.05181
29.89275,0.04651
29.65168,0.05589
29.41061,0.07119
29.16954,0.07917
28.92847,0.07031
28.68740,0.04623
28.44633,0.01783
28.20526,-0.00779
27.96418,-0.03071
27.72311,-0.04907
27.48204,-0.06005
27.24097,-0.06942
26.99990,-0.08485
26.75883,-0.09965
26.51776,-0.09781
26.27669,-0.07923
26.03562,-0.06556
25.79455,-0.07897
25.55348,-0.11568
25.31241,-0.14687
25.07134,-0.15341
24.83027,-0.14804
24.58920,-0.15358
24.34813,-0.17810
24.10706,-0.21313
23.86599,-0.24236
23.62491,-0.25616
23.38384,-0.25848
23.14277,-0.25801
22.90170,-0.26055
22.66063,-0.26395
22.41956,-0.26101
22.17849,-0.25065
21.93742,-0.23701
21.69635,-0.23101
21.45528,-0.24706
21.21421,-0.28403
20.97314,-0.31554
20.73207,-0.31406
20.49100,-0.28498
20.24993,-0.26079
20.00886,-0.26151
19.76779,-0.27882
19.52672,-0.28962
19.28564,-0.28329
19.04457,-0.27262
18.80350,-0.27235
18.56243,-0.29055
18.32136,-0.32393
18.08029,-0.34791
17.83922,-0.33568
17.59815,-0.30601
17.35708,-0.27889
17.11601,-0.26591
16.87494,-0.27025
16.63387,-0.28703
16.39280,-0.30994
16.15173,-0.32706
15.91066,-0.32484
15.66959,-0.30540
15.42852,-0.27783
15.18745,-0.25213
14.94637,-0.23637
14.70530,-0.22830
14.46423,-0.21783
14.22316,-0.20270
13.98209,-0.19365
13.74102,-0.20383
13.49995,-0.23648
13.25888,-0.28175
13.01781,-0.32224
12.77674,-0.34145
12.53567,-0.32890
12.29460,-0.28878
12.05353,-0.24689
11.81246,-0.22474
11.57139,-0.22524
11.33032,-0.24091
11.08925,-0.26113
10.84818,-0.27250
10.60710,-0.27006
10.36603,-0.26205
10.12496,-0.25544
9.88389,-0.25115
9.64282,-0.24873
9.40175,-0.24575
9.16068,-0.23745
8.91961,-0.21930
8.67854,-0.19240
8.43747,-0.16967
8.19640,-0.16294
7.95533,-0.16593
7.71426,-0.17039
7.47319,-0.18549
7.23212,-0.21630
6.99105,-0.24600
6.74998,-0.25809
6.50891,-0.25492
6.26783,-0.24342
6.02676,-0.23117
5.78569,-0.22789
5.54462,-0.23678
5.30355,-0.24963
5.06248,-0.24650
4.82141,-0.22073
4.58034,-0.19926
4.33927,-0.20467
4.09820,-0.22597
3.85713,-0.24547
3.61606,-0.25975
3.37499,-0.26764
3.13392,-0.26835
2.89285,-0.26017
2.65178,-0.23472
2.41071,-0.19995
2.16964,-0.18348
1.92856,-0.19991
1.68749,-0.23995
1.44642,-0.28432
1.20535,-0.30435
0.96428,-0.29976
0.72321,-0.31180
0.48214,-0.35186
0.24107,-0.33761
-0.00000,-0.19683
