399.69498,1.66059
399.45391,1.66316
399.21284,1.67311
398.97177,1.68609
398.73070,1.69900
398.48963,1.69917
398.24856,1.67599
398.00749,1.63846
397.76642,1.60699
397.52535,1.59556
397.28428,1.60347
397.04321,1.61902
396.80214,1.62995
396.56107,1.63479
396.32000,1.64424
396.07892,1.66290
395.83785,1.68142
395.59678,1.69505
395.35571,1.70697
395.11464,1.71652
394.87357,1.71480
394.63250,1.68898
394.39143,1.63661
394.15036,1.58401
393.90929,1.55463
393.66822,1.55370
393.42715,1.57763
393.18608,1.61210
392.94501,1.63395
392.70394,1.63044
392.46287,1.60569
392.22180,1.58143
391.98073,1.58399
391.73965,1.61528
391.49858,1.64307
391.25751,1.64606
391.01644,1.64000
390.77537,1.64210
390.53430,1.65206
390.29323,1.65862
390.05216,1.65118
389.81109,1.62896
389.57002,1.59577
389.32895,1.55796
389.08788,1.52897
388.84681,1.51854
388.60574,1.52560
388.36467,1.54338
388.12360,1.56616
387.88253,1.58611
387.64146,1.58930
387.40038,1.57110
387.15931,1.55010
386.91824,1.54772
386.67717,1.56457
386.43610,1.58627
386.19503,1.59679
385.95396,1.58188
385.71289,1.54886
385.47182,1.52226
385.23075,1.50873
384.98968,1.49380
384.74861,1.47225
384.50754,1.46001
384.26647,1.47153
384.02540,1.49777
383.78433,1.50530
383.54326,1.47595
383.30219,1.43791
383.06111,1.42397
382.82004,1.43817
382.57897,1.46022
382.33790,1.46842
382.09683,1.45580
381.85576,1.42402
381.61469,1.38293
381.37362,1.34830
381.13255,1.33160
380.89148,1.33360
380.65041,1.34229
380.40934,1.35520
380.16827,1.38065
379.92720,1.40870
379.68613,1.42654
379.44506,1.44307
379.20399,1.46562
378.96292,1.48749
378.72184,1.49682
378.48077,1.48875
378.23970,1.46695
377.99863,1.44503
377.75756,1.44468
377.51649,1.47356
377.27542,1.51652
377.03435,1.55232
376.79328,1.56976
376.55221,1.56796
376.31114,1.55151
376.07007,1.53443
375.82900,1.53741
375.58793,1.55884
375.34686,1.57597
375.10579,1.58818
374.86472,1.60807
374.62365,1.62364
374.38257,1.61321
374.14150,1.57144
373.90043,1.51928
373.65936,1.48694
373.41829,1.48318
373.17722,1.49812
372.93615,1.51284
372.69508,1.51171
372.45401,1.49982
372.21294,1.49907
371.97187,1.52097
371.73080,1.54806
371.48973,1.55395
371.24866,1.54123
371.00759,1.53254
370.76652,1.53255
370.52545,1.52811
370.28437,1.51619
370.04330,1.50664
369.80223,1.49981
369.56116,1.48525
369.32009,1.46288
369.07902,1.44518
368.83795,1.44311
368.59688,1.45935
368.35581,1.48375
368.11474,1.49650
367.87367,1.48887
367.63260,1.47126
367.39153,1.45772
367.15046,1.45540
366.90939,1.45731
366.66832,1.45256
366.42725,1.44693
366.18618,1.44794
365.94510,1.45330
365.70403,1.45674
365.46296,1.45499
365.22189,1.45466
364.98082,1.45955
364.73975,1.46792
364.49868,1.47193
364.25761,1.45893
364.01654,1.43255
363.77547,1.41231
363.53440,1.40750
363.29333,1.40782
363.05226,1.40486
362.81119,1.40664
362.57012,1.42148
362.32905,1.44135
362.08798,1.44924
361.84691,1.43856
361.60583,1.41797
361.36476,1.40148
361.12369,1.39591
360.88262,1.39754
360.64155,1.40144
360.40048,1.40607
360.15941,1.40829
359.91834,1.40434
359.67727,1.39600
359.43620,1.38843
359.19513,1.38648
358.95406,1.39318
358.71299,1.40428
358.47192,1.40814
358.23085,1.39755
357.98978,1.38003
357.74871,1.36908
357.50764,1.36723
357.26656,1.36571
357.02549,1.36033
356.78442,1.35985
356.54335,1.37381
356.30228,1.39518
356.06121,1.40546
355.82014,1.39977
355.57907,1.39345
355.33800,1.39818
355.09693,1.40768
354.85586,1.40679
354.61479,1.38929
354.37372,1.36628
354.13265,1.35744
353.89158,1.37428
353.65051,1.40757
353.40944,1.43154
353.16837,1.43008
352.92729,1.41148
352.68622,1.39418
352.44515,1.39162
352.20408,1.39666
351.96301,1.39456
351.72194,1.38738
351.48087,1.38783
351.23980,1.40003
350.99873,1.41304
350.75766,1.41664
350.51659,1.41591
350.27552,1.41953
350.03445,1.42534
349.79338,1.42555
349.55231,1.41909
349.31124,1.41154
349.07017,1.40514
348.82910,1.39893
348.58802,1.39626
348.34695,1.40237
348.10588,1.41805
347.86481,1.43768
347.62374,1.45006
347.38267,1.44752
347.14160,1.43535
346.90053,1.42399
346.65946,1.41460
346.41839,1.39860
346.17732,1.37828
345.93625,1.37157
345.69518,1.38596
345.45411,1.40671
345.21304,1.41916
344.97197,1.42771
344.73090,1.43901
344.48983,1.44557
344.24875,1.43878
344.00768,1.42243
343.76661,1.40735
343.52554,1.40044
343.28447,1.39721
343.04340,1.38842
342.80233,1.37889
342.56126,1.38476
342.32019,1.40832
342.07912,1.43164
341.83805,1.44298
341.59698,1.45233
341.35591,1.46841
341.11484,1.48051
340.87377,1.47181
340.63270,1.44151
340.39163,1.40693
340.15056,1.39080
339.90948,1.40600
339.66841,1.45213
339.42734,1.51217
339.18627,1.54863
338.94520,1.54011
338.70413,1.50620
338.46306,1.46786
338.22199,1.44051
337.98092,1.42713
337.73985,1.42672
337.49878,1.44400
337.25771,1.48000
337.01664,1.52250
336.77557,1.54611
336.53450,1.53093
336.29343,1.49730
336.05236,1.47240
335.81129,1.46744
335.57021,1.48245
335.32914,1.50372
335.08807,1.51445
334.84700,1.51255
334.60593,1.50936
334.36486,1.51704
334.12379,1.53264
333.88272,1.54129
333.64165,1.53689
333.40058,1.52633
333.15951,1.51702
332.91844,1.50934
332.67737,1.49634
332.43630,1.47931
332.19523,1.47427
331.95416,1.48730
331.71309,1.50412
331.47202,1.50529
331.23094,1.48869
330.98987,1.46763
330.74880,1.44224
330.50773,1.41068
330.26666,1.39615
330.02559,1.42446
329.78452,1.48080
329.54345,1.50567
329.30238,1.47393
329.06131,1.42170
328.82024,1.38524
328.57917,1.38025
328.33810,1.40266
328.09703,1.41828
327.85596,1.39803
327.61489,1.36837
327.37382,1.35956
327.13275,1.37054
326.89167,1.38112
326.65060,1.37759
326.40953,1.36674
326.16846,1.36628
325.92739,1.38508
325.68632,1.41600
325.44525,1.44285
325.20418,1.45419
324.96311,1.44138
324.72204,1.41176
324.48097,1.39506
324.23990,1.40626
323.99883,1.44035
323.75776,1.48170
323.51669,1.51280
323.27562,1.51747
323.03455,1.49116
322.79348,1.45156
322.55240,1.42742
322.31133,1.42622
322.07026,1.43188
321.82919,1.42815
321.58812,1.40657
321.34705,1.37067
321.10598,1.33738
320.86491,1.32531
320.62384,1.33873
320.38277,1.36400
320.14170,1.38578
319.90063,1.39928
319.65956,1.41276
319.41849,1.43327
319.17742,1.43922
318.93635,1.41467
318.69528,1.38456
318.45421,1.37197
318.21313,1.37823
317.97206,1.38785
317.73099,1.40008
317.48992,1.42188
317.24885,1.44620
317.00778,1.46178
316.76671,1.47718
316.52564,1.51320
316.28457,1.56187
316.04350,1.58707
315.80243,1.55579
315.56136,1.49537
315.32029,1.45063
315.07922,1.43739
314.83815,1.44779
314.59708,1.46573
314.35601,1.47719
314.11494,1.47435
313.87386,1.45982
313.63279,1.44261
313.39172,1.43071
313.15065,1.42766
312.90958,1.43236
312.66851,1.44290
312.42744,1.45459
312.18637,1.46107
311.94530,1.45997
311.70423,1.45301
311.46316,1.45320
311.22209,1.48179
310.98102,1.54897
310.73995,1.62994
310.49888,1.65410
310.25781,1.59163
310.01674,1.51745
309.77567,1.48210
309.53459,1.47784
309.29352,1.48176
309.05245,1.47994
308.81138,1.46762
308.57031,1.44332
308.32924,1.41607
308.08817,1.40298
307.84710,1.40828
307.60603,1.42627
307.36496,1.45574
307.12389,1.49416
306.88282,1.52441
306.64175,1.53324
306.40068,1.52940
306.15961,1.52777
305.91854,1.53296
305.67747,1.53550
305.43640,1.52276
305.19532,1.49439
304.95425,1.46083
304.71318,1.43275
304.47211,1.41246
304.23104,1.39640
303.98997,1.38563
303.74890,1.38603
303.50783,1.40317
303.26676,1.43625
303.02569,1.47263
302.78462,1.49488
302.54355,1.49872
302.30248,1.49172
302.06141,1.48170
301.82034,1.47571
301.57927,1.47536
301.33820,1.46969
301.09713,1.45058
300.85605,1.42922
300.61498,1.41853
300.37391,1.41461
300.13284,1.40583
299.89177,1.39137
299.65070,1.38330
299.40963,1.39007
299.16856,1.40651
298.92749,1.41857
298.68642,1.41754
298.44535,1.40854
298.20428,1.39824
297.96321,1.38467
297.72214,1.36849
297.48107,1.36011
297.24000,1.36942
296.99893,1.39512
296.75786,1.42286
296.51678,1.43705
296.27571,1.43452
296.03464,1.41903
295.79357,1.39016
295.55250,1.34858
295.31143,1.30765
295.07036,1.28531
294.82929,1.28497
294.58822,1.29251
294.34715,1.29218
294.10608,1.28588
293.86501,1.28782
293.62394,1.30036
293.38287,1.31364
293.14180,1.31921
292.90073,1.31382
292.65966,1.30058
292.41859,1.28586
292.17751,1.27560
291.93644,1.27480
291.69537,1.28643
291.45430,1.30625
291.21323,1.32261
290.97216,1.32717
290.73109,1.32122
290.49002,1.30812
290.24895,1.29093
290.00788,1.27544
289.76681,1.26727
289.52574,1.26811
289.28467,1.27597
289.04360,1.28691
288.80253,1.29725
288.56146,1.30345
288.32039,1.30298
288.07932,1.29573
287.83824,1.28426
287.59717,1.27383
287.35610,1.26818
287.11503,1.26696
286.87396,1.26827
286.63289,1.26991
286.39182,1.26815
286.15075,1.26006
285.90968,1.24685
285.66861,1.23239
285.42754,1.22196
285.18647,1.22077
284.94540,1.22857
284.70433,1.23811
284.46326,1.24242
284.22219,1.24113
283.98112,1.23875
283.74005,1.24055
283.49897,1.24846
283.25790,1.25776
283.01683,1.26181
282.77576,1.26103
282.53469,1.26096
282.29362,1.26332
282.05255,1.26433
281.81148,1.25945
281.57041,1.24798
281.32934,1.23358
281.08827,1.22081
280.84720,1.21453
280.60613,1.21780
280.36506,1.22610
280.12399,1.22969
279.88292,1.22545
279.64185,1.22046
279.40078,1.22187
279.15970,1.22919
278.91863,1.23774
278.67756,1.24479
278.43649,1.25052
278.19542,1.25728
277.95435,1.26676
277.71328,1.27364
277.47221,1.26945
277.23114,1.25536
276.99007,1.24262
276.74900,1.23944
276.50793,1.24376
276.26686,1.24870
276.02579,1.25036
275.78472,1.24846
275.54365,1.24428
275.30258,1.24001
275.06151,1.23629
274.82043,1.23326
274.57936,1.23341
274.33829,1.23759
274.09722,1.24192
273.85615,1.24534
273.61508,1.25436
273.37401,1.27336
273.13294,1.29287
272.89187,1.29698
272.65080,1.28453
272.40973,1.27019
272.16866,1.26471
271.92759,1.26561
271.68652,1.26604
271.44545,1.26608
271.20438,1.27131
270.96331,1.28157
270.72224,1.28875
270.48116,1.28845
270.24009,1.28709
269.99902,1.29118
269.75795,1.29709
269.51688,1.29841
269.27581,1.29716
269.03474,1.30049
268.79367,1.31135
268.55260,1.32611
268.31153,1.33786
268.07046,1.34158
267.82939,1.33994
267.58832,1.34214
267.34725,1.35230
267.10618,1.36350
266.86511,1.36849
266.62404,1.36822
266.38297,1.36443
266.14189,1.35691
265.90082,1.35169
265.65975,1.35995
265.41868,1.38218
265.17761,1.40188
264.93654,1.40559
264.69547,1.40015
264.45440,1.39858
264.21333,1.40548
263.97226,1.42117
263.73119,1.44442
263.49012,1.46754
263.24905,1.47922
263.00798,1.47600
262.76691,1.46651
262.52584,1.46384
262.28477,1.47763
262.04370,1.50811
261.80262,1.54102
261.56155,1.55972
261.32048,1.56724
261.07941,1.58095
260.83834,1.60569
260.59727,1.62949
260.35620,1.64832
260.11513,1.67467
259.87406,1.71765
259.63299,1.76344
259.39192,1.79322
259.15085,1.81549
258.90978,1.84787
258.66871,1.88456
258.42764,1.90782
258.18657,1.91795
257.94550,1.92772
257.70443,1.93837
257.46335,1.93762
257.22228,1.92221
256.98121,1.90957
256.74014,1.90525
256.49907,1.89679
256.25800,1.87779
256.01693,1.85845
255.77586,1.85373
255.53479,1.85430
255.29372,1.82854
255.05265,1.77229
254.81158,1.71800
254.57051,1.69158
254.32944,1.69435
254.08837,1.71632
253.84730,1.74353
253.60623,1.76084
253.36516,1.76803
253.12408,1.77596
252.88301,1.78009
252.64194,1.77029
252.40087,1.74866
252.15980,1.72628
251.91873,1.71861
251.67766,1.73017
251.43659,1.74453
251.19552,1.74295
250.95445,1.73111
250.71338,1.72715
250.47231,1.73262
250.23124,1.72841
249.99017,1.70302
249.74910,1.67770
249.50803,1.67711
249.26696,1.69305
249.02589,1.70315
248.78481,1.69937
248.54374,1.68435
248.30267,1.66332
248.06160,1.64693
247.82053,1.65126
247.57946,1.68125
247.33839,1.72647
247.09732,1.77152
246.85625,1.79139
246.61518,1.76632
246.37411,1.72143
246.13304,1.68305
245.89197,1.66144
245.65090,1.66796
245.40983,1.70763
245.16876,1.75988
244.92769,1.79139
244.68661,1.80552
244.44554,1.83120
244.20447,1.87040
243.96340,1.89806
243.72233,1.92271
243.48126,1.99046
243.24019,2.06654
242.99912,2.08935
242.75805,2.05788
242.51698,1.99490
242.27591,1.96715
242.03484,1.95470
241.79377,1.91867
241.55270,1.87359
241.31163,1.81456
241.07056,1.71770
240.82949,1.59667
240.58842,1.48801
240.34734,1.41515
240.10627,1.37910
239.86520,1.36266
239.62413,1.34467
239.38306,1.31712
239.14199,1.28383
238.90092,1.24920
238.65985,1.21694
238.41878,1.19020
238.17771,1.16998
237.93664,1.15766
237.69557,1.15362
237.45450,1.14928
237.21343,1.13266
236.97236,1.10582
236.73129,1.08313
236.49022,1.07446
236.24915,1.07659
236.00807,1.07758
235.76700,1.06733
235.52593,1.04648
235.28486,1.02400
235.04379,1.00716
234.80272,0.99945
234.56165,1.00032
234.32058,1.00335
234.07951,1.00219
233.83844,0.99796
233.59737,0.99516
233.35630,0.99483
233.11523,0.99542
232.87416,0.99520
232.63309,0.99152
232.39202,0.98221
232.15095,0.96928
231.90988,0.95794
231.66880,0.95082
231.42773,0.94637
231.18666,0.94432
230.94559,0.94733
230.70452,0.95473
230.46345,0.95952
230.22238,0.95573
229.98131,0.94683
229.74024,0.94238
229.49917,0.94681
229.25810,0.95286
229.01703,0.94940
228.77596,0.93881
228.53489,0.93458
228.29382,0.94060
228.05275,0.94436
227.81168,0.93499
227.57061,0.92021
227.32953,0.91180
227.08846,0.90909
226.84739,0.90394
226.60632,0.89470
226.36525,0.88895
226.12418,0.89192
225.88311,0.89863
225.64204,0.90030
225.40097,0.89517
225.15990,0.88937
224.91883,0.88916
224.67776,0.89526
224.43669,0.90344
224.19562,0.90918
223.95455,0.91137
223.71348,0.91155
223.47241,0.91098
223.23134,0.91054
222.99026,0.91209
222.74919,0.91718
222.50812,0.92435
222.26705,0.93028
222.02598,0.93422
221.78491,0.93705
221.54384,0.93746
221.30277,0.93575
221.06170,0.93775
220.82063,0.94774
220.57956,0.96131
220.33849,0.97060
220.09742,0.97497
219.85635,0.97985
219.61528,0.98769
219.37421,0.99727
219.13314,1.00933
218.89207,1.02522
218.65099,1.03967
218.40992,1.04602
218.16885,1.05003
217.92778,1.06241
217.68671,1.07943
217.44564,1.08867
217.20457,1.09090
216.96350,1.09500
216.72243,1.10258
216.48136,1.11254
216.24029,1.12569
215.99922,1.13939
215.75815,1.15113
215.51708,1.16522
215.27601,1.18519
215.03494,1.20566
214.79387,1.21979
214.55280,1.22732
214.31172,1.23088
214.07065,1.23460
213.82958,1.24468
213.58851,1.26249
213.34744,1.28137
213.10637,1.29498
212.86530,1.30055
212.62423,1.29870
212.38316,1.29874
212.14209,1.31093
211.90102,1.33083
211.65995,1.34312
211.41888,1.34157
211.17781,1.33370
210.93674,1.32536
210.69567,1.31463
210.45460,1.30212
210.21353,1.29408
209.97245,1.29307
209.73138,1.29240
209.49031,1.28316
209.24924,1.26544
209.00817,1.24717
208.76710,1.23458
208.52603,1.22985
208.28496,1.23111
208.04389,1.23216
207.80282,1.22600
207.56175,1.21122
207.32068,1.19366
207.07961,1.18134
206.83854,1.17774
206.59747,1.18109
206.35640,1.18760
206.11533,1.19459
205.87426,1.20223
205.63318,1.20791
205.39211,1.20510
205.15104,1.19377
204.90997,1.17614
204.66890,1.15057
204.42783,1.12010
204.18676,1.09387
203.94569,1.07759
203.70462,1.06806
203.46355,1.05889
203.22248,1.04915
202.98141,1.04208
202.74034,1.03782
202.49927,1.03306
202.25820,1.02783
202.01713,1.02542
201.77606,1.02321
201.53499,1.01308
201.29391,0.99251
201.05284,0.96782
200.81177,0.94538
200.57070,0.92636
200.32963,0.90983
200.08856,0.89543
199.84749,0.88315
199.60642,0.87366
199.36535,0.86788
199.12428,0.86550
198.88321,0.86487
198.64214,0.86375
198.40107,0.85996
198.16000,0.85164
197.91893,0.83825
197.67786,0.82175
197.43679,0.80546
197.19572,0.79268
196.95464,0.78553
196.71357,0.78308
196.47250,0.78126
196.23143,0.77642
195.99036,0.76853
195.74929,0.75987
195.50822,0.75165
195.26715,0.74311
195.02608,0.73307
194.78501,0.72268
194.54394,0.71489
194.30287,0.71086
194.06180,0.70952
193.82073,0.70969
193.57966,0.70984
193.33859,0.70692
193.09752,0.69859
192.85645,0.68561
192.61537,0.67096
192.37430,0.65908
192.13323,0.65479
191.89216,0.66011
191.65109,0.67197
191.41002,0.68320
191.16895,0.68599
190.92788,0.67654
190.68681,0.65838
190.44574,0.63996
190.20467,0.62904
189.96360,0.62916
189.72253,0.63685
189.48146,0.64245
189.24039,0.63950
188.99932,0.63226
188.75825,0.62953
188.51718,0.63435
188.27610,0.64178
188.03503,0.64334
187.79396,0.63453
187.55289,0.62045
187.31182,0.61084
187.07075,0.61054
186.82968,0.61648
186.58861,0.62141
186.34754,0.62077
186.10647,0.61748
185.86540,0.61785
185.62433,0.62487
185.38326,0.63587
185.14219,0.64325
184.90112,0.64102
184.66005,0.63279
184.41898,0.62716
184.17791,0.62616
183.93683,0.62340
183.69576,0.61565
183.45469,0.60976
183.21362,0.61289
182.97255,0.62261
182.73148,0.62937
182.49041,0.62861
182.24934,0.62570
182.00827,0.62661
181.76720,0.63056
181.52613,0.63295
181.28506,0.63361
181.04399,0.63742
180.80292,0.64582
180.56185,0.65257
180.32078,0.65122
180.07971,0.64488
179.83864,0.64216
179.59756,0.64616
179.35649,0.65259
179.11542,0.65716
178.87435,0.66193
178.63328,0.67157
178.39221,0.68527
178.15114,0.69721
177.91007,0.70599
177.66900,0.71611
177.42793,0.72831
177.18686,0.73851
176.94579,0.74719
176.70472,0.75960
176.46365,0.77591
176.22258,0.79088
175.98151,0.80398
175.74044,0.81958
175.49937,0.83674
175.25829,0.85013
175.01722,0.86099
174.77615,0.87554
174.53508,0.89392
174.29401,0.91181
174.05294,0.93128
173.81187,0.95596
173.57080,0.97895
173.32973,0.99286
173.08866,1.00209
172.84759,1.01207
172.60652,1.01945
172.36545,1.02240
172.12438,1.02655
171.88331,1.03455
171.64224,1.04259
171.40117,1.04536
171.16010,1.03963
170.91902,1.02869
170.67795,1.02051
170.43688,1.01712
170.19581,1.01178
169.95474,0.99991
169.71367,0.98425
169.47260,0.96873
169.23153,0.95748
168.99046,0.95466
168.74939,0.95920
168.50832,0.96383
168.26725,0.96321
168.02618,0.95938
167.78511,0.95634
167.54404,0.95513
167.30297,0.95486
167.06190,0.95405
166.82083,0.95168
166.57975,0.94845
166.33868,0.94634
166.09761,0.94772
165.85654,0.95506
165.61547,0.96795
165.37440,0.98001
165.13333,0.98437
164.89226,0.98264
164.65119,0.98288
164.41012,0.99020
164.16905,1.00360
163.92798,1.01916
163.68691,1.03367
163.44584,1.04549
163.20477,1.05599
162.96370,1.06902
162.72263,1.08480
162.48156,1.09837
162.24048,1.10567
161.99941,1.10719
161.75834,1.10485
161.51727,1.09953
161.27620,1.09276
161.03513,1.08756
160.79406,1.08618
160.55299,1.08624
160.31192,1.08144
160.07085,1.06900
159.82978,1.05241
159.58871,1.03591
159.34764,1.02178
159.10657,1.01197
158.86550,1.00695
158.62443,1.00374
158.38336,0.99913
158.14229,0.99401
157.90121,0.99121
157.66014,0.99005
157.41907,0.98689
157.17800,0.98116
156.93693,0.97515
156.69586,0.96951
156.45479,0.96425
156.21372,0.96129
155.97265,0.96200
155.73158,0.96481
155.49051,0.96709
155.24944,0.96681
155.00837,0.96241
154.76730,0.95317
154.52623,0.93912
154.28516,0.92041
154.04409,0.89800
153.80302,0.87446
153.56194,0.85306
153.32087,0.83580
153.07980,0.82260
152.83873,0.81188
152.59766,0.80179
152.35659,0.79142
152.11552,0.78146
151.87445,0.77287
151.63338,0.76468
151.39231,0.75481
151.15124,0.74265
150.91017,0.72858
150.66910,0.71226
150.42803,0.69395
150.18696,0.67598
149.94589,0.66056
149.70482,0.64753
149.46375,0.63587
149.22267,0.62606
148.98160,0.61976
148.74053,0.61729
148.49946,0.61670
148.25839,0.61586
148.01732,0.61424
147.77625,0.61168
147.53518,0.60724
147.29411,0.60079
147.05304,0.59444
146.81197,0.59089
146.57090,0.59107
146.32983,0.59416
146.08876,0.59881
145.84769,0.60358
145.60662,0.60726
145.36555,0.60972
145.12448,0.61208
144.88340,0.61537
144.64233,0.61902
144.40126,0.62182
144.16019,0.62501
143.91912,0.63125
143.67805,0.63884
143.43698,0.64065
143.19591,0.63228
142.95484,0.61832
142.71377,0.60677
142.47270,0.60046
142.23163,0.59662
141.99056,0.59135
141.74949,0.58295
141.50842,0.57312
141.26735,0.56512
141.02628,0.56020
140.78521,0.55732
140.54413,0.55531
140.30306,0.55308
140.06199,0.54975
139.82092,0.54645
139.57985,0.54636
139.33878,0.55146
139.09771,0.55916
138.85664,0.56461
138.61557,0.56755
138.37450,0.57274
138.13343,0.58309
137.89236,0.59624
137.65129,0.60825
137.41022,0.61899
137.16915,0.63175
136.92808,0.64795
136.68701,0.66503
136.44594,0.68028
136.20486,0.69532
135.96379,0.71448
135.72272,0.73859
135.48165,0.76319
135.24058,0.78437
134.99951,0.80406
134.75844,0.82686
134.51737,0.85342
134.27630,0.88180
134.03523,0.91395
133.79416,0.95164
133.55309,0.98859
133.31202,1.01474
133.07095,1.03045
132.82988,1.04892
132.58881,1.07938
132.34774,1.11726
132.10667,1.15227
131.86559,1.17368
131.62452,1.17075
131.38345,1.14484
131.14238,1.11679
130.90131,1.10540
130.66024,1.10613
130.41917,1.10412
130.17810,1.09557
129.93703,1.07952
129.69596,1.05194
129.45489,1.01607
129.21382,0.98393
128.97275,0.96041
128.73168,0.93950
128.49061,0.91575
128.24954,0.88820
128.00847,0.85730
127.76740,0.82509
127.52632,0.79508
127.28525,0.76885
127.04418,0.74531
126.80311,0.72330
126.56204,0.70234
126.32097,0.68195
126.07990,0.66134
125.83883,0.63984
125.59776,0.61756
125.35669,0.59549
125.11562,0.57511
124.87455,0.55775
124.63348,0.54389
124.39241,0.53361
124.15134,0.52744
123.91027,0.52612
123.66920,0.52886
123.42812,0.53217
123.18705,0.53185
122.94598,0.52660
122.70491,0.51841
122.46384,0.50992
122.22277,0.50271
121.98170,0.49738
121.74063,0.49403
121.49956,0.49256
121.25849,0.49297
121.01742,0.49541
120.77635,0.49955
120.53528,0.50475
120.29421,0.51190
120.05314,0.52327
119.81207,0.53925
119.57100,0.55751
119.32993,0.57678
119.08885,0.59837
118.84778,0.62289
118.60671,0.64869
118.36564,0.67476
118.12457,0.70137
117.88350,0.72655
117.64243,0.74676
117.40136,0.76263
117.16029,0.78006
116.91922,0.80269
116.67815,0.82497
116.43708,0.83689
116.19601,0.83632
115.95494,0.83105
115.71387,0.82655
115.47280,0.81878
115.23173,0.80207
114.99066,0.77846
114.74958,0.75453
114.50851,0.73432
114.26744,0.71823
114.02637,0.70556
113.78530,0.69666
113.54423,0.69269
113.30316,0.69279
113.06209,0.69284
112.82102,0.68978
112.57995,0.68606
112.33888,0.68666
112.09781,0.69318
111.85674,0.70331
111.61567,0.71385
111.37460,0.72256
111.13353,0.72852
110.89246,0.73227
110.65139,0.73419
110.41031,0.73418
110.16924,0.73326
109.92817,0.73229
109.68710,0.72950
109.44603,0.72380
109.20496,0.71860
108.96389,0.71660
108.72282,0.71414
108.48175,0.70557
108.24068,0.68936
107.99961,0.66714
107.75854,0.64223
107.51747,0.61904
107.27640,0.59906
107.03533,0.57917
106.79426,0.55704
106.55319,0.53455
106.31212,0.51449
106.07104,0.49765
105.82997,0.48384
105.58890,0.47229
105.34783,0.46093
105.10676,0.44841
104.86569,0.43616
104.62462,0.42626
104.38355,0.41749
104.14248,0.40639
103.90141,0.39285
103.66034,0.38178
103.41927,0.37830
103.17820,0.38266
102.93713,0.39053
102.69606,0.39725
102.45499,0.40015
102.21392,0.39738
101.97285,0.38803
101.73177,0.37410
101.49070,0.35934
101.24963,0.34621
101.00856,0.33571
100.76749,0.32804
100.52642,0.32217
100.28535,0.31666
100.04428,0.31195
99.80321,0.31004
99.56214,0.31194
99.32107,0.31650
99.08000,0.32112
98.83893,0.32299
98.59786,0.32064
98.35679,0.31386
98.11572,0.30302
97.87465,0.29045
97.63358,0.28035
97.39250,0.27612
97.15143,0.27961
96.91036,0.29218
96.66929,0.31287
96.42822,0.33329
96.18715,0.33871
95.94608,0.32488
95.70501,0.30564
95.46394,0.29621
95.22287,0.30449
94.98180,0.33210
94.74073,0.37024
94.49966,0.39389
94.25859,0.38274
94.01752,0.35421
93.77645,0.33685
93.53538,0.34218
93.29431,0.36293
93.05323,0.37420
92.81216,0.35957
92.57109,0.33937
92.33002,0.33738
92.08895,0.35431
91.84788,0.37163
91.60681,0.37190
91.36574,0.36318
91.12467,0.36645
90.88360,0.38766
90.64253,0.41345
90.40146,0.43252
90.16039,0.45566
89.91932,0.49736
89.67825,0.55228
89.43718,0.59690
89.19611,0.62816
88.95504,0.67222
88.71396,0.73614
88.47289,0.78769
88.23182,0.79922
87.99075,0.79348
87.74968,0.78021
87.50861,0.73819
87.26754,0.67501
87.02647,0.62145
86.78540,0.58027
86.54433,0.54013
86.30326,0.50539
86.06219,0.48198
85.82112,0.46043
85.58005,0.43174
85.33898,0.40259
85.09791,0.38004
84.85684,0.36227
84.61577,0.34680
84.37469,0.33381
84.13362,0.32360
83.89255,0.31694
83.65148,0.31398
83.41041,0.31101
83.16934,0.30351
82.92827,0.29200
82.68720,0.28053
82.44613,0.27165
82.20506,0.26575
81.96399,0.26207
81.72292,0.25906
81.48185,0.25562
81.24078,0.25245
80.99971,0.25009
80.75864,0.24676
80.51757,0.24087
80.27650,0.23414
80.03542,0.22935
79.79435,0.22725
79.55328,0.22700
79.31221,0.22724
79.07114,0.22672
78.83007,0.22577
78.58900,0.22591
78.34793,0.22660
78.10686,0.22504
77.86579,0.21994
77.62472,0.21288
77.38365,0.20603
77.14258,0.20078
76.90151,0.19748
76.66044,0.19538
76.41937,0.19356
76.17830,0.19216
75.93723,0.19157
75.69615,0.19104
75.45508,0.19027
75.21401,0.19029
74.97294,0.19048
74.73187,0.18834
74.49080,0.18434
74.24973,0.18230
74.00866,0.18384
73.76759,0.18714
73.52652,0.19004
73.28545,0.18991
73.04438,0.18442
72.80331,0.17741
72.56224,0.17678
72.32117,0.18293
72.08010,0.18625
71.83903,0.18158
71.59796,0.17827
71.35688,0.18603
71.11581,0.20013
70.87474,0.20545
70.63367,0.19923
70.39260,0.19629
70.15153,0.20807
69.91046,0.22965
69.66939,0.24502
69.42832,0.24658
69.18725,0.24532
68.94618,0.25571
68.70511,0.27883
68.46404,0.29824
68.22297,0.29190
67.98190,0.25913
67.74083,0.22280
67.49976,0.20104
67.25869,0.19858
67.01761,0.21112
66.77654,0.22548
66.53547,0.22391
66.29440,0.20376
66.05333,0.18099
65.81226,0.16944
65.57119,0.17311
65.33012,0.18926
65.08905,0.21014
64.84798,0.22504
64.60691,0.22767
64.36584,0.22130
64.12477,0.21318
63.88370,0.20984
63.64263,0.21693
63.40156,0.23632
63.16049,0.26366
62.91942,0.29128
62.67834,0.30625
62.43727,0.28995
62.19620,0.24682
61.95513,0.20097
61.71406,0.16454
61.47299,0.13794
61.23192,0.11952
60.99085,0.10851
60.74978,0.10460
60.50871,0.10804
60.26764,0.11825
60.02657,0.13207
59.78550,0.14544
59.54443,0.15576
59.30336,0.16170
59.06229,0.16241
58.82122,0.15886
58.58015,0.15472
58.33907,0.15335
58.09800,0.15496
57.85693,0.15858
57.61586,0.16391
57.37479,0.16851
57.13372,0.16763
56.89265,0.16022
56.65158,0.15057
56.41051,0.14256
56.16944,0.13714
55.92837,0.13498
55.68730,0.13741
55.44623,0.14444
55.20516,0.15321
54.96409,0.15842
54.72302,0.15565
54.48195,0.14607
54.24088,0.13536
53.99980,0.12770
53.75873,0.12501
53.51766,0.12971
53.27659,0.14399
53.03552,0.16860
52.79445,0.20487
52.55338,0.25451
52.31231,0.31476
52.07124,0.36492
51.83017,0.35515
51.58910,0.29406
51.34803,0.22655
51.10696,0.16408
50.86589,0.11151
50.62482,0.07333
50.38375,0.04864
50.14268,0.03323
49.90161,0.02580
49.66053,0.03157
49.41946,0.05963
49.17839,0.11751
48.93732,0.21649
48.69625,0.32954
48.45518,0.27477
48.21411,0.13954
47.97304,0.04746
47.73197,0.00668
47.49090,0.01198
47.24983,0.06641
47.00876,0.20575
46.76769,0.38170
46.52662,0.19794
46.28555,0.08263
46.04448,0.06913
45.80341,0.12479
45.56234,0.19973
45.32126,0.17227
45.08019,0.11601
44.83912,0.12879
44.59805,0.19626
44.35698,0.21267
44.11591,0.15827
43.87484,0.14460
43.63377,0.17570
43.39270,0.17100
43.15163,0.13430
42.91056,0.13019
42.66949,0.14786
42.42842,0.14981
42.18735,0.15080
41.94628,0.16743
41.70521,0.17429
41.46414,0.16176
41.22307,0.15083
40.98199,0.15322
40.74092,0.16619
40.49985,0.18081
40.25878,0.18677
40.01771,0.18442
39.77664,0.18477
39.53557,0.19029
39.29450,0.19443
39.05343,0.20078
38.81236,0.21944
38.57129,0.24926
38.33022,0.27529
38.08915,0.28724
37.84808,0.29083
37.60701,0.28650
37.36594,0.26488
37.12487,0.23171
36.88380,0.20494
36.64272,0.19409
36.40165,0.19754
36.16058,0.20891
35.91951,0.21916
35.67844,0.22012
35.43737,0.21096
35.19630,0.19916
34.95523,0.19472
34.71416,0.20235
34.47309,0.21776
34.23202,0.23594
33.99095,0.26062
33.74988,0.28959
33.50881,0.30251
33.26774,0.28926
33.02667,0.26718
32.78560,0.25230
32.54453,0.24865
32.30345,0.25692
32.06238,0.27442
31.82131,0.28854
31.58024,0.27859
31.33917,0.25004
31.09810,0.23076
30.85703,0.22373
30.61596,0.21775
30.37489,0.20620
30.13382,0.18748
29.89275,0.16660
29.65168,0.15546
29.41061,0.16226
29.16954,0.18166
28.92847,0.20075
28.68740,0.21628
28.44633,0.22645
28.20526,0.22118
27.96418,0.19892
27.72311,0.16889
27.48204,0.14850
27.24097,0.13654
26.99990,0.11816
26.75883,0.09254
26.51776,0.07084
26.27669,0.06375
26.03562,0.06670
25.79455,0.07020
25.55348,0.06900
25.31241,0.06283
25.07134,0.05174
24.83027,0.02248
24.58920,-0.03013
24.34813,-0.08055
24.10706,-0.09617
23.86599,-0.07148
23.62491,-0.03281
23.38384,-0.01225
23.14277,-0.01905
22.90170,-0.03984
22.66063,-0.05174
22.41956,-0.04502
22.17849,-0.03479
21.93742,-0.03474
21.69635,-0.04353
21.45528,-0.05178
21.21421,-0.04926
20.97314,-0.03694
20.73207,-0.02956
20.49100,-0.04369
20.24993,-0.07537
20.00886,-0.09560
19.76779,-0.09027
19.52672,-0.07817
19.28564,-0.07803
19.04457,-0.09006
18.80350,-0.10110
18.56243,-0.09810
18.32136,-0.08423
18.08029,-0.07209
17.83922,-0.07084
17.59815,-0.08862
17.35708,-0.12476
17.11601,-0.16021
16.87494,-0.17738
16.63387,-0.17322
16.39280,-0.15713
16.15173,-0.13959
15.91066,-0.13190
15.66959,-0.15284
15.42852,-0.21392
15.18745,-0.29337
14.94637,-0.33152
14.70530,-0.29539
14.46423,-0.22123
14.22316,-0.16669
13.98209,-0.16628
13.74102,-0.20593
13.49995,-0.24636
13.25888,-0.26946
13.01781,-0.26983
12.77674,-0.25149
12.53567,-0.22552
12.29460,-0.20006
12.05353,-0.18447
11.81246,-0.18439
11.57139,-0.20182
11.33032,-0.22664
11.08925,-0.23863
10.84818,-0.23215
10.60710,-0.22431
10.36603,-0.23369
10.12496,-0.26528
9.88389,-0.30420
9.64282,-0.31402
9.40175,-0.28676
9.16068,-0.26908
8.91961,-0.29160
8.67854,-0.32209
8.43747,-0.30281
8.19640,-0.23929
7.95533,-0.18248
7.71426,-0.16031
7.47319,-0.16302
7.23212,-0.17114
6.99105,-0.18908
6.74998,-0.23251
6.50891,-0.27567
6.26783,-0.28424
6.02676,-0.29949
5.78569,-0.29207
5.54462,-0.28114
5.30355,-0.28701
5.06248,-0.30054
4.82141,-0.30890
4.58034,-0.32175
4.33927,-0.34916
4.09820,-0.37295
3.85713,-0.36547
3.61606,-0.33083
3.37499,-0.28846
3.13392,-0.26561
2.89285,-0.27779
2.65178,-0.29076
2.41071,-0.27542
2.16964,-0.23689
1.92856,-0.19592
1.68749,-0.17030
1.44642,-0.17291
1.20535,-0.20423
0.96428,-0.24422
0.72321,-0.30083
0.48214,-0.37817
0.24107,-0.37884
-0.00000,-0.17709
