399.69498,1.56112
399.45391,1.54272
399.21284,1.53095
398.97177,1.53606
398.73070,1.55034
398.48963,1.56089
398.24856,1.56782
398.00749,1.57668
397.76642,1.58294
397.52535,1.57461
397.28428,1.55006
397.04321,1.52490
396.80214,1.51770
396.56107,1.53211
396.32000,1.55300
396.07892,1.56176
395.83785,1.55509
395.59678,1.54343
395.35571,1.53685
395.11464,1.53735
394.87357,1.54220
394.63250,1.54944
394.39143,1.55650
394.15036,1.55788
393.90929,1.55181
393.66822,1.54590
393.42715,1.54759
393.18608,1.54840
392.94501,1.53148
392.70394,1.50158
392.46287,1.48243
392.22180,1.48578
391.98073,1.50069
391.73965,1.51003
391.49858,1.51372
391.25751,1.52415
391.01644,1.54318
390.77537,1.55740
390.53430,1.55470
390.29323,1.53960
390.05216,1.52494
389.81109,1.51402
389.57002,1.50213
389.32895,1.49054
389.08788,1.48861
388.84681,1.50206
388.60574,1.52417
388.36467,1.53940
388.12360,1.53633
387.88253,1.51892
387.64146,1.49932
387.40038,1.48506
387.15931,1.47831
386.91824,1.47661
386.67717,1.47292
386.43610,1.46450
386.19503,1.45661
385.95396,1.45166
385.71289,1.44291
385.47182,1.42438
385.23075,1.40072
384.98968,1.38223
384.74861,1.37404
384.50754,1.37255
384.26647,1.37053
384.02540,1.36574
383.78433,1.36179
383.54326,1.35563
383.30219,1.34046
383.06111,1.32255
382.82004,1.31627
382.57897,1.32682
382.33790,1.34103
382.09683,1.34119
381.85576,1.32717
381.61469,1.31370
381.37362,1.30861
381.13255,1.30684
380.89148,1.30311
380.65041,1.29702
380.40934,1.28835
380.16827,1.27710
379.92720,1.26623
379.68613,1.25932
379.44506,1.25694
379.20399,1.25890
378.96292,1.26798
378.72184,1.28731
378.48077,1.31079
378.23970,1.32284
377.99863,1.32026
377.75756,1.32302
377.51649,1.34774
377.27542,1.38420
377.03435,1.40818
376.79328,1.41158
376.55221,1.40487
376.31114,1.39751
376.07007,1.39481
375.82900,1.40090
375.58793,1.41313
375.34686,1.42559
375.10579,1.43767
374.86472,1.44924
374.62365,1.45418
374.38257,1.44547
374.14150,1.42556
373.90043,1.40602
373.65936,1.39632
373.41829,1.39727
373.17722,1.40417
372.93615,1.41202
372.69508,1.41616
372.45401,1.41441
372.21294,1.40974
371.97187,1.40592
371.73080,1.40331
371.48973,1.40024
371.24866,1.39595
371.00759,1.39272
370.76652,1.39393
370.52545,1.40030
370.28437,1.40997
370.04330,1.41928
369.80223,1.42261
369.56116,1.41576
369.32009,1.40387
369.07902,1.39952
368.83795,1.40609
368.59688,1.41020
368.35581,1.39822
368.11474,1.37454
367.87367,1.35482
367.63260,1.34854
367.39153,1.35360
367.15046,1.36168
366.90939,1.36612
366.66832,1.36618
366.42725,1.36406
366.18618,1.36008
365.94510,1.35332
365.70403,1.34466
365.46296,1.33676
365.22189,1.33291
364.98082,1.33666
364.73975,1.34970
364.49868,1.36665
364.25761,1.37578
364.01654,1.37067
363.77547,1.35729
363.53440,1.34495
363.29333,1.33608
363.05226,1.32812
362.81119,1.31970
362.57012,1.31145
362.32905,1.30558
362.08798,1.30438
361.84691,1.30559
361.60583,1.30345
361.36476,1.29736
361.12369,1.29360
360.88262,1.29476
360.64155,1.29672
360.40048,1.29800
360.15941,1.30344
359.91834,1.31480
359.67727,1.32374
359.43620,1.32079
359.19513,1.30860
358.95406,1.29835
358.71299,1.29504
358.47192,1.29386
358.23085,1.28985
357.98978,1.28566
357.74871,1.28646
357.50764,1.28969
357.26656,1.28808
357.02549,1.28196
356.78442,1.27844
356.54335,1.27907
356.30228,1.27882
356.06121,1.27549
355.82014,1.27265
355.57907,1.27444
355.33800,1.28233
355.09693,1.29422
354.85586,1.30468
354.61479,1.30900
354.37372,1.30829
354.13265,1.30736
353.89158,1.30696
353.65051,1.30292
353.40944,1.29312
353.16837,1.28161
352.92729,1.27474
352.68622,1.27447
352.44515,1.27738
352.20408,1.27966
351.96301,1.28038
351.72194,1.28071
351.48087,1.28133
351.23980,1.28029
350.99873,1.27499
350.75766,1.26704
350.51659,1.26173
350.27552,1.26223
350.03445,1.26753
349.79338,1.27459
349.55231,1.28074
349.31124,1.28567
349.07017,1.29171
348.82910,1.30048
348.58802,1.30874
348.34695,1.31118
348.10588,1.30650
347.86481,1.29573
347.62374,1.28088
347.38267,1.26948
347.14160,1.27060
346.90053,1.28365
346.65946,1.29672
346.41839,1.30065
346.17732,1.29962
345.93625,1.30131
345.69518,1.30626
345.45411,1.31192
345.21304,1.31881
344.97197,1.32664
344.73090,1.33053
344.48983,1.32729
344.24875,1.32044
344.00768,1.31767
343.76661,1.32494
343.52554,1.33942
343.28447,1.35031
343.04340,1.35114
342.80233,1.34716
342.56126,1.34690
342.32019,1.35217
342.07912,1.35942
341.83805,1.36649
341.59698,1.37355
341.35591,1.37860
341.11484,1.37813
340.87377,1.37308
340.63270,1.36950
340.39163,1.37220
340.15056,1.37933
339.90948,1.38530
339.66841,1.38863
339.42734,1.39186
339.18627,1.39575
338.94520,1.39997
338.70413,1.40673
338.46306,1.41732
338.22199,1.42667
337.98092,1.42652
337.73985,1.41462
337.49878,1.39900
337.25771,1.39191
337.01664,1.39648
336.77557,1.40188
336.53450,1.39785
336.29343,1.38875
336.05236,1.38577
335.81129,1.39079
335.57021,1.39411
335.32914,1.38830
335.08807,1.38050
334.84700,1.38346
334.60593,1.39754
334.36486,1.40997
334.12379,1.41060
333.88272,1.40082
333.64165,1.38596
333.40058,1.36924
333.15951,1.35238
332.91844,1.33771
332.67737,1.32909
332.43630,1.32857
332.19523,1.33195
331.95416,1.33282
331.71309,1.33254
331.47202,1.33821
331.23094,1.34884
330.98987,1.35353
330.74880,1.34742
330.50773,1.33960
330.26666,1.33898
330.02559,1.34129
329.78452,1.33700
329.54345,1.32816
329.30238,1.32450
329.06131,1.32541
328.82024,1.32152
328.57917,1.31109
328.33810,1.30389
328.09703,1.30963
327.85596,1.32481
327.61489,1.33425
327.37382,1.32836
327.13275,1.31212
326.89167,1.29469
326.65060,1.28184
326.40953,1.27880
326.16846,1.28863
325.92739,1.30566
325.68632,1.31955
325.44525,1.32735
325.20418,1.33260
324.96311,1.33707
324.72204,1.34233
324.48097,1.34931
324.23990,1.35328
323.99883,1.34647
323.75776,1.32743
323.51669,1.30471
323.27562,1.29024
323.03455,1.29085
322.79348,1.30197
322.55240,1.30934
322.31133,1.30397
322.07026,1.29130
321.82919,1.28068
321.58812,1.27779
321.34705,1.28463
321.10598,1.29699
320.86491,1.30617
320.62384,1.30980
320.38277,1.31330
320.14170,1.31675
319.90063,1.31610
319.65956,1.31211
319.41849,1.30854
319.17742,1.30732
318.93635,1.30727
318.69528,1.30664
318.45421,1.30883
318.21313,1.31992
317.97206,1.33383
317.73099,1.33355
317.48992,1.31549
317.24885,1.29598
317.00778,1.28926
316.76671,1.29499
316.52564,1.30527
316.28457,1.31343
316.04350,1.31671
315.80243,1.31720
315.56136,1.31687
315.32029,1.31184
315.07922,1.30224
314.83815,1.30138
314.59708,1.32004
314.35601,1.34507
314.11494,1.35020
313.87386,1.33328
313.63279,1.31808
313.39172,1.31818
313.15065,1.32689
312.90958,1.33615
312.66851,1.34681
312.42744,1.35933
312.18637,1.36657
311.94530,1.36682
311.70423,1.36774
311.46316,1.37249
311.22209,1.37700
310.98102,1.37868
310.73995,1.37973
310.49888,1.38319
310.25781,1.38911
310.01674,1.39467
309.77567,1.39630
309.53459,1.39375
309.29352,1.39233
309.05245,1.39799
308.81138,1.41157
308.57031,1.42732
308.32924,1.43696
308.08817,1.43901
307.84710,1.43999
307.60603,1.44091
307.36496,1.43629
307.12389,1.42699
306.88282,1.41922
306.64175,1.41432
306.40068,1.40855
306.15961,1.40084
305.91854,1.39339
305.67747,1.38902
305.43640,1.39221
305.19532,1.40127
304.95425,1.40278
304.71318,1.38947
304.47211,1.37500
304.23104,1.37256
303.98997,1.37643
303.74890,1.37515
303.50783,1.36812
303.26676,1.36188
303.02569,1.36073
302.78462,1.36488
302.54355,1.37107
302.30248,1.37253
302.06141,1.36375
301.82034,1.34822
301.57927,1.33584
301.33820,1.33301
301.09713,1.33805
300.85605,1.34339
300.61498,1.34228
300.37391,1.33399
300.13284,1.32239
299.89177,1.31339
299.65070,1.31305
299.40963,1.32165
299.16856,1.32977
298.92749,1.32689
298.68642,1.31401
298.44535,1.29975
298.20428,1.28886
297.96321,1.28263
297.72214,1.28081
297.48107,1.27929
297.24000,1.27379
296.99893,1.26563
296.75786,1.25921
296.51678,1.25649
296.27571,1.25601
296.03464,1.25529
295.79357,1.25288
295.55250,1.24907
295.31143,1.24429
295.07036,1.23800
294.82929,1.23097
294.58822,1.22616
294.34715,1.22521
294.10608,1.22534
293.86501,1.22228
293.62394,1.21597
293.38287,1.21005
293.14180,1.20688
292.90073,1.20590
292.65966,1.20455
292.41859,1.20117
292.17751,1.19767
291.93644,1.19769
291.69537,1.20067
291.45430,1.20029
291.21323,1.19338
290.97216,1.18581
290.73109,1.18392
290.49002,1.18648
290.24895,1.18825
290.00788,1.18692
289.76681,1.18408
289.52574,1.18183
289.28467,1.18074
289.04360,1.18059
288.80253,1.18146
288.56146,1.18320
288.32039,1.18468
288.07932,1.18463
287.83824,1.18327
287.59717,1.18144
287.35610,1.17881
287.11503,1.17469
286.87396,1.16949
286.63289,1.16488
286.39182,1.16337
286.15075,1.16590
285.90968,1.16968
285.66861,1.17097
285.42754,1.16884
285.18647,1.16384
284.94540,1.15718
284.70433,1.15260
284.46326,1.15262
284.22219,1.15403
283.98112,1.15315
283.74005,1.15185
283.49897,1.15231
283.25790,1.15154
283.01683,1.14726
282.77576,1.14355
282.53469,1.14522
282.29362,1.15104
282.05255,1.15533
281.81148,1.15469
281.57041,1.15097
281.32934,1.14758
281.08827,1.14599
280.84720,1.14658
280.60613,1.14990
280.36506,1.15468
280.12399,1.15755
279.88292,1.15747
279.64185,1.15706
279.40078,1.15787
279.15970,1.15882
278.91863,1.16005
278.67756,1.16352
278.43649,1.16895
278.19542,1.17286
277.95435,1.17236
277.71328,1.16823
277.47221,1.16419
277.23114,1.16304
276.99007,1.16372
276.74900,1.16281
276.50793,1.15903
276.26686,1.15390
276.02579,1.14943
275.78472,1.14754
275.54365,1.15003
275.30258,1.15627
275.06151,1.16188
274.82043,1.16273
274.57936,1.15946
274.33829,1.15635
274.09722,1.15644
273.85615,1.15916
273.61508,1.16230
273.37401,1.16453
273.13294,1.16582
272.89187,1.16701
272.65080,1.16916
272.40973,1.17238
272.16866,1.17581
271.92759,1.17870
271.68652,1.18087
271.44545,1.18240
271.20438,1.18388
270.96331,1.18664
270.72224,1.19170
270.48116,1.19830
270.24009,1.20447
269.99902,1.20981
269.75795,1.21607
269.51688,1.22338
269.27581,1.22814
269.03474,1.22772
268.79367,1.22506
268.55260,1.22566
268.31153,1.23223
268.07046,1.24337
267.82939,1.25494
267.58832,1.26297
267.34725,1.26669
267.10618,1.26731
266.86511,1.26585
266.62404,1.26442
266.38297,1.26651
266.14189,1.27324
265.90082,1.28088
265.65975,1.28552
265.41868,1.28904
265.17761,1.29625
264.93654,1.30800
264.69547,1.32174
264.45440,1.33610
264.21333,1.35100
263.97226,1.36505
263.73119,1.37580
263.49012,1.38200
263.24905,1.38495
263.00798,1.38906
262.76691,1.40027
262.52584,1.42050
262.28477,1.44350
262.04370,1.45958
261.80262,1.46634
261.56155,1.47250
261.32048,1.48888
261.07941,1.51731
260.83834,1.55011
260.59727,1.57812
260.35620,1.59736
260.11513,1.60935
259.87406,1.62225
259.63299,1.64708
259.39192,1.68502
259.15085,1.72129
258.90978,1.73786
258.66871,1.73843
258.42764,1.74690
258.18657,1.77766
257.94550,1.81945
257.70443,1.84955
257.46335,1.85921
257.22228,1.85881
256.98121,1.86329
256.74014,1.87442
256.49907,1.87257
256.25800,1.84229
256.01693,1.80146
255.77586,1.77267
255.53479,1.75445
255.29372,1.73193
255.05265,1.70283
254.81158,1.68128
254.57051,1.67606
254.32944,1.67900
254.08837,1.68054
253.84730,1.68228
253.60623,1.68041
253.36516,1.66191
253.12408,1.63136
252.88301,1.61186
252.64194,1.61469
252.40087,1.62685
252.15980,1.62698
251.91873,1.61032
251.67766,1.58931
251.43659,1.57425
251.19552,1.56806
250.95445,1.57048
250.71338,1.57898
250.47231,1.58728
250.23124,1.58788
249.99017,1.57678
249.74910,1.55417
249.50803,1.52804
249.26696,1.51270
249.02589,1.51475
248.78481,1.52591
248.54374,1.53416
248.30267,1.53814
248.06160,1.54426
247.82053,1.55504
247.57946,1.56729
247.33839,1.57818
247.09732,1.58626
246.85625,1.59133
246.61518,1.59781
246.37411,1.61083
246.13304,1.62792
245.89197,1.64047
245.65090,1.64577
245.40983,1.65312
245.16876,1.67092
244.92769,1.70046
244.68661,1.73497
244.44554,1.75943
244.20447,1.77238
243.96340,1.79626
243.72233,1.84953
243.48126,1.91648
243.24019,1.96058
242.99912,1.96445
242.75805,1.93771
242.51698,1.91221
242.27591,1.89893
242.03484,1.85839
241.79377,1.78477
241.55270,1.71248
241.31163,1.64351
241.07056,1.57320
240.82949,1.50714
240.58842,1.45395
240.34734,1.41422
240.10627,1.37980
239.86520,1.34362
239.62413,1.30583
239.38306,1.27055
239.14199,1.24011
238.90092,1.21383
238.65985,1.19014
238.41878,1.16774
238.17771,1.14570
237.93664,1.12410
237.69557,1.10400
237.45450,1.08606
237.21343,1.06986
236.97236,1.05537
236.73129,1.04362
236.49022,1.03456
236.24915,1.02568
236.00807,1.01440
235.76700,1.00172
235.52593,0.99063
235.28486,0.98210
235.04379,0.97511
234.80272,0.96891
234.56165,0.96271
234.32058,0.95527
234.07951,0.94717
233.83844,0.94105
233.59737,0.93770
233.35630,0.93483
233.11523,0.93092
232.87416,0.92708
232.63309,0.92418
232.39202,0.92098
232.15095,0.91594
231.90988,0.90894
231.66880,0.90119
231.42773,0.89471
231.18666,0.89135
230.94559,0.89153
230.70452,0.89392
230.46345,0.89664
230.22238,0.89809
229.98131,0.89726
229.74024,0.89438
229.49917,0.89084
229.25810,0.88746
229.01703,0.88341
228.77596,0.87819
228.53489,0.87410
228.29382,0.87369
228.05275,0.87443
227.81168,0.87045
227.57061,0.86160
227.32953,0.85461
227.08846,0.85366
226.84739,0.85656
226.60632,0.85964
226.36525,0.86065
226.12418,0.85773
225.88311,0.85100
225.64204,0.84416
225.40097,0.84067
225.15990,0.83977
224.91883,0.83866
224.67776,0.83713
224.43669,0.83762
224.19562,0.84143
223.95455,0.84706
223.71348,0.85195
223.47241,0.85472
223.23134,0.85616
222.99026,0.85836
222.74919,0.86220
222.50812,0.86634
222.26705,0.86959
222.02598,0.87250
221.78491,0.87521
221.54384,0.87661
221.30277,0.87710
221.06170,0.87978
220.82063,0.88760
220.57956,0.90013
220.33849,0.91351
220.09742,0.92387
219.85635,0.93068
219.61528,0.93592
219.37421,0.94128
219.13314,0.94760
218.89207,0.95558
218.65099,0.96546
218.40992,0.97640
218.16885,0.98724
217.92778,0.99829
217.68671,1.01166
217.44564,1.02798
217.20457,1.04401
216.96350,1.05628
216.72243,1.06644
216.48136,1.07892
216.24029,1.09517
215.99922,1.11303
215.75815,1.12871
215.51708,1.13805
215.27601,1.14006
215.03494,1.13969
214.79387,1.14313
214.55280,1.15200
214.31172,1.16485
214.07065,1.18162
213.82958,1.20338
213.58851,1.22696
213.34744,1.24407
213.10637,1.24955
212.86530,1.24748
212.62423,1.24486
212.38316,1.24407
212.14209,1.24566
211.90102,1.25186
211.65995,1.26345
211.41888,1.27697
211.17781,1.28708
210.93674,1.29028
210.69567,1.28575
210.45460,1.27553
210.21353,1.26513
209.97245,1.25912
209.73138,1.25692
209.49031,1.25689
209.24924,1.25980
209.00817,1.26508
208.76710,1.26796
208.52603,1.26343
208.28496,1.25148
208.04389,1.23618
207.80282,1.22214
207.56175,1.21372
207.32068,1.21310
207.07961,1.21666
206.83854,1.21543
206.59747,1.20335
206.35640,1.18448
206.11533,1.16716
205.87426,1.15338
205.63318,1.13932
205.39211,1.12368
205.15104,1.10905
204.90997,1.09669
204.66890,1.08524
204.42783,1.07368
204.18676,1.06237
203.94569,1.05191
203.70462,1.04377
203.46355,1.03991
203.22248,1.03893
202.98141,1.03443
202.74034,1.01996
202.49927,0.99626
202.25820,0.97071
202.01713,0.94984
201.77606,0.93572
201.53499,0.92687
201.29391,0.91966
201.05284,0.90982
200.81177,0.89519
200.57070,0.87783
200.32963,0.86219
200.08856,0.85083
199.84749,0.84296
199.60642,0.83605
199.36535,0.82796
199.12428,0.81774
198.88321,0.80578
198.64214,0.79367
198.40107,0.78329
198.16000,0.77552
197.91893,0.76913
197.67786,0.76157
197.43679,0.75182
197.19572,0.74179
196.95464,0.73344
196.71357,0.72642
196.47250,0.71941
196.23143,0.71155
195.99036,0.70243
195.74929,0.69270
195.50822,0.68480
195.26715,0.68082
195.02608,0.67947
194.78501,0.67716
194.54394,0.67200
194.30287,0.66536
194.06180,0.65949
193.82073,0.65490
193.57966,0.65024
193.33859,0.64424
193.09752,0.63743
192.85645,0.63163
192.61537,0.62788
192.37430,0.62511
192.13323,0.62129
191.89216,0.61602
191.65109,0.61080
191.41002,0.60701
191.16895,0.60443
190.92788,0.60183
190.68681,0.59826
190.44574,0.59415
190.20467,0.59122
189.96360,0.59037
189.72253,0.59010
189.48146,0.58823
189.24039,0.58458
188.99932,0.58065
188.75825,0.57772
188.51718,0.57607
188.27610,0.57515
188.03503,0.57402
187.79396,0.57248
187.55289,0.57134
187.31182,0.57109
187.07075,0.57102
186.82968,0.57019
186.58861,0.56854
186.34754,0.56685
186.10647,0.56581
185.86540,0.56502
185.62433,0.56338
185.38326,0.56129
185.14219,0.56079
184.90112,0.56216
184.66005,0.56291
184.41898,0.56216
184.17791,0.56283
183.93683,0.56713
183.69576,0.57268
183.45469,0.57513
183.21362,0.57355
182.97255,0.57143
182.73148,0.57190
182.49041,0.57396
182.24934,0.57505
182.00827,0.57564
181.76720,0.57764
181.52613,0.58044
181.28506,0.58199
181.04399,0.58219
180.80292,0.58233
180.56185,0.58311
180.32078,0.58508
180.07971,0.58852
179.83864,0.59250
179.59756,0.59585
179.35649,0.59892
179.11542,0.60291
178.87435,0.60860
178.63328,0.61617
178.39221,0.62502
178.15114,0.63384
177.91007,0.64204
177.66900,0.65077
177.42793,0.66121
177.18686,0.67284
176.94579,0.68504
176.70472,0.69880
176.46365,0.71475
176.22258,0.73104
175.98151,0.74605
175.74044,0.76174
175.49937,0.78115
175.25829,0.80366
175.01722,0.82491
174.77615,0.84162
174.53508,0.85550
174.29401,0.87094
174.05294,0.88902
173.81187,0.90571
173.57080,0.91718
173.32973,0.92478
173.08866,0.93263
172.84759,0.94241
172.60652,0.95256
172.36545,0.96104
172.12438,0.96730
171.88331,0.97167
171.64224,0.97383
171.40117,0.97269
171.16010,0.96842
170.91902,0.96344
170.67795,0.95979
170.43688,0.95606
170.19581,0.94913
169.95474,0.93902
169.71367,0.92864
169.47260,0.91940
169.23153,0.91090
168.99046,0.90349
168.74939,0.89831
168.50832,0.89555
168.26725,0.89483
168.02618,0.89627
167.78511,0.90009
167.54404,0.90590
167.30297,0.91230
167.06190,0.91702
166.82083,0.91837
166.57975,0.91683
166.33868,0.91457
166.09761,0.91329
165.85654,0.91361
165.61547,0.91602
165.37440,0.92057
165.13333,0.92644
164.89226,0.93299
164.65119,0.94005
164.41012,0.94686
164.16905,0.95319
163.92798,0.96136
163.68691,0.97355
163.44584,0.98688
163.20477,0.99557
162.96370,0.99892
162.72263,1.00206
162.48156,1.00786
162.24048,1.01406
161.99941,1.01876
161.75834,1.02289
161.51727,1.02636
161.27620,1.02762
161.03513,1.02800
160.79406,1.03068
160.55299,1.03428
160.31192,1.03331
160.07085,1.02574
159.82978,1.01505
159.58871,1.00545
159.34764,0.99912
159.10657,0.99667
158.86550,0.99734
158.62443,0.99922
158.38336,0.99979
158.14229,0.99655
157.90121,0.98836
157.66014,0.97639
157.41907,0.96376
157.17800,0.95394
156.93693,0.94863
156.69586,0.94664
156.45479,0.94537
156.21372,0.94331
155.97265,0.93993
155.73158,0.93385
155.49051,0.92369
155.24944,0.91062
155.00837,0.89773
154.76730,0.88659
154.52623,0.87572
154.28516,0.86292
154.04409,0.84818
153.80302,0.83330
153.56194,0.81956
153.32087,0.80675
153.07980,0.79399
152.83873,0.78084
152.59766,0.76758
152.35659,0.75459
152.11552,0.74155
151.87445,0.72760
151.63338,0.71231
151.39231,0.69635
151.15124,0.68137
150.91017,0.66869
150.66910,0.65764
150.42803,0.64595
150.18696,0.63255
149.94589,0.61903
149.70482,0.60758
149.46375,0.59862
149.22267,0.59119
148.98160,0.58423
148.74053,0.57677
148.49946,0.56831
148.25839,0.55993
148.01732,0.55375
147.77625,0.55082
147.53518,0.55015
147.29411,0.54983
147.05304,0.54875
146.81197,0.54753
146.57090,0.54774
146.32983,0.54978
146.08876,0.55212
145.84769,0.55343
145.60662,0.55447
145.36555,0.55703
145.12448,0.56213
144.88340,0.56939
144.64233,0.57711
144.40126,0.58292
144.16019,0.58566
143.91912,0.58626
143.67805,0.58617
143.43698,0.58543
143.19591,0.58276
142.95484,0.57725
142.71377,0.56962
142.47270,0.56158
142.23163,0.55394
141.99056,0.54594
141.74949,0.53712
141.50842,0.52872
141.26735,0.52230
141.02628,0.51796
140.78521,0.51442
140.54413,0.51040
140.30306,0.50580
140.06199,0.50237
139.82092,0.50239
139.57985,0.50592
139.33878,0.51036
139.09771,0.51369
138.85664,0.51674
138.61557,0.52122
138.37450,0.52722
138.13343,0.53405
137.89236,0.54228
137.65129,0.55296
137.41022,0.56544
137.16915,0.57796
136.92808,0.59082
136.68701,0.60644
136.44594,0.62548
136.20486,0.64587
135.96379,0.66650
135.72272,0.68881
135.48165,0.71382
135.24058,0.74132
134.99951,0.77144
134.75844,0.80335
134.51737,0.83390
134.27630,0.86158
134.03523,0.88939
133.79416,0.91985
133.55309,0.95038
133.31202,0.97763
133.07095,1.00376
132.82988,1.03362
132.58881,1.06758
132.34774,1.10023
132.10667,1.12535
131.86559,1.14067
131.62452,1.14796
131.38345,1.14941
131.14238,1.14503
130.90131,1.13444
130.66024,1.11944
130.41917,1.10225
130.17810,1.08385
129.93703,1.06509
129.69596,1.04665
129.45489,1.02590
129.21382,0.99702
128.97275,0.95768
128.73168,0.91270
128.49061,0.86956
128.24954,0.83194
128.00847,0.79867
127.76740,0.76785
127.52632,0.73911
127.28525,0.71267
127.04418,0.68841
126.80311,0.66641
126.56204,0.64708
126.32097,0.62963
126.07990,0.61204
125.83883,0.59348
125.59776,0.57577
125.35669,0.56115
125.11562,0.54927
124.87455,0.53768
124.63348,0.52496
124.39241,0.51209
124.15134,0.50065
123.91027,0.49114
123.66920,0.48305
123.42812,0.47562
123.18705,0.46822
122.94598,0.46087
122.70491,0.45476
122.46384,0.45152
122.22277,0.45097
121.98170,0.45031
121.74063,0.44729
121.49956,0.44376
121.25849,0.44361
121.01742,0.44810
120.77635,0.45519
120.53528,0.46266
120.29421,0.47034
120.05314,0.47956
119.81207,0.49145
119.57100,0.50624
119.32993,0.52394
119.08885,0.54478
118.84778,0.56854
118.60671,0.59404
118.36564,0.62060
118.12457,0.64904
117.88350,0.67951
117.64243,0.70941
117.40136,0.73551
117.16029,0.75733
116.91922,0.77604
116.67815,0.79074
116.43708,0.79776
116.19601,0.79402
115.95494,0.78030
115.71387,0.76164
115.47280,0.74447
115.23173,0.73177
114.99066,0.72120
114.74958,0.70922
114.50851,0.69585
114.26744,0.68416
114.02637,0.67685
113.78530,0.67469
113.54423,0.67629
113.30316,0.67844
113.06209,0.67886
112.82102,0.67863
112.57995,0.67984
112.33888,0.68217
112.09781,0.68414
111.85674,0.68562
111.61567,0.68665
111.37460,0.68622
111.13353,0.68429
110.89246,0.68286
110.65139,0.68336
110.41031,0.68460
110.16924,0.68432
109.92817,0.68219
109.68710,0.67967
109.44603,0.67677
109.20496,0.67040
108.96389,0.65735
108.72282,0.63762
108.48175,0.61385
108.24068,0.58893
107.99961,0.56471
107.75854,0.54203
107.51747,0.52188
107.27640,0.50611
107.03533,0.49584
106.79426,0.48952
106.55319,0.48297
106.31212,0.47178
106.07104,0.45453
105.82997,0.43416
105.58890,0.41562
105.34783,0.40245
105.10676,0.39489
104.86569,0.39053
104.62462,0.38647
104.38355,0.38116
104.14248,0.37398
103.90141,0.36435
103.66034,0.35257
103.41927,0.34045
103.17820,0.32987
102.93713,0.32175
102.69606,0.31652
102.45499,0.31389
102.21392,0.31221
101.97285,0.30906
101.73177,0.30293
101.49070,0.29430
101.24963,0.28567
101.00856,0.28025
100.76749,0.27961
100.52642,0.28162
100.28535,0.28150
100.04428,0.27619
99.80321,0.26779
99.56214,0.26096
99.32107,0.25844
99.08000,0.25956
98.83893,0.26109
98.59786,0.25976
98.35679,0.25514
98.11572,0.25017
97.87465,0.24830
97.63358,0.25058
97.39250,0.25483
97.15143,0.25767
96.91036,0.25828
96.66929,0.25932
96.42822,0.26356
96.18715,0.27082
95.94608,0.27817
95.70501,0.28325
95.46394,0.28677
95.22287,0.29105
94.98180,0.29744
94.74073,0.30524
94.49966,0.31167
94.25859,0.31423
94.01752,0.31437
93.77645,0.31581
93.53538,0.31865
93.29431,0.31871
93.05323,0.31485
92.81216,0.31205
92.57109,0.31415
92.33002,0.31773
92.08895,0.31633
91.84788,0.31117
91.60681,0.31080
91.36574,0.31855
91.12467,0.32901
90.88360,0.33912
90.64253,0.35477
90.40146,0.38023
90.16039,0.41111
89.91932,0.44391
89.67825,0.48267
89.43718,0.52962
89.19611,0.57964
88.95504,0.62645
88.71396,0.66499
88.47289,0.68916
88.23182,0.69580
87.99075,0.68722
87.74968,0.66624
87.50861,0.63506
87.26754,0.59771
87.02647,0.55893
86.78540,0.52147
86.54433,0.48649
86.30326,0.45510
86.06219,0.42762
85.82112,0.40308
85.58005,0.38087
85.33898,0.36124
85.09791,0.34341
84.85684,0.32584
84.61577,0.30871
84.37469,0.29377
84.13362,0.28197
83.89255,0.27245
83.65148,0.26332
83.41041,0.25301
83.16934,0.24200
82.92827,0.23239
82.68720,0.22505
82.44613,0.21877
82.20506,0.21267
81.96399,0.20750
81.72292,0.20404
81.48185,0.20172
81.24078,0.19916
80.99971,0.19570
80.75864,0.19193
80.51757,0.18879
80.27650,0.18642
80.03542,0.18422
79.79435,0.18180
79.55328,0.17947
79.31221,0.17795
79.07114,0.17737
78.83007,0.17702
78.58900,0.17613
78.34793,0.17453
78.10686,0.17220
77.86579,0.16910
77.62472,0.16564
77.38365,0.16250
77.14258,0.16004
76.90151,0.15825
76.66044,0.15705
76.41937,0.15654
76.17830,0.15667
75.93723,0.15670
75.69615,0.15555
75.45508,0.15318
75.21401,0.15083
74.97294,0.14960
74.73187,0.14958
74.49080,0.15026
74.24973,0.15125
74.00866,0.15256
73.76759,0.15440
73.52652,0.15579
73.28545,0.15434
73.04438,0.14925
72.80331,0.14375
72.56224,0.14253
72.32117,0.14730
72.08010,0.15556
71.83903,0.16286
71.59796,0.16558
71.35688,0.16282
71.11581,0.15689
70.87474,0.15170
70.63367,0.15027
70.39260,0.15381
70.15153,0.16276
69.91046,0.17737
69.66939,0.19652
69.42832,0.21677
69.18725,0.23273
68.94618,0.23900
68.70511,0.23354
68.46404,0.21946
68.22297,0.20191
67.98190,0.18437
67.74083,0.16885
67.49976,0.15712
67.25869,0.14946
67.01761,0.14397
66.77654,0.13869
66.53547,0.13363
66.29440,0.12992
66.05333,0.12830
65.81226,0.12896
65.57119,0.13198
65.33012,0.13708
65.08905,0.14349
64.84798,0.15077
64.60691,0.15952
64.36584,0.17054
64.12477,0.18274
63.88370,0.19206
63.64263,0.19423
63.40156,0.18897
63.16049,0.18006
62.91942,0.17104
62.67834,0.16234
62.43727,0.15310
62.19620,0.14384
61.95513,0.13574
61.71406,0.12868
61.47299,0.12184
61.23192,0.11545
60.99085,0.11055
60.74978,0.10763
60.50871,0.10641
60.26764,0.10654
60.02657,0.10778
59.78550,0.10964
59.54443,0.11134
59.30336,0.11263
59.06229,0.11430
58.82122,0.11749
58.58015,0.12242
58.33907,0.12859
58.09800,0.13617
57.85693,0.14581
57.61586,0.15634
57.37479,0.16360
57.13372,0.16372
56.89265,0.15725
56.65158,0.14796
56.41051,0.13814
56.16944,0.12755
55.92837,0.11571
55.68730,0.10364
55.44623,0.09405
55.20516,0.09012
54.96409,0.09314
54.72302,0.10192
54.48195,0.11529
54.24088,0.13348
53.99980,0.15448
53.75873,0.16987
53.51766,0.16987
53.27659,0.15459
53.03552,0.13279
52.79445,0.11317
52.55338,0.10106
52.31231,0.09900
52.07124,0.10824
51.83017,0.12813
51.58910,0.15052
51.34803,0.15709
51.10696,0.13757
50.86589,0.10610
50.62482,0.08294
50.38375,0.07988
50.14268,0.10076
49.90161,0.13801
49.66053,0.16391
49.41946,0.15209
49.17839,0.12095
48.93732,0.10330
48.69625,0.11325
48.45518,0.14719
48.21411,0.17729
47.97304,0.16663
47.73197,0.13033
47.49090,0.10917
47.24983,0.11856
47.00876,0.14024
46.76769,0.13441
46.52662,0.10346
46.28555,0.09059
46.04448,0.10833
45.80341,0.12298
45.56234,0.10518
45.32126,0.08637
45.08019,0.09429
44.83912,0.11282
44.59805,0.11354
44.35698,0.10387
44.11591,0.10116
43.87484,0.10282
43.63377,0.10379
43.39270,0.10729
43.15163,0.11346
42.91056,0.11804
42.66949,0.11969
42.42842,0.11933
42.18735,0.11757
41.94628,0.11537
41.70521,0.11413
41.46414,0.11387
41.22307,0.11312
40.98199,0.11200
40.74092,0.11322
40.49985,0.11814
40.25878,0.12598
40.01771,0.13652
39.77664,0.14699
39.53557,0.15138
39.29450,0.15010
39.05343,0.15221
38.81236,0.16346
38.57129,0.17841
38.33022,0.18649
38.08915,0.18676
37.84808,0.19047
37.60701,0.20254
37.36594,0.21056
37.12487,0.20390
36.88380,0.19074
36.64272,0.18035
36.40165,0.17105
36.16058,0.16129
35.91951,0.15533
35.67844,0.15708
35.43737,0.16473
35.19630,0.17100
34.95523,0.16956
34.71416,0.16110
34.47309,0.15044
34.23202,0.14292
33.99095,0.14341
33.74988,0.14952
33.50881,0.15240
33.26774,0.14991
33.02667,0.14702
32.78560,0.14690
32.54453,0.14814
32.30345,0.14439
32.06238,0.12964
31.82131,0.10744
31.58024,0.08577
31.33917,0.06605
31.09810,0.04579
30.85703,0.02881
30.61596,0.02606
30.37489,0.04119
30.13382,0.06005
29.89275,0.06358
29.65168,0.04721
29.41061,0.02420
29.16954,0.01015
28.92847,0.00857
28.68740,0.01129
28.44633,0.00660
28.20526,-0.00760
27.96418,-0.02059
27.72311,-0.02593
27.48204,-0.03094
27.24097,-0.04491
26.99990,-0.07015
26.75883,-0.10146
26.51776,-0.12541
26.27669,-0.12779
26.03562,-0.11228
25.79455,-0.10331
25.55348,-0.11715
25.31241,-0.14092
25.07134,-0.15212
24.83027,-0.15463
24.58920,-0.17030
24.34813,-0.19990
24.10706,-0.22319
23.86599,-0.22340
23.62491,-0.20510
23.38384,-0.19480
23.14277,-0.21017
22.90170,-0.24122
22.66063,-0.26971
22.41956,-0.28792
22.17849,-0.29443
21.93742,-0.29236
21.69635,-0.29530
21.45528,-0.30982
21.21421,-0.32516
20.97314,-0.33241
20.73207,-0.33853
20.49100,-0.35379
20.24993,-0.37097
20.00886,-0.37096
19.76779,-0.35225
19.52672,-0.33109
19.28564,-0.31623
19.04457,-0.30204
18.80350,-0.28869
18.56243,-0.28168
18.32136,-0.28777
18.08029,-0.31041
17.83922,-0.34550
17.59815,-0.37969
17.35708,-0.39004
17.11601,-0.42243
16.87494,-0.47026
16.63387,-0.45821
16.39280,-0.43254
16.15173,-0.42502
15.91066,-0.44034
15.66959,-0.45955
15.42852,-0.46099
15.18745,-0.44922
14.94637,-0.44141
14.70530,-0.43337
14.46423,-0.41919
14.22316,-0.41007
13.98209,-0.41099
13.74102,-0.41721
13.49995,-0.42423
13.25888,-0.43007
13.01781,-0.42324
12.77674,-0.39295
12.53567,-0.35149
12.29460,-0.32688
12.05353,-0.33555
11.81246,-0.36249
11.57139,-0.37353
11.33032,-0.35673
11.08925,-0.33403
10.84818,-0.32614
10.60710,-0.33599
10.36603,-0.35157
10.12496,-0.35957
9.88389,-0.36338
9.64282,-0.37528
9.40175,-0.39803
9.16068,-0.40621
8.91961,-0.38550
8.67854,-0.39103
8.43747,-0.42302
8.19640,-0.41684
7.95533,-0.38770
7.71426,-0.37190
7.47319,-0.37289
7.23212,-0.38098
6.99105,-0.39207
6.74998,-0.40949
6.50891,-0.41650
6.26783,-0.41607
6.02676,-0.42662
5.78569,-0.44406
5.54462,-0.45939
5.30355,-0.45656
5.06248,-0.41153
4.82141,-0.35754
4.58034,-0.33140
4.33927,-0.34014
4.09820,-0.36262
3.85713,-0.38104
3.61606,-0.39491
3.37499,-0.40386
3.13392,-0.41194
2.89285,-0.42619
2.65178,-0.43704
2.41071,-0.43009
2.16964,-0.40953
1.92856,-0.39596
1.68749,-0.39885
1.44642,-0.40606
1.20535,-0.40196
0.96428,-0.39066
0.72321,-0.41166
0.48214,-0.45821
0.24107,-0.43727
-0.00000,-0.11763
