399.69498,1.52532
399.45391,1.53254
399.21284,1.53858
398.97177,1.54491
398.73070,1.55488
398.48963,1.56897
398.24856,1.58118
398.00749,1.58584
397.76642,1.58552
397.52535,1.58646
397.28428,1.59092
397.04321,1.59590
396.80214,1.59394
396.56107,1.58062
396.32000,1.56361
396.07892,1.55495
395.83785,1.55371
395.59678,1.54558
395.35571,1.52263
395.11464,1.49449
394.87357,1.47561
394.63250,1.47492
394.39143,1.49569
394.15036,1.52730
393.90929,1.54248
393.66822,1.52563
393.42715,1.49618
393.18608,1.47864
392.94501,1.47750
392.70394,1.48493
392.46287,1.49328
392.22180,1.49512
391.98073,1.48459
391.73965,1.47004
391.49858,1.46723
391.25751,1.47800
391.01644,1.49185
390.77537,1.50146
390.53430,1.50590
390.29323,1.50476
390.05216,1.49932
389.81109,1.49494
389.57002,1.49617
389.32895,1.50352
389.08788,1.51286
388.84681,1.51697
388.60574,1.51089
388.36467,1.50129
388.12360,1.50019
387.88253,1.50061
387.64146,1.48731
387.40038,1.46734
387.15931,1.45859
386.91824,1.46226
386.67717,1.46523
386.43610,1.45429
386.19503,1.42819
385.95396,1.40197
385.71289,1.39200
385.47182,1.40490
385.23075,1.43057
384.98968,1.44436
384.74861,1.43225
384.50754,1.40174
384.26647,1.37099
384.02540,1.35352
383.78433,1.34940
383.54326,1.34744
383.30219,1.33676
383.06111,1.32038
382.82004,1.30938
382.57897,1.30697
382.33790,1.30484
382.09683,1.30192
381.85576,1.30714
381.61469,1.31587
381.37362,1.31015
381.13255,1.28657
380.89148,1.26064
380.65041,1.24793
380.40934,1.25502
380.16827,1.27793
379.92720,1.30586
379.68613,1.32564
379.44506,1.32315
379.20399,1.30045
378.96292,1.28059
378.72184,1.27774
378.48077,1.28712
378.23970,1.29732
377.99863,1.30202
377.75756,1.30098
377.51649,1.29826
377.27542,1.30332
377.03435,1.32156
376.79328,1.34352
376.55221,1.35642
376.31114,1.36281
376.07007,1.37214
375.82900,1.38498
375.58793,1.39592
375.34686,1.40227
375.10579,1.39981
374.86472,1.38550
374.62365,1.36930
374.38257,1.36875
374.14150,1.39038
373.90043,1.41987
373.65936,1.43438
373.41829,1.42843
373.17722,1.41772
372.93615,1.41216
372.69508,1.40620
372.45401,1.39426
372.21294,1.38034
371.97187,1.37364
371.73080,1.37878
371.48973,1.38934
371.24866,1.39492
371.00759,1.39397
370.76652,1.39254
370.52545,1.39361
370.28437,1.39402
370.04330,1.39004
369.80223,1.38259
369.56116,1.37665
369.32009,1.37616
369.07902,1.37999
368.83795,1.38181
368.59688,1.37446
368.35581,1.35662
368.11474,1.33604
367.87367,1.32379
367.63260,1.32335
367.39153,1.32610
367.15046,1.32188
366.90939,1.31229
366.66832,1.30689
366.42725,1.31030
366.18618,1.31878
365.94510,1.32708
365.70403,1.33307
365.46296,1.33434
365.22189,1.32801
364.98082,1.31694
364.73975,1.30842
364.49868,1.30641
364.25761,1.31088
364.01654,1.31933
363.77547,1.32505
363.53440,1.32180
363.29333,1.31379
363.05226,1.31143
362.81119,1.31532
362.57012,1.31444
362.32905,1.30424
362.08798,1.29441
361.84691,1.29090
361.60583,1.28631
361.36476,1.27608
361.12369,1.26903
360.88262,1.27543
360.64155,1.29224
360.40048,1.30422
360.15941,1.30218
359.91834,1.29279
359.67727,1.28700
359.43620,1.28777
359.19513,1.28992
358.95406,1.28922
358.71299,1.28902
358.47192,1.29424
358.23085,1.30115
357.98978,1.30010
357.74871,1.28899
357.50764,1.27625
357.26656,1.27002
357.02549,1.27171
356.78442,1.27692
356.54335,1.27835
356.30228,1.27355
356.06121,1.26855
355.82014,1.26806
355.57907,1.26806
355.33800,1.26355
355.09693,1.25732
354.85586,1.25455
354.61479,1.25355
354.37372,1.24954
354.13265,1.24314
353.89158,1.23842
353.65051,1.23755
353.40944,1.24110
353.16837,1.24801
352.92729,1.25569
352.68622,1.26171
352.44515,1.26401
352.20408,1.26211
351.96301,1.25787
351.72194,1.25471
351.48087,1.25603
351.23980,1.25990
350.99873,1.25789
350.75766,1.24548
350.51659,1.22885
350.27552,1.21831
350.03445,1.21825
349.79338,1.22641
349.55231,1.23817
349.31124,1.24789
349.07017,1.25214
348.82910,1.25496
348.58802,1.26343
348.34695,1.27470
348.10588,1.27661
347.86481,1.26682
347.62374,1.25741
347.38267,1.25693
347.14160,1.26194
346.90053,1.26745
346.65946,1.27501
346.41839,1.28573
346.17732,1.29474
345.93625,1.29895
345.69518,1.30200
345.45411,1.30565
345.21304,1.30543
344.97197,1.29981
344.73090,1.29462
344.48983,1.29640
344.24875,1.30748
344.00768,1.32642
343.76661,1.34613
343.52554,1.35644
343.28447,1.35655
343.04340,1.35356
342.80233,1.35120
342.56126,1.34920
342.32019,1.34683
342.07912,1.34325
341.83805,1.33879
341.59698,1.33720
341.35591,1.34192
341.11484,1.35026
340.87377,1.35564
340.63270,1.35662
340.39163,1.35828
340.15056,1.36291
339.90948,1.36727
339.66841,1.36894
339.42734,1.36976
339.18627,1.37303
338.94520,1.37889
338.70413,1.38407
338.46306,1.38754
338.22199,1.39311
337.98092,1.40213
337.73985,1.41078
337.49878,1.41470
337.25771,1.41355
337.01664,1.41107
336.77557,1.40986
336.53450,1.40964
336.29343,1.40864
336.05236,1.40432
335.81129,1.39655
335.57021,1.38765
335.32914,1.37802
335.08807,1.36732
334.84700,1.35577
334.60593,1.34275
334.36486,1.33056
334.12379,1.32729
333.88272,1.33660
333.64165,1.34680
333.40058,1.34074
333.15951,1.31896
332.91844,1.29898
332.67737,1.29196
332.43630,1.29421
332.19523,1.29792
331.95416,1.30104
331.71309,1.30660
331.47202,1.31550
331.23094,1.32224
330.98987,1.32251
330.74880,1.32002
330.50773,1.31974
330.26666,1.32182
330.02559,1.32248
329.78452,1.31644
329.54345,1.30141
329.30238,1.28209
329.06131,1.26665
328.82024,1.25988
328.57917,1.26254
328.33810,1.27375
328.09703,1.29164
327.85596,1.31221
327.61489,1.32754
327.37382,1.32713
327.13275,1.30852
326.89167,1.28438
326.65060,1.26949
326.40953,1.26637
326.16846,1.26647
325.92739,1.26410
325.68632,1.26457
325.44525,1.27387
325.20418,1.28917
324.96311,1.30485
324.72204,1.31959
324.48097,1.32842
324.23990,1.32188
323.99883,1.30508
323.75776,1.29636
323.51669,1.30409
323.27562,1.32003
323.03455,1.33135
322.79348,1.33315
322.55240,1.32902
322.31133,1.32443
322.07026,1.32053
321.82919,1.31707
321.58812,1.31852
321.34705,1.32553
321.10598,1.33093
320.86491,1.32821
320.62384,1.31678
320.38277,1.29965
320.14170,1.28145
319.90063,1.27232
319.65956,1.28133
319.41849,1.30501
319.17742,1.32702
318.93635,1.33177
318.69528,1.32040
318.45421,1.30136
318.21313,1.27850
317.97206,1.26152
317.73099,1.26464
317.48992,1.28713
317.24885,1.30676
317.00778,1.30628
316.76671,1.29698
316.52564,1.29462
316.28457,1.30000
316.04350,1.30757
315.80243,1.31569
315.56136,1.32652
315.32029,1.33541
315.07922,1.33351
314.83815,1.32610
314.59708,1.32359
314.35601,1.32756
314.11494,1.33547
313.87386,1.34846
313.63279,1.36883
313.39172,1.39256
313.15065,1.40228
312.90958,1.38338
312.66851,1.35353
312.42744,1.34165
312.18637,1.35596
311.94530,1.37891
311.70423,1.38586
311.46316,1.37399
311.22209,1.35994
310.98102,1.35328
310.73995,1.35182
310.49888,1.35173
310.25781,1.35060
310.01674,1.34702
309.77567,1.34290
309.53459,1.34391
309.29352,1.35501
309.05245,1.37324
308.81138,1.38651
308.57031,1.38691
308.32924,1.38125
308.08817,1.37797
307.84710,1.37488
307.60603,1.37061
307.36496,1.37334
307.12389,1.38900
306.88282,1.41162
306.64175,1.42789
306.40068,1.42865
306.15961,1.41764
305.91854,1.40824
305.67747,1.40820
305.43640,1.41065
305.19532,1.40526
304.95425,1.39333
304.71318,1.38391
304.47211,1.38083
304.23104,1.38190
303.98997,1.38559
303.74890,1.39186
303.50783,1.39474
303.26676,1.38398
303.02569,1.36214
302.78462,1.34546
302.54355,1.34548
302.30248,1.35631
302.06141,1.36031
301.82034,1.34701
301.57927,1.32384
301.33820,1.30454
301.09713,1.29426
300.85605,1.28967
300.61498,1.28759
300.37391,1.28892
300.13284,1.29334
299.89177,1.29537
299.65070,1.29095
299.40963,1.28357
299.16856,1.27796
298.92749,1.27306
298.68642,1.26551
298.44535,1.25668
298.20428,1.25135
297.96321,1.25011
297.72214,1.24630
297.48107,1.23409
297.24000,1.21919
296.99893,1.21396
296.75786,1.22341
296.51678,1.24015
296.27571,1.25010
296.03464,1.24368
295.79357,1.22614
295.55250,1.21269
295.31143,1.21190
295.07036,1.21808
294.82929,1.22105
294.58822,1.21762
294.34715,1.21101
294.10608,1.20606
293.86501,1.20468
293.62394,1.20432
293.38287,1.20132
293.14180,1.19583
292.90073,1.19277
292.65966,1.19504
292.41859,1.19714
292.17751,1.19174
291.93644,1.18191
291.69537,1.17692
291.45430,1.17932
291.21323,1.18365
290.97216,1.18405
290.73109,1.17953
290.49002,1.17386
290.24895,1.17131
290.00788,1.17198
289.76681,1.17321
289.52574,1.17507
289.28467,1.18014
289.04360,1.18670
288.80253,1.18694
288.56146,1.17576
288.32039,1.15847
288.07932,1.14549
287.83824,1.14260
287.59717,1.14692
287.35610,1.15073
287.11503,1.14808
286.87396,1.13851
286.63289,1.12691
286.39182,1.12000
286.15075,1.12106
285.90968,1.12718
285.66861,1.13221
285.42754,1.13362
285.18647,1.13437
284.94540,1.13693
284.70433,1.13944
284.46326,1.13994
284.22219,1.14079
283.98112,1.14501
283.74005,1.15020
283.49897,1.14927
283.25790,1.13872
283.01683,1.12486
282.77576,1.11716
282.53469,1.11770
282.29362,1.12073
282.05255,1.12111
281.81148,1.11960
281.57041,1.11920
281.32934,1.12031
281.08827,1.12191
280.84720,1.12501
280.60613,1.13160
280.36506,1.14064
280.12399,1.14754
279.88292,1.14832
279.64185,1.14326
279.40078,1.13728
279.15970,1.13627
278.91863,1.13981
278.67756,1.14054
278.43649,1.13413
278.19542,1.12525
277.95435,1.12089
277.71328,1.12306
277.47221,1.12947
277.23114,1.13580
276.99007,1.13744
276.74900,1.13364
276.50793,1.12871
276.26686,1.12680
276.02579,1.12842
275.78472,1.13234
275.54365,1.13742
275.30258,1.14210
275.06151,1.14435
274.82043,1.14316
274.57936,1.13945
274.33829,1.13580
274.09722,1.13532
273.85615,1.13989
273.61508,1.14763
273.37401,1.15319
273.13294,1.15393
272.89187,1.15350
272.65080,1.15641
272.40973,1.16299
272.16866,1.17123
271.92759,1.17870
271.68652,1.18211
271.44545,1.17943
271.20438,1.17335
270.96331,1.16892
270.72224,1.16783
270.48116,1.16824
270.24009,1.16916
269.99902,1.17147
269.75795,1.17614
269.51688,1.18354
269.27581,1.19267
269.03474,1.20031
268.79367,1.20260
268.55260,1.19910
268.31153,1.19471
268.07046,1.19550
267.82939,1.20381
267.58832,1.21690
267.34725,1.22857
267.10618,1.23344
266.86511,1.23235
266.62404,1.23225
266.38297,1.23792
266.14189,1.24623
265.90082,1.25063
265.65975,1.24994
265.41868,1.25107
265.17761,1.26202
264.93654,1.28362
264.69547,1.30698
264.45440,1.32103
264.21333,1.32464
263.97226,1.32475
263.73119,1.32553
263.49012,1.32624
263.24905,1.32680
263.00798,1.33074
262.76691,1.34290
262.52584,1.36568
262.28477,1.39775
262.04370,1.43416
261.80262,1.46537
261.56155,1.48385
261.32048,1.49375
261.07941,1.50469
260.83834,1.52078
260.59727,1.54127
260.35620,1.56438
260.11513,1.58846
259.87406,1.61709
259.63299,1.65820
259.39192,1.71508
259.15085,1.78185
258.90978,1.83335
258.66871,1.84152
258.42764,1.82844
258.18657,1.82635
257.94550,1.83609
257.70443,1.84451
257.46335,1.84452
257.22228,1.83312
256.98121,1.81105
256.74014,1.79110
256.49907,1.78664
256.25800,1.79208
256.01693,1.79329
255.77586,1.78646
255.53479,1.76970
255.29372,1.74167
255.05265,1.71448
254.81158,1.70325
254.57051,1.70710
254.32944,1.71222
254.08837,1.70927
253.84730,1.69558
253.60623,1.67174
253.36516,1.64789
253.12408,1.63055
252.88301,1.61401
252.64194,1.59184
252.40087,1.57083
252.15980,1.56633
251.91873,1.58001
251.67766,1.59183
251.43659,1.58397
251.19552,1.56181
250.95445,1.54099
250.71338,1.52881
250.47231,1.52534
250.23124,1.52925
249.99017,1.53546
249.74910,1.53830
249.50803,1.54183
249.26696,1.55636
249.02589,1.58090
248.78481,1.59911
248.54374,1.59831
248.30267,1.58107
248.06160,1.56103
247.82053,1.55084
247.57946,1.55154
247.33839,1.55915
247.09732,1.56881
246.85625,1.57616
246.61518,1.58066
246.37411,1.58673
246.13304,1.59984
245.89197,1.61501
245.65090,1.62145
245.40983,1.62025
245.16876,1.62247
244.92769,1.63541
244.68661,1.66194
244.44554,1.70126
244.20447,1.73990
243.96340,1.76237
243.72233,1.77815
243.48126,1.80702
243.24019,1.85291
242.99912,1.91244
242.75805,1.97592
242.51698,2.00897
242.27591,1.97478
242.03484,1.90075
241.79377,1.79703
241.55270,1.68309
241.31163,1.58435
241.07056,1.50745
240.82949,1.44490
240.58842,1.38906
240.34734,1.34259
240.10627,1.31195
239.86520,1.29297
239.62413,1.27094
239.38306,1.23731
239.14199,1.19891
238.90092,1.16594
238.65985,1.14003
238.41878,1.11698
238.17771,1.09500
237.93664,1.07623
237.69557,1.06199
237.45450,1.05091
237.21343,1.04092
236.97236,1.03074
236.73129,1.02017
236.49022,1.00978
236.24915,0.99960
236.00807,0.98879
235.76700,0.97774
235.52593,0.96811
235.28486,0.96015
235.04379,0.95240
234.80272,0.94391
234.56165,0.93463
234.32058,0.92515
234.07951,0.91727
233.83844,0.91312
233.59737,0.91292
233.35630,0.91427
233.11523,0.91417
232.87416,0.91127
232.63309,0.90652
232.39202,0.90204
232.15095,0.89927
231.90988,0.89779
231.66880,0.89604
231.42773,0.89245
231.18666,0.88664
230.94559,0.88014
230.70452,0.87515
230.46345,0.87170
230.22238,0.86786
229.98131,0.86394
229.74024,0.86340
229.49917,0.86700
229.25810,0.86976
229.01703,0.86719
228.77596,0.86111
228.53489,0.85551
228.29382,0.85103
228.05275,0.84722
227.81168,0.84546
227.57061,0.84571
227.32953,0.84456
227.08846,0.84056
226.84739,0.83675
226.60632,0.83521
226.36525,0.83441
226.12418,0.83328
225.88311,0.83249
225.64204,0.83138
225.40097,0.82968
225.15990,0.83011
224.91883,0.83411
224.67776,0.83810
224.43669,0.83832
224.19562,0.83621
223.95455,0.83508
223.71348,0.83474
223.47241,0.83279
223.23134,0.82954
222.99026,0.82834
222.74919,0.83168
222.50812,0.83885
222.26705,0.84717
222.02598,0.85388
221.78491,0.85715
221.54384,0.85796
221.30277,0.86029
221.06170,0.86689
220.82063,0.87619
220.57956,0.88458
220.33849,0.89055
220.09742,0.89568
219.85635,0.90259
219.61528,0.91263
219.37421,0.92486
219.13314,0.93661
218.89207,0.94537
218.65099,0.95106
218.40992,0.95689
218.16885,0.96725
217.92778,0.98379
217.68671,1.00397
217.44564,1.02339
217.20457,1.03899
216.96350,1.05016
216.72243,1.05746
216.48136,1.06155
216.24029,1.06415
215.99922,1.06884
215.75815,1.07836
215.51708,1.09229
215.27601,1.10920
215.03494,1.12792
214.79387,1.14409
214.55280,1.15075
214.31172,1.14886
214.07065,1.14935
213.82958,1.15883
213.58851,1.17251
213.34744,1.18331
213.10637,1.19114
212.86530,1.19953
212.62423,1.20826
212.38316,1.21409
212.14209,1.21575
211.90102,1.21623
211.65995,1.22058
211.41888,1.23079
211.17781,1.24406
210.93674,1.25562
210.69567,1.26166
210.45460,1.25910
210.21353,1.24553
209.97245,1.22639
209.73138,1.21560
209.49031,1.22241
209.24924,1.24108
209.00817,1.25416
208.76710,1.24790
208.52603,1.22602
208.28496,1.20444
208.04389,1.19505
207.80282,1.19872
207.56175,1.20729
207.32068,1.20918
207.07961,1.19844
206.83854,1.18040
206.59747,1.16428
206.35640,1.15371
206.11533,1.14763
205.87426,1.14410
205.63318,1.13917
205.39211,1.12695
205.15104,1.10597
204.90997,1.08321
204.66890,1.06725
204.42783,1.05984
204.18676,1.05604
203.94569,1.04931
203.70462,1.03637
203.46355,1.02005
203.22248,1.00664
202.98141,0.99935
202.74034,0.99418
202.49927,0.98298
202.25820,0.96222
202.01713,0.93681
201.77606,0.91388
201.53499,0.89738
201.29391,0.88818
201.05284,0.88346
200.81177,0.87741
200.57070,0.86605
200.32963,0.85126
200.08856,0.83824
199.84749,0.82916
199.60642,0.82115
199.36535,0.81041
199.12428,0.79726
198.88321,0.78563
198.64214,0.77797
198.40107,0.77252
198.16000,0.76585
197.91893,0.75680
197.67786,0.74697
197.43679,0.73833
197.19572,0.73204
196.95464,0.72774
196.71357,0.72266
196.47250,0.71438
196.23143,0.70480
195.99036,0.69826
195.74929,0.69501
195.50822,0.68933
195.26715,0.67722
195.02608,0.66359
194.78501,0.65664
194.54394,0.65773
194.30287,0.65925
194.06180,0.65341
193.82073,0.64214
193.57966,0.63347
193.33859,0.63044
193.09752,0.62883
192.85645,0.62453
192.61537,0.61924
192.37430,0.61637
192.13323,0.61491
191.89216,0.61107
191.65109,0.60428
191.41002,0.59781
191.16895,0.59426
190.92788,0.59289
190.68681,0.59151
190.44574,0.58938
190.20467,0.58722
189.96360,0.58531
189.72253,0.58283
189.48146,0.57946
189.24039,0.57619
188.99932,0.57359
188.75825,0.57124
188.51718,0.56956
188.27610,0.56959
188.03503,0.57022
187.79396,0.56863
187.55289,0.56482
187.31182,0.56205
187.07075,0.56199
186.82968,0.56273
186.58861,0.56213
186.34754,0.56063
186.10647,0.56005
185.86540,0.56115
185.62433,0.56288
185.38326,0.56404
185.14219,0.56490
184.90112,0.56623
184.66005,0.56717
184.41898,0.56664
184.17791,0.56571
183.93683,0.56616
183.69576,0.56797
183.45469,0.57036
183.21362,0.57318
182.97255,0.57526
182.73148,0.57456
182.49041,0.57215
182.24934,0.57196
182.00827,0.57451
181.76720,0.57577
181.52613,0.57420
181.28506,0.57314
181.04399,0.57457
180.80292,0.57637
180.56185,0.57674
180.32078,0.57664
180.07971,0.57738
179.83864,0.57934
179.59756,0.58258
179.35649,0.58689
179.11542,0.59227
178.87435,0.59945
178.63328,0.60869
178.39221,0.61894
178.15114,0.62927
177.91007,0.64011
177.66900,0.65216
177.42793,0.66454
177.18686,0.67523
176.94579,0.68406
176.70472,0.69359
176.46365,0.70553
176.22258,0.71847
175.98151,0.73054
175.74044,0.74230
175.49937,0.75611
175.25829,0.77368
175.01722,0.79446
174.77615,0.81610
174.53508,0.83710
174.29401,0.85723
174.05294,0.87467
173.81187,0.88650
173.57080,0.89387
173.32973,0.90227
173.08866,0.91491
172.84759,0.92879
172.60652,0.93836
172.36545,0.94202
172.12438,0.94321
171.88331,0.94467
171.64224,0.94527
171.40117,0.94382
171.16010,0.94167
170.91902,0.93915
170.67795,0.93360
170.43688,0.92398
170.19581,0.91434
169.95474,0.90910
169.71367,0.90774
169.47260,0.90702
169.23153,0.90566
168.99046,0.90438
168.74939,0.90298
168.50832,0.89984
168.26725,0.89427
168.02618,0.88812
167.78511,0.88405
167.54404,0.88280
167.30297,0.88359
167.06190,0.88677
166.82083,0.89298
166.57975,0.89974
166.33868,0.90249
166.09761,0.90035
165.85654,0.89708
165.61547,0.89595
165.37440,0.89754
165.13333,0.90148
164.89226,0.90778
164.65119,0.91639
164.41012,0.92636
164.16905,0.93667
163.92798,0.94760
163.68691,0.95920
163.44584,0.96897
163.20477,0.97429
162.96370,0.97629
162.72263,0.97783
162.48156,0.98017
162.24048,0.98526
161.99941,0.99613
161.75834,1.01110
161.51727,1.02220
161.27620,1.02321
161.03513,1.01596
160.79406,1.00628
160.55299,0.99827
160.31192,0.99331
160.07085,0.99053
159.82978,0.98780
159.58871,0.98467
159.34764,0.98308
159.10657,0.98268
158.86550,0.97898
158.62443,0.96998
158.38336,0.96059
158.14229,0.95705
157.90121,0.95929
157.66014,0.96063
157.41907,0.95512
157.17800,0.94355
156.93693,0.93096
156.69586,0.92156
156.45479,0.91774
156.21372,0.92004
155.97265,0.92515
155.73158,0.92546
155.49051,0.91438
155.24944,0.89425
155.00837,0.87474
154.76730,0.86312
154.52623,0.85899
154.28516,0.85644
154.04409,0.84915
153.80302,0.83451
153.56194,0.81427
153.32087,0.79262
153.07980,0.77432
152.83873,0.76246
152.59766,0.75580
152.35659,0.74912
152.11552,0.73782
151.87445,0.72216
151.63338,0.70621
151.39231,0.69340
151.15124,0.68322
150.91017,0.67202
150.66910,0.65775
150.42803,0.64247
150.18696,0.62904
149.94589,0.61771
149.70482,0.60733
149.46375,0.59749
149.22267,0.58840
148.98160,0.58024
148.74053,0.57344
148.49946,0.56839
148.25839,0.56426
148.01732,0.55941
147.77625,0.55361
147.53518,0.54887
147.29411,0.54707
147.05304,0.54738
146.81197,0.54697
146.57090,0.54481
146.32983,0.54352
146.08876,0.54620
145.84769,0.55215
145.60662,0.55749
145.36555,0.56026
145.12448,0.56264
144.88340,0.56715
144.64233,0.57348
144.40126,0.57952
144.16019,0.58389
143.91912,0.58648
143.67805,0.58721
143.43698,0.58544
143.19591,0.58108
142.95484,0.57538
142.71377,0.56925
142.47270,0.56182
142.23163,0.55228
141.99056,0.54192
141.74949,0.53247
141.50842,0.52411
141.26735,0.51664
141.02628,0.51095
140.78521,0.50797
140.54413,0.50711
140.30306,0.50666
140.06199,0.50581
139.82092,0.50542
139.57985,0.50653
139.33878,0.50868
139.09771,0.51101
138.85664,0.51417
138.61557,0.51926
138.37450,0.52564
138.13343,0.53213
137.89236,0.53933
137.65129,0.54867
137.41022,0.56035
137.16915,0.57441
136.92808,0.59122
136.68701,0.60925
136.44594,0.62597
136.20486,0.64220
135.96379,0.66123
135.72272,0.68373
135.48165,0.70789
135.24058,0.73353
134.99951,0.76135
134.75844,0.78985
134.51737,0.81709
134.27630,0.84349
134.03523,0.87013
133.79416,0.89665
133.55309,0.92300
133.31202,0.95147
133.07095,0.98481
132.82988,1.02181
132.58881,1.05636
132.34774,1.08411
132.10667,1.10756
131.86559,1.12966
131.62452,1.14624
131.38345,1.14952
131.14238,1.13825
130.90131,1.12021
130.66024,1.10373
130.41917,1.08921
130.17810,1.07159
129.93703,1.04858
129.69596,1.02120
129.45489,0.99044
129.21382,0.95755
128.97275,0.92402
128.73168,0.88983
128.49061,0.85435
128.24954,0.81853
128.00847,0.78445
127.76740,0.75333
127.52632,0.72552
127.28525,0.70066
127.04418,0.67781
126.80311,0.65693
126.56204,0.63889
126.32097,0.62315
126.07990,0.60762
125.83883,0.59120
125.59776,0.57438
125.35669,0.55764
125.11562,0.54125
124.87455,0.52605
124.63348,0.51302
124.39241,0.50237
124.15134,0.49323
123.91027,0.48428
123.66920,0.47519
123.42812,0.46698
123.18705,0.46003
122.94598,0.45318
122.70491,0.44631
122.46384,0.44150
122.22277,0.44010
121.98170,0.44068
121.74063,0.44122
121.49956,0.44155
121.25849,0.44289
121.01742,0.44678
120.77635,0.45430
120.53528,0.46500
120.29421,0.47671
120.05314,0.48712
119.81207,0.49617
119.57100,0.50658
119.32993,0.52169
119.08885,0.54210
118.84778,0.56527
118.60671,0.58941
118.36564,0.61676
118.12457,0.65050
117.88350,0.68899
117.64243,0.72549
117.40136,0.75345
117.16029,0.77074
116.91922,0.77886
116.67815,0.77999
116.43708,0.77627
116.19601,0.76986
115.95494,0.76242
115.71387,0.75500
115.47280,0.74695
115.23173,0.73666
114.99066,0.72540
114.74958,0.71765
114.50851,0.71506
114.26744,0.71329
114.02637,0.70655
113.78530,0.69286
113.54423,0.67493
113.30316,0.65809
113.06209,0.64718
112.82102,0.64402
112.57995,0.64775
112.33888,0.65650
112.09781,0.66768
111.85674,0.67788
111.61567,0.68420
111.37460,0.68625
111.13353,0.68666
110.89246,0.68760
110.65139,0.68793
110.41031,0.68618
110.16924,0.68434
109.92817,0.68541
109.68710,0.68818
109.44603,0.68638
109.20496,0.67372
108.96389,0.64991
108.72282,0.62079
108.48175,0.59313
108.24068,0.57078
107.99961,0.55483
107.75854,0.54498
107.51747,0.53925
107.27640,0.53246
107.03533,0.51792
106.79426,0.49435
106.55319,0.46807
106.31212,0.44625
106.07104,0.43174
105.82997,0.42408
105.58890,0.42200
105.34783,0.42273
105.10676,0.42039
104.86569,0.40924
104.62462,0.39045
104.38355,0.37154
104.14248,0.35892
103.90141,0.35378
103.66034,0.35281
103.41927,0.35057
103.17820,0.34286
102.93713,0.33037
102.69606,0.31838
102.45499,0.31212
102.21392,0.31262
101.97285,0.31588
101.73177,0.31547
101.49070,0.30784
101.24963,0.29596
101.00856,0.28613
100.76749,0.28205
100.52642,0.28266
100.28535,0.28354
100.04428,0.28058
99.80321,0.27404
99.56214,0.26856
99.32107,0.26810
99.08000,0.27109
98.83893,0.27112
98.59786,0.26489
98.35679,0.25728
98.11572,0.25503
97.87465,0.25866
97.63358,0.26225
97.39250,0.26015
97.15143,0.25489
96.91036,0.25432
96.66929,0.26104
96.42822,0.26853
96.18715,0.27031
95.94608,0.27041
95.70501,0.27675
95.46394,0.28934
95.22287,0.30028
94.98180,0.30447
94.74073,0.30604
94.49966,0.31039
94.25859,0.31581
94.01752,0.31742
93.77645,0.31607
93.53538,0.31673
93.29431,0.31960
93.05323,0.32023
92.81216,0.31866
92.57109,0.32005
92.33002,0.32418
92.08895,0.32457
91.84788,0.32171
91.60681,0.32412
91.36574,0.33365
91.12467,0.34375
90.88360,0.35357
90.64253,0.36939
90.40146,0.39229
90.16039,0.41943
89.91932,0.45352
89.67825,0.49680
89.43718,0.54352
89.19611,0.58796
88.95504,0.62911
88.71396,0.66279
88.47289,0.68217
88.23182,0.68773
87.99075,0.68432
87.74968,0.67179
87.50861,0.64574
87.26754,0.60634
87.02647,0.56265
86.78540,0.52343
86.54433,0.48922
86.30326,0.45712
86.06219,0.42689
85.82112,0.39947
85.58005,0.37453
85.33898,0.35162
85.09791,0.33106
84.85684,0.31347
84.61577,0.29945
84.37469,0.28855
84.13362,0.27863
83.89255,0.26775
83.65148,0.25622
83.41041,0.24624
83.16934,0.23959
82.92827,0.23546
82.68720,0.23106
82.44613,0.22492
82.20506,0.21849
81.96399,0.21387
81.72292,0.21162
81.48185,0.21102
81.24078,0.21099
80.99971,0.21045
80.75864,0.20869
80.51757,0.20596
80.27650,0.20331
80.03542,0.20166
79.79435,0.20123
79.55328,0.20147
79.31221,0.20102
79.07114,0.19854
78.83007,0.19459
78.58900,0.19104
78.34793,0.18839
78.10686,0.18527
77.86579,0.18071
77.62472,0.17527
77.38365,0.16994
77.14258,0.16505
76.90151,0.16082
76.66044,0.15832
76.41937,0.15870
76.17830,0.16112
75.93723,0.16296
75.69615,0.16267
75.45508,0.16081
75.21401,0.15810
74.97294,0.15490
74.73187,0.15252
74.49080,0.15265
74.24973,0.15535
74.00866,0.15919
73.76759,0.16282
73.52652,0.16526
73.28545,0.16569
73.04438,0.16458
72.80331,0.16399
72.56224,0.16510
72.32117,0.16656
72.08010,0.16631
71.83903,0.16384
71.59796,0.15991
71.35688,0.15578
71.11581,0.15343
70.87474,0.15496
70.63367,0.16085
70.39260,0.16992
70.15153,0.18204
69.91046,0.19909
69.66939,0.22196
69.42832,0.24685
69.18725,0.26606
68.94618,0.27308
68.70511,0.26658
68.46404,0.24991
68.22297,0.22814
67.98190,0.20574
67.74083,0.18582
67.49976,0.17014
67.25869,0.15869
67.01761,0.14945
66.77654,0.14017
66.53547,0.13133
66.29440,0.12614
66.05333,0.12698
65.81226,0.13302
65.57119,0.14153
65.33012,0.15082
65.08905,0.16150
64.84798,0.17495
64.60691,0.19037
64.36584,0.20380
64.12477,0.21139
63.88370,0.21321
63.64263,0.21186
63.40156,0.20809
63.16049,0.20072
62.91942,0.18976
62.67834,0.17648
62.43727,0.16168
62.19620,0.14651
61.95513,0.13315
61.71406,0.12273
61.47299,0.11433
61.23192,0.10660
60.99085,0.09929
60.74978,0.09401
60.50871,0.09453
60.26764,0.10476
60.02657,0.12485
59.78550,0.14947
59.54443,0.17113
59.30336,0.18466
59.06229,0.18785
58.82122,0.17972
58.58015,0.16159
58.33907,0.13934
58.09800,0.12134
57.85693,0.11335
57.61586,0.11584
57.37479,0.12513
57.13372,0.13744
56.89265,0.15235
56.65158,0.17045
56.41051,0.18627
56.16944,0.18900
55.92837,0.17559
55.68730,0.15395
55.44623,0.13318
55.20516,0.11909
54.96409,0.11469
54.72302,0.12154
54.48195,0.14046
54.24088,0.16843
53.99980,0.19165
53.75873,0.18950
53.51766,0.15999
53.27659,0.12387
53.03552,0.10071
52.79445,0.09982
52.55338,0.12333
52.31231,0.16769
52.07124,0.21039
51.83017,0.20409
51.58910,0.15269
51.34803,0.10587
51.10696,0.08732
50.86589,0.10306
50.62482,0.14832
50.38375,0.18677
50.14268,0.16768
49.90161,0.11773
49.66053,0.09225
49.41946,0.11203
49.17839,0.15803
48.93732,0.16526
48.69625,0.12063
48.45518,0.09304
48.21411,0.11375
47.97304,0.15965
47.73197,0.16669
47.49090,0.12661
47.24983,0.10487
47.00876,0.12651
46.76769,0.15046
46.52662,0.12915
46.28555,0.09974
46.04448,0.09819
45.80341,0.10411
45.56234,0.09720
45.32126,0.09952
45.08019,0.11886
44.83912,0.12852
44.59805,0.12130
44.35698,0.12225
44.11591,0.13619
43.87484,0.14366
43.63377,0.14011
43.39270,0.13714
43.15163,0.13878
42.91056,0.14460
42.66949,0.15362
42.42842,0.16103
42.18735,0.16226
41.94628,0.15694
41.70521,0.14937
41.46414,0.14442
41.22307,0.13961
40.98199,0.13157
40.74092,0.12778
40.49985,0.13441
40.25878,0.14392
40.01771,0.14706
39.77664,0.14682
39.53557,0.14986
39.29450,0.15403
39.05343,0.15084
38.81236,0.13803
38.57129,0.12782
38.33022,0.13579
38.08915,0.16267
37.84808,0.19055
37.60701,0.19924
37.36594,0.19170
37.12487,0.18892
36.88380,0.19905
36.64272,0.21141
36.40165,0.21244
36.16058,0.19904
35.91951,0.18043
35.67844,0.17049
35.43737,0.17462
35.19630,0.18487
34.95523,0.18915
34.71416,0.18068
34.47309,0.16048
34.23202,0.13622
33.99095,0.11474
33.74988,0.09820
33.50881,0.09277
33.26774,0.10777
33.02667,0.13745
32.78560,0.16273
32.54453,0.17832
32.30345,0.18834
32.06238,0.18319
31.82131,0.15920
31.58024,0.13203
31.33917,0.11053
31.09810,0.08964
30.85703,0.06337
30.61596,0.03426
30.37489,0.01407
30.13382,0.01255
29.89275,0.02116
29.65168,0.02431
29.41061,0.02043
29.16954,0.01472
28.92847,0.00345
28.68740,-0.02635
28.44633,-0.07502
28.20526,-0.11953
27.96418,-0.13844
27.72311,-0.13431
27.48204,-0.12780
27.24097,-0.13883
26.99990,-0.17163
26.75883,-0.21606
26.51776,-0.25256
26.27669,-0.26316
26.03562,-0.24953
25.79455,-0.23332
25.55348,-0.23032
25.31241,-0.23538
25.07134,-0.23808
24.83027,-0.23529
24.58920,-0.22736
24.34813,-0.21738
24.10706,-0.21991
23.86599,-0.25469
23.62491,-0.32071
23.38384,-0.37843
23.14277,-0.37850
22.90170,-0.32343
22.66063,-0.25745
22.41956,-0.21529
22.17849,-0.20996
21.93742,-0.23237
21.69635,-0.25806
21.45528,-0.26682
21.21421,-0.25822
20.97314,-0.24528
20.73207,-0.23722
20.49100,-0.23746
20.24993,-0.25632
20.00886,-0.29210
19.76779,-0.32489
19.52672,-0.33940
19.28564,-0.34074
19.04457,-0.35013
18.80350,-0.37469
18.56243,-0.39024
18.32136,-0.38345
18.08029,-0.37224
17.83922,-0.37156
17.59815,-0.37507
17.35708,-0.37744
17.11601,-0.38087
16.87494,-0.38603
16.63387,-0.38774
16.39280,-0.37698
16.15173,-0.35810
15.91066,-0.34258
15.66959,-0.33489
15.42852,-0.34204
15.18745,-0.36562
14.94637,-0.38955
14.70530,-0.40161
14.46423,-0.40840
14.22316,-0.41448
13.98209,-0.41788
13.74102,-0.40993
13.49995,-0.38385
13.25888,-0.35885
13.01781,-0.34067
12.77674,-0.32508
12.53567,-0.30871
12.29460,-0.29180
12.05353,-0.28596
11.81246,-0.30420
11.57139,-0.34245
11.33032,-0.37988
11.08925,-0.38980
10.84818,-0.38048
10.60710,-0.37774
10.36603,-0.38335
10.12496,-0.38948
9.88389,-0.40285
9.64282,-0.43213
9.40175,-0.45730
9.16068,-0.44792
8.91961,-0.40530
8.67854,-0.35785
8.43747,-0.33422
8.19640,-0.33973
7.95533,-0.35156
7.71426,-0.34957
7.47319,-0.34264
7.23212,-0.34475
6.99105,-0.35136
6.74998,-0.35229
6.50891,-0.35491
6.26783,-0.37276
6.02676,-0.39208
5.78569,-0.38767
5.54462,-0.36329
5.30355,-0.33225
5.06248,-0.31863
4.82141,-0.32580
4.58034,-0.34847
4.33927,-0.37610
4.09820,-0.39010
3.85713,-0.38952
3.61606,-0.39013
3.37499,-0.38263
3.13392,-0.36268
2.89285,-0.35758
2.65178,-0.37411
2.41071,-0.40374
2.16964,-0.42884
1.92856,-0.41594
1.68749,-0.36239
1.44642,-0.31063
1.20535,-0.28800
0.96428,-0.30022
0.72321,-0.37346
0.48214,-0.55043
0.24107,-0.59058
-0.00000,-0.16673
