399.69498,1.65506
399.45391,1.65674
399.21284,1.63714
398.97177,1.60496
398.73070,1.57982
398.48963,1.57182
398.24856,1.57728
398.00749,1.59082
397.76642,1.61114
397.52535,1.62797
397.28428,1.62250
397.04321,1.59592
396.80214,1.57366
396.56107,1.57471
396.32000,1.59614
396.07892,1.62149
395.83785,1.63482
395.59678,1.62926
395.35571,1.60995
395.11464,1.58775
394.87357,1.57168
394.63250,1.56357
394.39143,1.55508
394.15036,1.54175
393.90929,1.53592
393.66822,1.54812
393.42715,1.56453
393.18608,1.55704
392.94501,1.52178
392.70394,1.49139
392.46287,1.49938
392.22180,1.54583
391.98073,1.59285
391.73965,1.60466
391.49858,1.58760
391.25751,1.56961
391.01644,1.56677
390.77537,1.57405
390.53430,1.57027
390.29323,1.54530
390.05216,1.51210
389.81109,1.48967
389.57002,1.49259
389.32895,1.52273
389.08788,1.55747
388.84681,1.56309
388.60574,1.53831
388.36467,1.51459
388.12360,1.51081
387.88253,1.51490
387.64146,1.50506
387.40038,1.48088
387.15931,1.46276
386.91824,1.46214
386.67717,1.47012
386.43610,1.47146
386.19503,1.45960
385.95396,1.44228
385.71289,1.43431
385.47182,1.44141
385.23075,1.45192
384.98968,1.44829
384.74861,1.42620
384.50754,1.40007
384.26647,1.38555
384.02540,1.37899
383.78433,1.36591
383.54326,1.35005
383.30219,1.35222
383.06111,1.37968
382.82004,1.41452
382.57897,1.42778
382.33790,1.40614
382.09683,1.36316
381.85576,1.32025
381.61469,1.29364
381.37362,1.28829
381.13255,1.29786
380.89148,1.31068
380.65041,1.31588
380.40934,1.31215
380.16827,1.31046
379.92720,1.31843
379.68613,1.32802
379.44506,1.33365
379.20399,1.33436
378.96292,1.33364
378.72184,1.33705
378.48077,1.34214
378.23970,1.34419
377.99863,1.34908
377.75756,1.36172
377.51649,1.37352
377.27542,1.38243
377.03435,1.39572
376.79328,1.40747
376.55221,1.40540
376.31114,1.39728
376.07007,1.40436
375.82900,1.43429
375.58793,1.46931
375.34686,1.48484
375.10579,1.47578
374.86472,1.45641
374.62365,1.43929
374.38257,1.42773
374.14150,1.42292
373.90043,1.42294
373.65936,1.42502
373.41829,1.43043
373.17722,1.44064
372.93615,1.45234
372.69508,1.46031
372.45401,1.46221
372.21294,1.45875
371.97187,1.45266
371.73080,1.44796
371.48973,1.44773
371.24866,1.45289
371.00759,1.46315
370.76652,1.47546
370.52545,1.48151
370.28437,1.47534
370.04330,1.46373
369.80223,1.45575
369.56116,1.44789
369.32009,1.43231
369.07902,1.41527
368.83795,1.41111
368.59688,1.42144
368.35581,1.43094
368.11474,1.42618
367.87367,1.41308
367.63260,1.40572
367.39153,1.40677
367.15046,1.40783
366.90939,1.40495
366.66832,1.40563
366.42725,1.41570
366.18618,1.42895
365.94510,1.43369
365.70403,1.42587
365.46296,1.41544
365.22189,1.41349
364.98082,1.41429
364.73975,1.40290
364.49868,1.38057
364.25761,1.36535
364.01654,1.36737
363.77547,1.37933
363.53440,1.38971
363.29333,1.39422
363.05226,1.39333
362.81119,1.38950
362.57012,1.38636
362.32905,1.38536
362.08798,1.38456
361.84691,1.38267
361.60583,1.38053
361.36476,1.37762
361.12369,1.37331
360.88262,1.37130
360.64155,1.37363
360.40048,1.37733
360.15941,1.38249
359.91834,1.38990
359.67727,1.39093
359.43620,1.37589
359.19513,1.35172
358.95406,1.33478
358.71299,1.33019
358.47192,1.33140
358.23085,1.33483
357.98978,1.34220
357.74871,1.34865
357.50764,1.34313
357.26656,1.32620
357.02549,1.31271
356.78442,1.31348
356.54335,1.32527
356.30228,1.33841
356.06121,1.34636
355.82014,1.34806
355.57907,1.34504
355.33800,1.33796
355.09693,1.32918
354.85586,1.32319
354.61479,1.32187
354.37372,1.32294
354.13265,1.32402
353.89158,1.32633
353.65051,1.33193
353.40944,1.33938
353.16837,1.34528
352.92729,1.34732
352.68622,1.34471
352.44515,1.33834
352.20408,1.33147
351.96301,1.32956
351.72194,1.33692
351.48087,1.34961
351.23980,1.35470
350.99873,1.34447
350.75766,1.32776
350.51659,1.31814
350.27552,1.31824
350.03445,1.32275
349.79338,1.33128
349.55231,1.34692
349.31124,1.36288
349.07017,1.36716
348.82910,1.35972
348.58802,1.35022
348.34695,1.34481
348.10588,1.34147
347.86481,1.33494
347.62374,1.32508
347.38267,1.31798
347.14160,1.31850
346.90053,1.32509
346.65946,1.33668
346.41839,1.35487
346.17732,1.37515
345.93625,1.38480
345.69518,1.37672
345.45411,1.35918
345.21304,1.34619
344.97197,1.34286
344.73090,1.34544
344.48983,1.35014
344.24875,1.35482
344.00768,1.35998
343.76661,1.36869
343.52554,1.37891
343.28447,1.38363
343.04340,1.38270
342.80233,1.38441
342.56126,1.39126
342.32019,1.39547
342.07912,1.39165
341.83805,1.38336
341.59698,1.37788
341.35591,1.38277
341.11484,1.40284
340.87377,1.42971
340.63270,1.44426
340.39163,1.44267
340.15056,1.43789
339.90948,1.43746
339.66841,1.43747
339.42734,1.43312
339.18627,1.42952
338.94520,1.43741
338.70413,1.45569
338.46306,1.46634
338.22199,1.45717
337.98092,1.44061
337.73985,1.43519
337.49878,1.43987
337.25771,1.44265
337.01664,1.44168
336.77557,1.44422
336.53450,1.45294
336.29343,1.46479
336.05236,1.47604
335.81129,1.48022
335.57021,1.47182
335.32914,1.45804
335.08807,1.45322
334.84700,1.45987
334.60593,1.46662
334.36486,1.46489
334.12379,1.45517
333.88272,1.44122
333.64165,1.42603
333.40058,1.41744
333.15951,1.42331
332.91844,1.43549
332.67737,1.43513
332.43630,1.41962
332.19523,1.40464
331.95416,1.39686
331.71309,1.38778
331.47202,1.37765
331.23094,1.37949
330.98987,1.39515
330.74880,1.41059
330.50773,1.41441
330.26666,1.41244
330.02559,1.41303
329.78452,1.40477
329.54345,1.37647
329.30238,1.34547
329.06131,1.32793
328.82024,1.32392
328.57917,1.32644
328.33810,1.33100
328.09703,1.34175
327.85596,1.35868
327.61489,1.36893
327.37382,1.36533
327.13275,1.35850
326.89167,1.35538
326.65060,1.34668
326.40953,1.32982
326.16846,1.32210
325.92739,1.33641
325.68632,1.36431
325.44525,1.38517
325.20418,1.38579
324.96311,1.36897
324.72204,1.34544
324.48097,1.32697
324.23990,1.32038
323.99883,1.32202
323.75776,1.32434
323.51669,1.32481
323.27562,1.32687
323.03455,1.33468
322.79348,1.34547
322.55240,1.35257
322.31133,1.35178
322.07026,1.34448
321.82919,1.33902
321.58812,1.34431
321.34705,1.36142
321.10598,1.38184
320.86491,1.39443
320.62384,1.39629
320.38277,1.39194
320.14170,1.38341
319.90063,1.37186
319.65956,1.36414
319.41849,1.36470
319.17742,1.36791
318.93635,1.36652
318.69528,1.36392
318.45421,1.36783
318.21313,1.37936
317.97206,1.39206
317.73099,1.39620
317.48992,1.38517
317.24885,1.36970
317.00778,1.36509
316.76671,1.37050
316.52564,1.37914
316.28457,1.39412
316.04350,1.41638
315.80243,1.42973
315.56136,1.41624
315.32029,1.38492
315.07922,1.35951
314.83815,1.35246
314.59708,1.36251
314.35601,1.38219
314.11494,1.40260
313.87386,1.41469
313.63279,1.41323
313.39172,1.40108
313.15065,1.38312
312.90958,1.36408
312.66851,1.35567
312.42744,1.37027
312.18637,1.40279
311.94530,1.42628
311.70423,1.42008
311.46316,1.40138
311.22209,1.39758
310.98102,1.41386
310.73995,1.43939
310.49888,1.46087
310.25781,1.46643
310.01674,1.45244
309.77567,1.42910
309.53459,1.41124
309.29352,1.40592
309.05245,1.40889
308.81138,1.41363
308.57031,1.42206
308.32924,1.43669
308.08817,1.44699
307.84710,1.44133
307.60603,1.42618
307.36496,1.41671
307.12389,1.41792
306.88282,1.42240
306.64175,1.42518
306.40068,1.42726
306.15961,1.42983
305.91854,1.43311
305.67747,1.43584
305.43640,1.43437
305.19532,1.42498
304.95425,1.40976
304.71318,1.39781
304.47211,1.39747
304.23104,1.40902
303.98997,1.42412
303.74890,1.43197
303.50783,1.42652
303.26676,1.40741
303.02569,1.38060
302.78462,1.35753
302.54355,1.34752
302.30248,1.34862
302.06141,1.35022
301.82034,1.34700
301.57927,1.34456
301.33820,1.34894
301.09713,1.35883
300.85605,1.37164
300.61498,1.38556
300.37391,1.39284
300.13284,1.38618
299.89177,1.37083
299.65070,1.35821
299.40963,1.35143
299.16856,1.34393
298.92749,1.33185
298.68642,1.32127
298.44535,1.31927
298.20428,1.32387
297.96321,1.32791
297.72214,1.32822
297.48107,1.32630
297.24000,1.32364
296.99893,1.31883
296.75786,1.31110
296.51678,1.30448
296.27571,1.30389
296.03464,1.31243
295.79357,1.32772
295.55250,1.33820
295.31143,1.33338
295.07036,1.31853
294.82929,1.30628
294.58822,1.29749
294.34715,1.28319
294.10608,1.26217
293.86501,1.24313
293.62394,1.23210
293.38287,1.22889
293.14180,1.23119
292.90073,1.23547
292.65966,1.23755
292.41859,1.23659
292.17751,1.23648
291.93644,1.24104
291.69537,1.24837
291.45430,1.25199
291.21323,1.24824
290.97216,1.24076
290.73109,1.23597
290.49002,1.23612
290.24895,1.23703
290.00788,1.23249
289.76681,1.22212
289.52574,1.21304
289.28467,1.21123
289.04360,1.21481
288.80253,1.21844
288.56146,1.22039
288.32039,1.22178
288.07932,1.22169
287.83824,1.21647
287.59717,1.20413
287.35610,1.18835
287.11503,1.17617
286.87396,1.17257
286.63289,1.17802
286.39182,1.18823
286.15075,1.19582
285.90968,1.19607
285.66861,1.19075
285.42754,1.18537
285.18647,1.18261
284.94540,1.18062
284.70433,1.17857
284.46326,1.17950
284.22219,1.18553
283.98112,1.19310
283.74005,1.19622
283.49897,1.19401
283.25790,1.19199
283.01683,1.19476
282.77576,1.19921
282.53469,1.19952
282.29362,1.19605
282.05255,1.19271
281.81148,1.18996
281.57041,1.18610
281.32934,1.18393
281.08827,1.18844
280.84720,1.19745
280.60613,1.20180
280.36506,1.19668
280.12399,1.18708
279.88292,1.18005
279.64185,1.17763
279.40078,1.17756
279.15970,1.17737
278.91863,1.17826
278.67756,1.18505
278.43649,1.20075
278.19542,1.22016
277.95435,1.23148
277.71328,1.22801
277.47221,1.21403
277.23114,1.19879
276.99007,1.18925
276.74900,1.18850
276.50793,1.19606
276.26686,1.20636
276.02579,1.21101
275.78472,1.20690
275.54365,1.19955
275.30258,1.19592
275.06151,1.19706
274.82043,1.19906
274.57936,1.19885
274.33829,1.19623
274.09722,1.19144
273.85615,1.18585
273.61508,1.18443
273.37401,1.19101
273.13294,1.20167
272.89187,1.20932
272.65080,1.21412
272.40973,1.22094
272.16866,1.22829
271.92759,1.22947
271.68652,1.22389
271.44545,1.21823
271.20438,1.21757
270.96331,1.22201
270.72224,1.22983
270.48116,1.23864
270.24009,1.24457
269.99902,1.24458
269.75795,1.24105
269.51688,1.24119
269.27581,1.24931
269.03474,1.26156
268.79367,1.26997
268.55260,1.27048
268.31153,1.26705
268.07046,1.26737
267.82939,1.27449
267.58832,1.28440
267.34725,1.29198
267.10618,1.29652
266.86511,1.29931
266.62404,1.30072
266.38297,1.30238
266.14189,1.30724
265.90082,1.31600
265.65975,1.32501
265.41868,1.32882
265.17761,1.32769
264.93654,1.33028
264.69547,1.34355
264.45440,1.36467
264.21333,1.38616
263.97226,1.40372
263.73119,1.41463
263.49012,1.41611
263.24905,1.41246
263.00798,1.41431
262.76691,1.42553
262.52584,1.44111
262.28477,1.46029
262.04370,1.48821
261.80262,1.52084
261.56155,1.54361
261.32048,1.55200
261.07941,1.55859
260.83834,1.57410
260.59727,1.59590
260.35620,1.61547
260.11513,1.62873
259.87406,1.63915
259.63299,1.65599
259.39192,1.68736
259.15085,1.73266
258.90978,1.78184
258.66871,1.82065
258.42764,1.83963
258.18657,1.84338
257.94550,1.84667
257.70443,1.85736
257.46335,1.86865
257.22228,1.87292
256.98121,1.87078
256.74014,1.87199
256.49907,1.88225
256.25800,1.88143
256.01693,1.84845
255.77586,1.80203
255.53479,1.77641
255.29372,1.78636
255.05265,1.80857
254.81158,1.79469
254.57051,1.73421
254.32944,1.66651
254.08837,1.62015
253.84730,1.60387
253.60623,1.61642
253.36516,1.64786
253.12408,1.68429
252.88301,1.71412
252.64194,1.73116
252.40087,1.73312
252.15980,1.72043
251.91873,1.69491
251.67766,1.66628
251.43659,1.64800
251.19552,1.63925
250.95445,1.62895
250.71338,1.61728
250.47231,1.61591
250.23124,1.62957
249.99017,1.64507
249.74910,1.64327
249.50803,1.62528
249.26696,1.61109
249.02589,1.61445
248.78481,1.63238
248.54374,1.65015
248.30267,1.65337
248.06160,1.64271
247.82053,1.63406
247.57946,1.63839
247.33839,1.64875
247.09732,1.65195
246.85625,1.64690
246.61518,1.64309
246.37411,1.64310
246.13304,1.63758
245.89197,1.62339
245.65090,1.61373
245.40983,1.62285
245.16876,1.64963
244.92769,1.67897
244.68661,1.70044
244.44554,1.72450
244.20447,1.77336
243.96340,1.85808
243.72233,1.96638
243.48126,2.06003
243.24019,2.07238
242.99912,1.98131
242.75805,1.88319
242.51698,1.83221
242.27591,1.81528
242.03484,1.78645
241.79377,1.71470
241.55270,1.63726
241.31163,1.58181
241.07056,1.54204
240.82949,1.50003
240.58842,1.44939
240.34734,1.40143
240.10627,1.36514
239.86520,1.33618
239.62413,1.30677
239.38306,1.27637
239.14199,1.24932
238.90092,1.22665
238.65985,1.20453
238.41878,1.18040
238.17771,1.15680
237.93664,1.13583
237.69557,1.11478
237.45450,1.09185
237.21343,1.07120
236.97236,1.05720
236.73129,1.04823
236.49022,1.03968
236.24915,1.03012
236.00807,1.02230
235.76700,1.01827
235.52593,1.01541
235.28486,1.01001
235.04379,1.00337
234.80272,0.99832
234.56165,0.99170
234.32058,0.97823
234.07951,0.96050
233.83844,0.94698
233.59737,0.94191
233.35630,0.94230
233.11523,0.94323
232.87416,0.94232
232.63309,0.93953
232.39202,0.93609
232.15095,0.93366
231.90988,0.93256
231.66880,0.93001
231.42773,0.92224
231.18666,0.90994
230.94559,0.89887
230.70452,0.89407
230.46345,0.89551
230.22238,0.89952
229.98131,0.90223
229.74024,0.90124
229.49917,0.89661
229.25810,0.89123
229.01703,0.88790
228.77596,0.88622
228.53489,0.88423
228.29382,0.88197
228.05275,0.88061
227.81168,0.88015
227.57061,0.88022
227.32953,0.88015
227.08846,0.87855
226.84739,0.87575
226.60632,0.87434
226.36525,0.87496
226.12418,0.87518
225.88311,0.87370
225.64204,0.87164
225.40097,0.86939
225.15990,0.86603
224.91883,0.86223
224.67776,0.86029
224.43669,0.86107
224.19562,0.86343
223.95455,0.86704
223.71348,0.87287
223.47241,0.87953
223.23134,0.88274
222.99026,0.88110
222.74919,0.87843
222.50812,0.87838
222.26705,0.88085
222.02598,0.88563
221.78491,0.89437
221.54384,0.90632
221.30277,0.91680
221.06170,0.92299
220.82063,0.92691
220.57956,0.93054
220.33849,0.93408
220.09742,0.93790
219.85635,0.94147
219.61528,0.94373
219.37421,0.94762
219.13314,0.95896
218.89207,0.97801
218.65099,0.99780
218.40992,1.01273
218.16885,1.02281
217.92778,1.02996
217.68671,1.03659
217.44564,1.04507
217.20457,1.05511
216.96350,1.06482
216.72243,1.07423
216.48136,1.08510
216.24029,1.09743
215.99922,1.10855
215.75815,1.11697
215.51708,1.12661
215.27601,1.14390
215.03494,1.16980
214.79387,1.19694
214.55280,1.21593
214.31172,1.22394
214.07065,1.22538
213.82958,1.22573
213.58851,1.22714
213.34744,1.22921
213.10637,1.23126
212.86530,1.23233
212.62423,1.23287
212.38316,1.23815
212.14209,1.25221
211.90102,1.26942
211.65995,1.28092
211.41888,1.28634
211.17781,1.28815
210.93674,1.28377
210.69567,1.27294
210.45460,1.26307
210.21353,1.26252
209.97245,1.27266
209.73138,1.28799
209.49031,1.30040
209.24924,1.30219
209.00817,1.29199
208.76710,1.27795
208.52603,1.26767
208.28496,1.26170
208.04389,1.25805
207.80282,1.25523
207.56175,1.25018
207.32068,1.23912
207.07961,1.22262
206.83854,1.20494
206.59747,1.18972
206.35640,1.18012
206.11533,1.17700
205.87426,1.17486
205.63318,1.16662
205.39211,1.15089
205.15104,1.13077
204.90997,1.11147
204.66890,1.09919
204.42783,1.09609
204.18676,1.09625
203.94569,1.08976
203.70462,1.07246
203.46355,1.05007
203.22248,1.03141
202.98141,1.02039
202.74034,1.01403
202.49927,1.00628
202.25820,0.99391
202.01713,0.97821
201.77606,0.96218
201.53499,0.94792
201.29391,0.93563
201.05284,0.92404
200.81177,0.91127
200.57070,0.89602
200.32963,0.87908
200.08856,0.86364
199.84749,0.85308
199.60642,0.84798
199.36535,0.84458
199.12428,0.83717
198.88321,0.82409
198.64214,0.80927
198.40107,0.79727
198.16000,0.78947
197.91893,0.78400
197.67786,0.77723
197.43679,0.76686
197.19572,0.75476
196.95464,0.74509
196.71357,0.73935
196.47250,0.73443
196.23143,0.72690
195.99036,0.71772
195.74929,0.71007
195.50822,0.70507
195.26715,0.70117
195.02608,0.69565
194.78501,0.68684
194.54394,0.67632
194.30287,0.66786
194.06180,0.66379
193.82073,0.66258
193.57966,0.66073
193.33859,0.65657
193.09752,0.65157
192.85645,0.64766
192.61537,0.64479
192.37430,0.64129
192.13323,0.63580
191.89216,0.62867
191.65109,0.62203
191.41002,0.61821
191.16895,0.61746
190.92788,0.61708
190.68681,0.61475
190.44574,0.61205
190.20467,0.61157
189.96360,0.61158
189.72253,0.60824
189.48146,0.60265
189.24039,0.59999
188.99932,0.60130
188.75825,0.60152
188.51718,0.59688
188.27610,0.59080
188.03503,0.58872
187.79396,0.59036
187.55289,0.59062
187.31182,0.58745
187.07075,0.58411
186.82968,0.58254
186.58861,0.58040
186.34754,0.57617
186.10647,0.57249
185.86540,0.57209
185.62433,0.57389
185.38326,0.57545
185.14219,0.57675
184.90112,0.57914
184.66005,0.58262
184.41898,0.58588
184.17791,0.58763
183.93683,0.58719
183.69576,0.58533
183.45469,0.58458
183.21362,0.58642
182.97255,0.58898
182.73148,0.58991
182.49041,0.58999
182.24934,0.59123
182.00827,0.59340
181.76720,0.59509
181.52613,0.59635
181.28506,0.59758
181.04399,0.59783
180.80292,0.59667
180.56185,0.59585
180.32078,0.59716
180.07971,0.60014
179.83864,0.60337
179.59756,0.60637
179.35649,0.60926
179.11542,0.61243
178.87435,0.61762
178.63328,0.62719
178.39221,0.64069
178.15114,0.65433
177.91007,0.66536
177.66900,0.67447
177.42793,0.68304
177.18686,0.69188
176.94579,0.70187
176.70472,0.71256
176.46365,0.72240
176.22258,0.73236
175.98151,0.74541
175.74044,0.76165
175.49937,0.77910
175.25829,0.79834
175.01722,0.82071
174.77615,0.84427
174.53508,0.86641
174.29401,0.88669
174.05294,0.90404
173.81187,0.91677
173.57080,0.92581
173.32973,0.93326
173.08866,0.94019
172.84759,0.94824
172.60652,0.95854
172.36545,0.96849
172.12438,0.97424
171.88331,0.97587
171.64224,0.97549
171.40117,0.97286
171.16010,0.96768
170.91902,0.96251
170.67795,0.95845
170.43688,0.95199
170.19581,0.94146
169.95474,0.93217
169.71367,0.92964
169.47260,0.93303
169.23153,0.93795
168.99046,0.94109
168.74939,0.94048
168.50832,0.93509
168.26725,0.92622
168.02618,0.91695
167.78511,0.90998
167.54404,0.90621
167.30297,0.90459
167.06190,0.90371
166.82083,0.90443
166.57975,0.90961
166.33868,0.91951
166.09761,0.92920
165.85654,0.93285
165.61547,0.93021
165.37440,0.92648
165.13333,0.92691
164.89226,0.93347
164.65119,0.94482
164.41012,0.95754
164.16905,0.96872
163.92798,0.97836
163.68691,0.98730
163.44584,0.99409
163.20477,0.99632
162.96370,0.99442
162.72263,0.99236
162.48156,0.99506
162.24048,1.00465
161.99941,1.01865
161.75834,1.03196
161.51727,1.04073
161.27620,1.04325
161.03513,1.03882
160.79406,1.02840
160.55299,1.01583
160.31192,1.00622
160.07085,1.00259
159.82978,1.00375
159.58871,1.00568
159.34764,1.00518
159.10657,1.00201
158.86550,0.99749
158.62443,0.99180
158.38336,0.98344
158.14229,0.97232
157.90121,0.96235
157.66014,0.95856
157.41907,0.96226
157.17800,0.96956
156.93693,0.97344
156.69586,0.96853
156.45479,0.95613
156.21372,0.94283
155.97265,0.93349
155.73158,0.92851
155.49051,0.92644
155.24944,0.92422
155.00837,0.91679
154.76730,0.90220
154.52623,0.88409
154.28516,0.86711
154.04409,0.85377
153.80302,0.84441
153.56194,0.83702
153.32087,0.82740
153.07980,0.81254
152.83873,0.79367
152.59766,0.77441
152.35659,0.75742
152.11552,0.74395
151.87445,0.73411
151.63338,0.72525
151.39231,0.71320
151.15124,0.69733
150.91017,0.68145
150.66910,0.66865
150.42803,0.65783
150.18696,0.64587
149.94589,0.63179
149.70482,0.61805
149.46375,0.60778
149.22267,0.60128
148.98160,0.59597
148.74053,0.58973
148.49946,0.58295
148.25839,0.57688
148.01732,0.57190
147.77625,0.56811
147.53518,0.56603
147.29411,0.56525
147.05304,0.56403
146.81197,0.56161
146.57090,0.55933
146.32983,0.55876
146.08876,0.56007
145.84769,0.56258
145.60662,0.56596
145.36555,0.57041
145.12448,0.57643
144.88340,0.58428
144.64233,0.59249
144.40126,0.59795
144.16019,0.59918
143.91912,0.59842
143.67805,0.59853
143.43698,0.59880
143.19591,0.59568
142.95484,0.58783
142.71377,0.57806
142.47270,0.56905
142.23163,0.56025
141.99056,0.55025
141.74949,0.54033
141.50842,0.53299
141.26735,0.52811
141.02628,0.52333
140.78521,0.51800
140.54413,0.51436
140.30306,0.51408
140.06199,0.51563
139.82092,0.51611
139.57985,0.51508
139.33878,0.51486
139.09771,0.51728
138.85664,0.52157
138.61557,0.52625
138.37450,0.53142
138.13343,0.53799
137.89236,0.54645
137.65129,0.55734
137.41022,0.57132
137.16915,0.58757
136.92808,0.60361
136.68701,0.61786
136.44594,0.63169
136.20486,0.64850
135.96379,0.67046
135.72272,0.69619
135.48165,0.72203
135.24058,0.74641
134.99951,0.77207
134.75844,0.80212
134.51737,0.83595
134.27630,0.87118
134.03523,0.90702
133.79416,0.94184
133.55309,0.97156
133.31202,0.99465
133.07095,1.01423
132.82988,1.03458
132.58881,1.05943
132.34774,1.08867
132.10667,1.11370
131.86559,1.12659
131.62452,1.13306
131.38345,1.14074
131.14238,1.14432
130.90131,1.13696
130.66024,1.12362
130.41917,1.11078
130.17810,1.09557
129.93703,1.07238
129.69596,1.04147
129.45489,1.00711
129.21382,0.97224
128.97275,0.93702
128.73168,0.90161
128.49061,0.86785
128.24954,0.83710
128.00847,0.80796
127.76740,0.77782
127.52632,0.74664
127.28525,0.71731
127.04418,0.69225
126.80311,0.67083
126.56204,0.65084
126.32097,0.63136
126.07990,0.61258
125.83883,0.59429
125.59776,0.57662
125.35669,0.56113
125.11562,0.54933
124.87455,0.54048
124.63348,0.53178
124.39241,0.52047
124.15134,0.50646
123.91027,0.49277
123.66920,0.48285
123.42812,0.47745
123.18705,0.47439
122.94598,0.47065
122.70491,0.46468
122.46384,0.45741
122.22277,0.45100
121.98170,0.44634
121.74063,0.44259
121.49956,0.43978
121.25849,0.44009
121.01742,0.44520
120.77635,0.45385
120.53528,0.46356
120.29421,0.47349
120.05314,0.48465
119.81207,0.49848
119.57100,0.51588
119.32993,0.53663
119.08885,0.55914
118.84778,0.58191
118.60671,0.60535
118.36564,0.63109
118.12457,0.65928
117.88350,0.68760
117.64243,0.71290
117.40136,0.73326
117.16029,0.74864
116.91922,0.76069
116.67815,0.77167
116.43708,0.78281
116.19601,0.79336
115.95494,0.80028
115.71387,0.79840
115.47280,0.78401
115.23173,0.76065
114.99066,0.73758
114.74958,0.72032
114.50851,0.70559
114.26744,0.68812
114.02637,0.66948
113.78530,0.65606
113.54423,0.65126
113.30316,0.65366
113.06209,0.66024
112.82102,0.66810
112.57995,0.67441
112.33888,0.67787
112.09781,0.67976
111.85674,0.68188
111.61567,0.68486
111.37460,0.68951
111.13353,0.69716
110.89246,0.70703
110.65139,0.71571
110.41031,0.72082
110.16924,0.72189
109.92817,0.71596
109.68710,0.69897
109.44603,0.67314
109.20496,0.64630
108.96389,0.62402
108.72282,0.60664
108.48175,0.59289
108.24068,0.58180
107.99961,0.57114
107.75854,0.55811
107.51747,0.54171
107.27640,0.52211
107.03533,0.49993
106.79426,0.47831
106.55319,0.46249
106.31212,0.45538
106.07104,0.45435
105.82997,0.45262
105.58890,0.44437
105.34783,0.42900
105.10676,0.41039
104.86569,0.39289
104.62462,0.37902
104.38355,0.37059
104.14248,0.36872
103.90141,0.37108
103.66034,0.37137
103.41927,0.36420
103.17820,0.35009
102.93713,0.33460
102.69606,0.32320
102.45499,0.31773
102.21392,0.31676
101.97285,0.31731
101.73177,0.31562
101.49070,0.30870
101.24963,0.29745
101.00856,0.28686
100.76749,0.28192
100.52642,0.28319
100.28535,0.28568
100.04428,0.28331
99.80321,0.27544
99.56214,0.26702
99.32107,0.26245
99.08000,0.26181
98.83893,0.26212
98.59786,0.26021
98.35679,0.25562
98.11572,0.25149
97.87465,0.25192
97.63358,0.25752
97.39250,0.26367
97.15143,0.26486
96.91036,0.26163
96.66929,0.26070
96.42822,0.26784
96.18715,0.28150
95.94608,0.29255
95.70501,0.29341
95.46394,0.28925
95.22287,0.29172
94.98180,0.30236
94.74073,0.31014
94.49966,0.30871
94.25859,0.30709
94.01752,0.31368
93.77645,0.32241
93.53538,0.32286
93.29431,0.31836
93.05323,0.31942
92.81216,0.32565
92.57109,0.32713
92.33002,0.32061
92.08895,0.31384
91.84788,0.31319
91.60681,0.31748
91.36574,0.32346
91.12467,0.33141
90.88360,0.34364
90.64253,0.36149
90.40146,0.38582
90.16039,0.41655
89.91932,0.45011
89.67825,0.48415
89.43718,0.52358
89.19611,0.57163
88.95504,0.62099
88.71396,0.66454
88.47289,0.70038
88.23182,0.71774
87.99075,0.70616
87.74968,0.67613
87.50861,0.64203
87.26754,0.60666
87.02647,0.57161
86.78540,0.53919
86.54433,0.50618
86.30326,0.47092
86.06219,0.43937
85.82112,0.41511
85.58005,0.39373
85.33898,0.37144
85.09791,0.35012
84.85684,0.33189
84.61577,0.31610
84.37469,0.30190
84.13362,0.28905
83.89255,0.27691
83.65148,0.26497
83.41041,0.25394
83.16934,0.24440
82.92827,0.23544
82.68720,0.22648
82.44613,0.21872
82.20506,0.21271
81.96399,0.20707
81.72292,0.20136
81.48185,0.19734
81.24078,0.19598
80.99971,0.19566
80.75864,0.19429
80.51757,0.19131
80.27650,0.18755
80.03542,0.18457
79.79435,0.18353
79.55328,0.18396
79.31221,0.18442
79.07114,0.18425
78.83007,0.18411
78.58900,0.18455
78.34793,0.18471
78.10686,0.18261
77.86579,0.17691
77.62472,0.16876
77.38365,0.16116
77.14258,0.15622
76.90151,0.15376
76.66044,0.15299
76.41937,0.15384
76.17830,0.15605
75.93723,0.15849
75.69615,0.15977
75.45508,0.15900
75.21401,0.15645
74.97294,0.15405
74.73187,0.15402
74.49080,0.15704
74.24973,0.16244
74.00866,0.16872
73.76759,0.17307
73.52652,0.17262
73.28545,0.16729
73.04438,0.16037
72.80331,0.15636
72.56224,0.15854
72.32117,0.16624
72.08010,0.17371
71.83903,0.17432
71.59796,0.16680
71.35688,0.15560
71.11581,0.14628
70.87474,0.14185
70.63367,0.14243
70.39260,0.14784
70.15153,0.15898
69.91046,0.17590
69.66939,0.19602
69.42832,0.21529
69.18725,0.22975
68.94618,0.23582
68.70511,0.23182
68.46404,0.21964
68.22297,0.20333
67.98190,0.18666
67.74083,0.17246
67.49976,0.16227
67.25869,0.15570
67.01761,0.15068
66.77654,0.14522
66.53547,0.13879
66.29440,0.13215
66.05333,0.12634
65.81226,0.12292
65.57119,0.12386
65.33012,0.12988
65.08905,0.14000
64.84798,0.15330
64.60691,0.16950
64.36584,0.18673
64.12477,0.20093
63.88370,0.20897
63.64263,0.21099
63.40156,0.20850
63.16049,0.20243
62.91942,0.19421
62.67834,0.18602
62.43727,0.17871
62.19620,0.17100
61.95513,0.16139
61.71406,0.14974
61.47299,0.13728
61.23192,0.12572
60.99085,0.11590
60.74978,0.10721
60.50871,0.09913
60.26764,0.09288
60.02657,0.09119
59.78550,0.09626
59.54443,0.10776
59.30336,0.12293
59.06229,0.13921
58.82122,0.15591
58.58015,0.17149
58.33907,0.18066
58.09800,0.17765
57.85693,0.16267
57.61586,0.14198
57.37479,0.12180
57.13372,0.10522
56.89265,0.09437
56.65158,0.09153
56.41051,0.09741
56.16944,0.11048
55.92837,0.12792
55.68730,0.14610
55.44623,0.16066
55.20516,0.16646
54.96409,0.15944
54.72302,0.14157
54.48195,0.12123
54.24088,0.10758
53.99980,0.10700
53.75873,0.12279
53.51766,0.15392
53.27659,0.18935
53.03552,0.20375
52.79445,0.18053
52.55338,0.13896
52.31231,0.10550
52.07124,0.09238
51.83017,0.10318
51.58910,0.13946
51.34803,0.19078
51.10696,0.21068
50.86589,0.16991
50.62482,0.11813
50.38375,0.09378
50.14268,0.10698
49.90161,0.15340
49.66053,0.20093
49.41946,0.19109
49.17839,0.13471
48.93732,0.09556
48.69625,0.10205
48.45518,0.14550
48.21411,0.17068
47.97304,0.13073
47.73197,0.08768
47.49090,0.09144
47.24983,0.13329
47.00876,0.14836
46.76769,0.10495
46.52662,0.07282
46.28555,0.08271
46.04448,0.10641
45.80341,0.10628
45.56234,0.09756
45.32126,0.10876
45.08019,0.12463
44.83912,0.11905
44.59805,0.10676
44.35698,0.10199
44.11591,0.09595
43.87484,0.09063
43.63377,0.09589
43.39270,0.10373
43.15163,0.10718
42.91056,0.11740
42.66949,0.13431
42.42842,0.14076
42.18735,0.13715
41.94628,0.13617
41.70521,0.13461
41.46414,0.12838
41.22307,0.12395
40.98199,0.12533
40.74092,0.13115
40.49985,0.13905
40.25878,0.14407
40.01771,0.14273
39.77664,0.14010
39.53557,0.14413
39.29450,0.15357
39.05343,0.16029
38.81236,0.16168
38.57129,0.16372
38.33022,0.16971
38.08915,0.17282
37.84808,0.16789
37.60701,0.16018
37.36594,0.15551
37.12487,0.15502
36.88380,0.16035
36.64272,0.17303
36.40165,0.18831
36.16058,0.19862
35.91951,0.20088
35.67844,0.19455
35.43737,0.17920
35.19630,0.15834
34.95523,0.14310
34.71416,0.14437
34.47309,0.15990
34.23202,0.17606
33.99095,0.18252
33.74988,0.17851
33.50881,0.17153
33.26774,0.17446
33.02667,0.19124
32.78560,0.20649
32.54453,0.20348
32.30345,0.18362
32.06238,0.16397
31.82131,0.15830
31.58024,0.15913
31.33917,0.14520
31.09810,0.11086
30.85703,0.07545
30.61596,0.05928
30.37489,0.06210
30.13382,0.06745
29.89275,0.06303
29.65168,0.05418
29.41061,0.05228
29.16954,0.05450
28.92847,0.05172
28.68740,0.04349
28.44633,0.03094
28.20526,0.01870
27.96418,0.01578
27.72311,0.01592
27.48204,-0.00035
27.24097,-0.03905
26.99990,-0.08051
26.75883,-0.09769
26.51776,-0.09213
26.27669,-0.08891
26.03562,-0.09929
25.79455,-0.11044
25.55348,-0.11191
25.31241,-0.11333
25.07134,-0.12370
24.83027,-0.13777
24.58920,-0.14972
24.34813,-0.17096
24.10706,-0.21413
23.86599,-0.26088
23.62491,-0.27756
23.38384,-0.25906
23.14277,-0.22524
22.90170,-0.20191
22.66063,-0.20490
22.41956,-0.21587
22.17849,-0.20737
21.93742,-0.19257
21.69635,-0.20836
21.45528,-0.25543
21.21421,-0.29947
20.97314,-0.31942
20.73207,-0.31773
20.49100,-0.31689
20.24993,-0.33244
20.00886,-0.33667
19.76779,-0.32074
19.52672,-0.31861
19.28564,-0.34076
19.04457,-0.36232
18.80350,-0.39376
18.56243,-0.42651
18.32136,-0.43431
18.08029,-0.42655
17.83922,-0.42316
17.59815,-0.41935
17.35708,-0.40597
17.11601,-0.39862
16.87494,-0.40263
16.63387,-0.38867
16.39280,-0.34836
16.15173,-0.31696
15.91066,-0.32114
15.66959,-0.34721
15.42852,-0.35482
15.18745,-0.32566
14.94637,-0.28174
14.70530,-0.25302
14.46423,-0.25168
14.22316,-0.27044
13.98209,-0.29117
13.74102,-0.29570
13.49995,-0.28320
13.25888,-0.27854
13.01781,-0.29529
12.77674,-0.31112
12.53567,-0.29937
12.29460,-0.26853
12.05353,-0.25287
11.81246,-0.26679
11.57139,-0.29285
11.33032,-0.31778
11.08925,-0.33158
10.84818,-0.33170
10.60710,-0.33113
10.36603,-0.33571
10.12496,-0.34276
9.88389,-0.34674
9.64282,-0.33955
9.40175,-0.32265
9.16068,-0.31750
8.91961,-0.33762
8.67854,-0.36329
8.43747,-0.37140
8.19640,-0.38053
7.95533,-0.39320
7.71426,-0.37480
7.47319,-0.32684
7.23212,-0.29528
6.99105,-0.30449
6.74998,-0.34150
6.50891,-0.36348
6.26783,-0.34710
6.02676,-0.32066
5.78569,-0.31649
5.54462,-0.33254
5.30355,-0.35185
5.06248,-0.36003
4.82141,-0.35040
4.58034,-0.33948
4.33927,-0.35238
4.09820,-0.38115
3.85713,-0.39561
3.61606,-0.37698
3.37499,-0.33332
3.13392,-0.30057
2.89285,-0.30985
2.65178,-0.34406
2.41071,-0.36802
2.16964,-0.37990
1.92856,-0.38596
1.68749,-0.38661
1.44642,-0.37656
1.20535,-0.35926
0.96428,-0.34938
0.72321,-0.38562
0.48214,-0.48090
0.24107,-0.47014
-0.00000,-0.08685
