399.69498,1.56652
399.45391,1.58939
399.21284,1.62699
398.97177,1.65275
398.73070,1.65135
398.48963,1.63314
398.24856,1.61289
398.00749,1.59934
397.76642,1.59676
397.52535,1.60736
397.28428,1.62830
397.04321,1.64389
396.80214,1.63297
396.56107,1.59713
396.32000,1.55912
396.07892,1.53894
395.83785,1.54473
395.59678,1.56724
395.35571,1.58753
395.11464,1.60398
394.87357,1.63580
394.63250,1.68464
394.39143,1.71974
394.15036,1.72048
393.90929,1.70331
393.66822,1.68988
393.42715,1.68384
393.18608,1.67883
392.94501,1.66922
392.70394,1.65368
392.46287,1.63793
392.22180,1.63324
391.98073,1.64419
391.73965,1.66190
391.49858,1.68251
391.25751,1.70089
391.01644,1.68837
390.77537,1.63704
390.53430,1.57767
390.29323,1.54577
390.05216,1.55319
389.81109,1.58009
389.57002,1.59661
389.32895,1.59493
389.08788,1.59223
388.84681,1.60646
388.60574,1.63720
388.36467,1.67974
388.12360,1.73482
387.88253,1.77971
387.64146,1.76286
387.40038,1.67647
387.15931,1.59287
386.91824,1.56191
386.67717,1.58098
386.43610,1.60716
386.19503,1.59031
385.95396,1.53456
385.71289,1.48895
385.47182,1.48148
385.23075,1.50020
384.98968,1.51489
384.74861,1.50465
384.50754,1.47545
384.26647,1.44929
384.02540,1.43844
383.78433,1.43501
383.54326,1.42177
383.30219,1.39478
383.06111,1.36615
382.82004,1.34074
382.57897,1.31504
382.33790,1.29810
382.09683,1.30747
381.85576,1.34357
381.61469,1.36682
381.37362,1.34767
381.13255,1.31407
380.89148,1.28124
380.65041,1.24817
380.40934,1.22775
380.16827,1.23627
379.92720,1.27329
379.68613,1.32937
379.44506,1.39439
379.20399,1.44128
378.96292,1.43136
378.72184,1.38146
378.48077,1.35147
378.23970,1.36794
377.99863,1.41808
377.75756,1.47018
377.51649,1.49560
377.27542,1.48496
377.03435,1.45157
376.79328,1.41785
376.55221,1.40458
376.31114,1.41790
376.07007,1.45013
375.82900,1.48870
375.58793,1.51518
375.34686,1.50778
375.10579,1.48051
374.86472,1.46935
374.62365,1.48213
374.38257,1.51256
374.14150,1.54529
373.90043,1.54905
373.65936,1.51550
373.41829,1.47442
373.17722,1.45121
372.93615,1.44220
372.69508,1.43933
372.45401,1.45006
372.21294,1.48840
371.97187,1.54858
371.73080,1.59875
371.48973,1.60480
371.24866,1.57321
371.00759,1.53917
370.76652,1.52298
370.52545,1.51602
370.28437,1.50378
370.04330,1.49621
369.80223,1.49861
369.56116,1.49245
369.32009,1.46684
369.07902,1.43937
368.83795,1.43140
368.59688,1.43964
368.35581,1.44632
368.11474,1.44939
367.87367,1.45770
367.63260,1.47073
367.39153,1.47890
367.15046,1.47047
366.90939,1.44245
366.66832,1.41363
366.42725,1.40825
366.18618,1.42797
365.94510,1.45005
365.70403,1.45600
365.46296,1.44922
365.22189,1.43626
364.98082,1.41784
364.73975,1.39753
364.49868,1.38412
364.25761,1.38694
364.01654,1.40753
363.77547,1.43824
363.53440,1.46641
363.29333,1.47645
363.05226,1.45927
362.81119,1.42435
362.57012,1.39439
362.32905,1.38620
362.08798,1.40317
361.84691,1.43397
361.60583,1.44810
361.36476,1.42114
361.12369,1.37552
360.88262,1.35533
360.64155,1.37602
360.40048,1.41503
360.15941,1.43752
359.91834,1.43103
359.67727,1.41196
359.43620,1.40130
359.19513,1.40356
358.95406,1.40922
358.71299,1.40578
358.47192,1.38629
358.23085,1.35912
357.98978,1.34142
357.74871,1.34012
357.50764,1.34520
357.26656,1.34172
357.02549,1.33215
356.78442,1.33226
356.54335,1.34708
356.30228,1.36388
356.06121,1.36399
355.82014,1.34788
355.57907,1.33804
355.33800,1.34599
355.09693,1.35975
354.85586,1.36737
354.61479,1.37238
354.37372,1.37726
354.13265,1.37200
353.89158,1.35439
353.65051,1.34015
353.40944,1.33892
353.16837,1.34239
352.92729,1.33940
352.68622,1.33341
352.44515,1.34146
352.20408,1.37279
351.96301,1.41173
351.72194,1.42626
351.48087,1.40826
351.23980,1.38380
350.99873,1.36976
350.75766,1.36360
350.51659,1.36661
350.27552,1.38175
350.03445,1.39805
349.79338,1.40073
349.55231,1.38408
349.31124,1.34838
349.07017,1.30503
348.82910,1.27532
348.58802,1.27684
348.34695,1.31214
348.10588,1.36347
347.86481,1.40661
347.62374,1.43692
347.38267,1.46007
347.14160,1.46108
346.90053,1.42502
346.65946,1.37623
346.41839,1.34358
346.17732,1.34085
345.93625,1.36044
345.69518,1.38355
345.45411,1.39992
345.21304,1.40577
344.97197,1.40512
344.73090,1.40628
344.48983,1.41475
344.24875,1.43337
344.00768,1.45338
343.76661,1.45616
343.52554,1.43879
343.28447,1.42697
343.04340,1.44261
342.80233,1.47740
342.56126,1.49843
342.32019,1.48597
342.07912,1.46558
341.83805,1.46037
341.59698,1.46492
341.35591,1.46832
341.11484,1.47850
340.87377,1.50318
340.63270,1.51826
340.39163,1.50516
340.15056,1.48621
339.90948,1.48395
339.66841,1.50516
339.42734,1.54424
339.18627,1.57833
338.94520,1.57935
338.70413,1.53499
338.46306,1.47621
338.22199,1.45375
337.98092,1.46186
337.73985,1.46766
337.49878,1.46691
337.25771,1.46541
337.01664,1.47237
336.77557,1.48811
336.53450,1.49406
336.29343,1.48490
336.05236,1.47591
335.81129,1.48791
335.57021,1.52287
335.32914,1.54483
335.08807,1.52434
334.84700,1.48173
334.60593,1.44459
334.36486,1.42189
334.12379,1.41900
333.88272,1.44435
333.64165,1.46960
333.40058,1.47160
333.15951,1.48334
332.91844,1.49097
332.67737,1.46759
332.43630,1.43856
332.19523,1.43702
331.95416,1.44395
331.71309,1.42727
331.47202,1.40263
331.23094,1.40371
330.98987,1.43865
330.74880,1.47399
330.50773,1.47500
330.26666,1.44988
330.02559,1.41682
329.78452,1.39097
329.54345,1.39144
329.30238,1.41807
329.06131,1.43603
328.82024,1.42168
328.57917,1.38709
328.33810,1.34787
328.09703,1.32756
327.85596,1.34523
327.61489,1.39137
327.37382,1.42502
327.13275,1.43079
326.89167,1.42705
326.65060,1.41204
326.40953,1.39053
326.16846,1.37952
325.92739,1.38427
325.68632,1.38041
325.44525,1.35334
325.20418,1.33166
324.96311,1.33305
324.72204,1.35226
324.48097,1.38510
324.23990,1.42782
323.99883,1.46673
323.75776,1.48976
323.51669,1.50159
323.27562,1.50425
323.03455,1.49517
322.79348,1.47774
322.55240,1.45535
322.31133,1.42967
322.07026,1.41447
321.82919,1.42618
321.58812,1.44963
321.34705,1.45250
321.10598,1.43478
320.86491,1.42026
320.62384,1.42827
320.38277,1.45687
320.14170,1.48078
319.90063,1.48053
319.65956,1.45691
319.41849,1.43055
319.17742,1.41562
318.93635,1.41089
318.69528,1.42215
318.45421,1.45321
318.21313,1.47609
317.97206,1.45545
317.73099,1.40758
317.48992,1.37675
317.24885,1.38598
317.00778,1.42185
316.76671,1.44657
316.52564,1.44634
316.28457,1.44982
316.04350,1.47601
315.80243,1.50127
315.56136,1.48112
315.32029,1.42860
315.07922,1.40296
314.83815,1.42758
314.59708,1.48011
314.35601,1.50632
314.11494,1.47080
313.87386,1.41395
313.63279,1.37698
313.39172,1.36505
313.15065,1.36199
312.90958,1.35601
312.66851,1.35371
312.42744,1.38199
312.18637,1.44098
311.94530,1.50951
311.70423,1.56817
311.46316,1.56055
311.22209,1.50412
310.98102,1.45835
310.73995,1.43231
310.49888,1.42438
310.25781,1.42438
310.01674,1.43238
309.77567,1.46594
309.53459,1.51825
309.29352,1.56950
309.05245,1.59631
308.81138,1.58240
308.57031,1.55969
308.32924,1.54332
308.08817,1.52698
307.84710,1.51521
307.60603,1.51235
307.36496,1.51210
307.12389,1.50129
306.88282,1.47821
306.64175,1.46221
306.40068,1.46812
306.15961,1.48424
305.91854,1.48519
305.67747,1.46545
305.43640,1.45202
305.19532,1.46137
304.95425,1.47653
304.71318,1.48013
304.47211,1.48281
304.23104,1.50073
303.98997,1.51794
303.74890,1.49633
303.50783,1.44477
303.26676,1.41426
303.02569,1.42458
302.78462,1.45070
302.54355,1.45126
302.30248,1.41990
302.06141,1.39185
301.82034,1.39116
301.57927,1.42019
301.33820,1.46327
301.09713,1.48821
300.85605,1.48426
300.61498,1.46837
300.37391,1.45549
300.13284,1.45018
299.89177,1.44811
299.65070,1.44892
299.40963,1.44986
299.16856,1.44389
298.92749,1.42386
298.68642,1.39471
298.44535,1.38530
298.20428,1.41071
297.96321,1.43781
297.72214,1.42045
297.48107,1.37058
297.24000,1.33417
296.99893,1.32939
296.75786,1.33977
296.51678,1.34366
296.27571,1.33778
296.03464,1.33325
295.79357,1.33545
295.55250,1.33152
295.31143,1.31163
295.07036,1.29257
294.82929,1.29525
294.58822,1.31626
294.34715,1.33313
294.10608,1.33377
293.86501,1.32829
293.62394,1.32712
293.38287,1.32648
293.14180,1.31893
292.90073,1.30441
292.65966,1.28631
292.41859,1.27061
292.17751,1.26533
291.93644,1.27495
291.69537,1.29228
291.45430,1.30121
291.21323,1.29548
290.97216,1.28621
290.73109,1.28416
290.49002,1.28631
290.24895,1.28588
290.00788,1.28519
289.76681,1.28957
289.52574,1.29389
289.28467,1.28705
289.04360,1.27198
288.80253,1.26322
288.56146,1.26475
288.32039,1.26452
288.07932,1.25241
287.83824,1.23598
287.59717,1.22628
287.35610,1.22244
287.11503,1.22042
286.87396,1.22467
286.63289,1.23787
286.39182,1.25025
286.15075,1.25112
285.90968,1.24264
285.66861,1.23286
285.42754,1.22595
285.18647,1.22483
284.94540,1.23152
284.70433,1.24260
284.46326,1.25000
284.22219,1.25036
283.98112,1.24883
283.74005,1.24649
283.49897,1.23729
283.25790,1.22227
283.01683,1.21139
282.77576,1.20703
282.53469,1.20108
282.29362,1.19065
282.05255,1.18276
281.81148,1.18264
281.57041,1.18904
281.32934,1.19823
281.08827,1.20637
280.84720,1.21263
280.60613,1.22028
280.36506,1.22808
280.12399,1.22778
279.88292,1.21758
279.64185,1.20644
279.40078,1.20262
279.15970,1.20764
278.91863,1.21928
278.67756,1.23048
278.43649,1.23029
278.19542,1.21817
277.95435,1.20942
277.71328,1.21578
277.47221,1.22908
277.23114,1.22985
276.99007,1.21227
276.74900,1.19206
276.50793,1.18691
276.26686,1.20022
276.02579,1.22153
275.78472,1.23632
275.54365,1.23745
275.30258,1.22872
275.06151,1.21850
274.82043,1.21249
274.57936,1.21096
274.33829,1.21279
274.09722,1.22059
273.85615,1.23826
273.61508,1.26331
273.37401,1.28291
273.13294,1.28253
272.89187,1.26196
272.65080,1.23672
272.40973,1.22338
272.16866,1.22625
271.92759,1.23594
271.68652,1.24233
271.44545,1.24497
271.20438,1.24490
270.96331,1.23712
270.72224,1.22141
270.48116,1.20951
270.24009,1.21366
269.99902,1.23428
269.75795,1.26032
269.51688,1.27889
269.27581,1.28491
269.03474,1.28262
268.79367,1.28127
268.55260,1.28860
268.31153,1.30208
268.07046,1.30840
267.82939,1.30177
267.58832,1.29546
267.34725,1.30299
267.10618,1.32092
266.86511,1.33680
266.62404,1.34590
266.38297,1.35141
266.14189,1.35155
265.90082,1.34594
265.65975,1.34183
265.41868,1.34129
265.17761,1.33840
264.93654,1.33255
264.69547,1.33141
264.45440,1.33871
264.21333,1.34874
263.97226,1.35440
263.73119,1.35760
263.49012,1.36933
263.24905,1.39775
263.00798,1.43902
262.76691,1.47987
262.52584,1.50831
262.28477,1.52055
262.04370,1.52329
261.80262,1.52921
261.56155,1.54045
261.32048,1.55064
261.07941,1.56063
260.83834,1.57724
260.59727,1.60262
260.35620,1.62883
260.11513,1.64597
259.87406,1.66421
259.63299,1.69820
259.39192,1.75002
259.15085,1.80137
258.90978,1.81632
258.66871,1.78997
258.42764,1.76450
258.18657,1.77184
257.94550,1.81244
257.70443,1.86166
257.46335,1.88344
257.22228,1.86570
256.98121,1.85312
256.74014,1.90057
256.49907,2.04064
256.25800,2.18617
256.01693,2.12519
255.77586,2.02581
255.53479,1.94530
255.29372,1.90642
255.05265,1.90714
254.81158,1.91017
254.57051,1.87307
254.32944,1.80360
254.08837,1.74855
253.84730,1.73666
253.60623,1.75994
253.36516,1.77902
253.12408,1.76566
252.88301,1.72697
252.64194,1.68992
252.40087,1.67099
252.15980,1.66725
251.91873,1.66754
251.67766,1.66157
251.43659,1.66172
251.19552,1.68170
250.95445,1.70886
250.71338,1.72756
250.47231,1.73470
250.23124,1.71060
249.99017,1.70838
249.74910,1.73196
249.50803,1.74282
249.26696,1.73032
249.02589,1.71305
248.78481,1.71459
248.54374,1.74600
248.30267,1.79089
248.06160,1.80835
247.82053,1.78102
247.57946,1.73910
247.33839,1.70370
247.09732,1.67598
246.85625,1.66661
246.61518,1.68288
246.37411,1.71227
246.13304,1.73294
245.89197,1.73718
245.65090,1.74141
245.40983,1.75244
245.16876,1.77236
244.92769,1.81243
244.68661,1.87313
244.44554,1.93060
244.20447,1.94443
243.96340,1.93332
243.72233,1.93803
243.48126,1.94896
243.24019,1.96791
242.99912,2.02996
242.75805,2.12788
242.51698,2.13563
242.27591,1.98803
242.03484,1.90426
241.79377,1.86332
241.55270,1.78317
241.31163,1.66413
241.07056,1.56744
240.82949,1.50935
240.58842,1.46412
240.34734,1.41167
240.10627,1.35926
239.86520,1.31913
239.62413,1.29054
239.38306,1.26723
239.14199,1.25107
238.90092,1.24405
238.65985,1.23579
238.41878,1.21287
238.17771,1.17882
237.93664,1.14740
237.69557,1.12361
237.45450,1.10513
237.21343,1.08907
236.97236,1.07275
236.73129,1.05629
236.49022,1.04324
236.24915,1.03664
236.00807,1.03326
235.76700,1.02466
235.52593,1.00963
235.28486,0.99603
235.04379,0.98844
234.80272,0.98503
234.56165,0.98514
234.32058,0.99004
234.07951,0.99576
233.83844,0.99518
233.59737,0.98651
233.35630,0.97225
233.11523,0.95642
232.87416,0.94631
232.63309,0.94729
232.39202,0.95557
232.15095,0.96189
231.90988,0.96144
231.66880,0.95473
231.42773,0.94444
231.18666,0.93509
230.94559,0.92878
230.70452,0.92212
230.46345,0.91373
230.22238,0.90868
229.98131,0.91068
229.74024,0.91546
229.49917,0.91431
229.25810,0.90288
229.01703,0.88472
228.77596,0.86779
228.53489,0.86012
228.29382,0.86584
228.05275,0.88215
227.81168,0.89967
227.57061,0.90784
227.32953,0.90367
227.08846,0.89443
226.84739,0.88765
226.60632,0.88152
226.36525,0.87269
226.12418,0.86688
225.88311,0.87118
225.64204,0.88236
225.40097,0.88980
225.15990,0.88552
224.91883,0.87178
224.67776,0.85997
224.43669,0.85958
224.19562,0.87084
223.95455,0.88522
223.71348,0.89070
223.47241,0.88208
223.23134,0.86738
222.99026,0.85898
222.74919,0.86229
222.50812,0.87519
222.26705,0.89323
222.02598,0.91022
221.78491,0.91753
221.54384,0.91386
221.30277,0.90896
221.06170,0.91166
220.82063,0.92212
220.57956,0.93422
220.33849,0.94202
220.09742,0.94532
219.85635,0.94970
219.61528,0.95898
219.37421,0.97090
219.13314,0.98255
218.89207,0.99250
218.65099,0.99857
218.40992,1.00408
218.16885,1.01697
217.92778,1.03732
217.68671,1.05807
217.44564,1.07401
217.20457,1.08256
216.96350,1.08255
216.72243,1.07844
216.48136,1.08082
216.24029,1.09812
215.99922,1.12597
215.75815,1.14645
215.51708,1.14646
215.27601,1.13604
215.03494,1.13361
214.79387,1.14327
214.55280,1.15813
214.31172,1.17267
214.07065,1.18173
213.82958,1.18165
213.58851,1.17794
213.34744,1.18350
213.10637,1.20843
212.86530,1.24673
212.62423,1.27779
212.38316,1.28823
212.14209,1.28412
211.90102,1.27913
211.65995,1.27992
211.41888,1.28106
211.17781,1.27484
210.93674,1.26549
210.69567,1.26448
210.45460,1.27758
210.21353,1.29294
209.97245,1.28501
209.73138,1.25585
209.49031,1.23583
209.24924,1.24231
209.00817,1.27717
208.76710,1.32139
208.52603,1.33606
208.28496,1.31084
208.04389,1.26919
207.80282,1.23876
207.56175,1.23018
207.32068,1.22891
207.07961,1.21863
206.83854,1.20476
206.59747,1.20015
206.35640,1.20946
206.11533,1.22218
205.87426,1.21582
205.63318,1.18686
205.39211,1.15464
205.15104,1.13625
204.90997,1.13442
204.66890,1.13241
204.42783,1.11308
204.18676,1.08135
203.94569,1.05305
203.70462,1.03814
203.46355,1.03569
203.22248,1.03538
202.98141,1.02815
202.74034,1.01652
202.49927,1.00888
202.25820,1.00401
202.01713,0.98882
201.77606,0.96132
201.53499,0.93922
201.29391,0.93515
201.05284,0.93798
200.81177,0.92511
200.57070,0.89616
200.32963,0.87221
200.08856,0.86425
199.84749,0.86111
199.60642,0.84795
199.36535,0.82995
199.12428,0.82263
198.88321,0.82840
198.64214,0.83212
198.40107,0.82047
198.16000,0.80100
197.91893,0.78816
197.67786,0.78410
197.43679,0.77998
197.19572,0.77159
196.95464,0.76424
196.71357,0.76044
196.47250,0.75520
196.23143,0.74408
195.99036,0.73224
195.74929,0.72614
195.50822,0.72253
195.26715,0.71447
195.02608,0.70422
194.78501,0.70030
194.54394,0.70289
194.30287,0.70221
194.06180,0.69322
193.82073,0.68351
193.57966,0.68076
193.33859,0.68182
193.09752,0.67949
192.85645,0.67377
192.61537,0.66766
192.37430,0.65953
192.13323,0.64889
191.89216,0.64126
191.65109,0.63893
191.41002,0.63557
191.16895,0.62704
190.92788,0.61973
190.68681,0.61902
190.44574,0.61984
190.20467,0.61597
189.96360,0.61229
189.72253,0.61690
189.48146,0.62737
189.24039,0.63509
188.99932,0.63704
188.75825,0.63462
188.51718,0.62867
188.27610,0.62174
188.03503,0.61579
187.79396,0.60785
187.55289,0.59669
187.31182,0.58816
187.07075,0.58718
186.82968,0.59105
186.58861,0.59543
186.34754,0.60025
186.10647,0.60601
185.86540,0.61034
185.62433,0.61158
185.38326,0.60995
185.14219,0.60471
184.90112,0.59632
184.66005,0.58882
184.41898,0.58591
184.17791,0.58713
183.93683,0.59038
183.69576,0.59498
183.45469,0.60094
183.21362,0.60867
182.97255,0.61867
182.73148,0.62785
182.49041,0.63052
182.24934,0.62599
182.00827,0.61905
181.76720,0.61308
181.52613,0.60922
181.28506,0.60880
181.04399,0.61224
180.80292,0.61779
180.56185,0.62272
180.32078,0.62441
180.07971,0.62270
179.83864,0.62136
179.59756,0.62237
179.35649,0.62353
179.11542,0.62496
178.87435,0.63139
178.63328,0.64586
178.39221,0.66571
178.15114,0.68433
177.91007,0.69461
177.66900,0.69490
177.42793,0.69182
177.18686,0.69329
176.94579,0.70192
176.70472,0.71625
176.46365,0.73401
176.22258,0.75337
175.98151,0.77275
175.74044,0.78979
175.49937,0.80292
175.25829,0.81562
175.01722,0.83139
174.77615,0.84718
174.53508,0.86092
174.29401,0.87721
174.05294,0.89788
173.81187,0.91660
173.57080,0.92830
173.32973,0.93496
173.08866,0.94027
172.84759,0.94733
172.60652,0.95764
172.36545,0.96829
172.12438,0.97715
171.88331,0.98693
171.64224,0.99900
171.40117,1.00919
171.16010,1.01088
170.91902,0.99908
170.67795,0.97521
170.43688,0.94977
170.19581,0.93751
169.95474,0.94679
169.71367,0.97086
169.47260,0.98773
169.23153,0.97797
168.99046,0.94915
168.74939,0.92314
168.50832,0.91121
168.26725,0.91287
168.02618,0.92282
167.78511,0.93239
167.54404,0.93031
167.30297,0.91373
167.06190,0.89436
166.82083,0.88557
166.57975,0.89351
166.33868,0.91448
166.09761,0.93376
165.85654,0.93718
165.61547,0.92863
165.37440,0.92211
165.13333,0.92411
164.89226,0.93489
164.65119,0.95285
164.41012,0.97096
164.16905,0.97880
163.92798,0.97642
163.68691,0.97641
163.44584,0.98819
163.20477,1.00811
162.96370,1.02331
162.72263,1.02510
162.48156,1.01845
162.24048,1.01700
161.99941,1.03099
161.75834,1.05922
161.51727,1.08744
161.27620,1.09487
161.03513,1.07446
160.79406,1.04571
160.55299,1.03112
160.31192,1.03417
160.07085,1.04129
159.82978,1.03377
159.58871,1.00680
159.34764,0.97854
159.10657,0.96685
158.86550,0.97473
158.62443,0.99170
158.38336,0.99958
158.14229,0.99095
157.90121,0.97741
157.66014,0.97107
157.41907,0.97253
157.17800,0.97323
156.93693,0.96613
156.69586,0.95571
156.45479,0.95128
156.21372,0.95464
155.97265,0.95635
155.73158,0.94509
155.49051,0.92399
155.24944,0.90680
155.00837,0.90161
154.76730,0.90519
154.52623,0.90517
154.28516,0.89113
154.04409,0.86898
153.80302,0.85407
153.56194,0.85123
153.32087,0.85041
153.07980,0.83807
152.83873,0.81349
152.59766,0.78974
152.35659,0.77602
152.11552,0.76932
151.87445,0.75974
151.63338,0.74268
151.39231,0.72448
151.15124,0.71200
150.91017,0.70401
150.66910,0.69336
150.42803,0.67710
150.18696,0.66125
149.94589,0.65113
149.70482,0.64324
149.46375,0.63010
149.22267,0.61163
148.98160,0.59625
148.74053,0.58961
148.49946,0.58867
148.25839,0.58726
148.01732,0.58419
147.77625,0.58215
147.53518,0.58124
147.29411,0.57778
147.05304,0.57090
146.81197,0.56631
146.57090,0.56858
146.32983,0.57430
146.08876,0.57689
145.84769,0.57621
145.60662,0.57825
145.36555,0.58585
145.12448,0.59515
144.88340,0.60187
144.64233,0.60611
144.40126,0.60944
144.16019,0.61237
143.91912,0.61580
143.67805,0.61997
143.43698,0.62145
143.19591,0.61696
142.95484,0.60846
142.71377,0.59970
142.47270,0.59094
142.23163,0.58133
141.99056,0.57295
141.74949,0.56723
141.50842,0.56156
141.26735,0.55290
141.02628,0.54281
140.78521,0.53508
140.54413,0.53069
140.30306,0.52854
140.06199,0.52859
139.82092,0.53097
139.57985,0.53338
139.33878,0.53269
139.09771,0.52869
138.85664,0.52503
138.61557,0.52665
138.37450,0.53555
138.13343,0.54902
137.89236,0.56322
137.65129,0.57734
137.41022,0.59209
137.16915,0.60743
136.92808,0.62400
136.68701,0.64231
136.44594,0.66043
136.20486,0.67728
135.96379,0.69544
135.72272,0.71683
135.48165,0.74056
135.24058,0.76575
134.99951,0.79158
134.75844,0.81791
134.51737,0.84816
134.27630,0.88543
134.03523,0.92507
133.79416,0.95637
133.55309,0.97311
133.31202,0.98055
133.07095,0.99090
132.82988,1.01261
132.58881,1.04290
132.34774,1.07366
132.10667,1.10016
131.86559,1.12000
131.62452,1.13269
131.38345,1.14223
131.14238,1.14998
130.90131,1.15011
130.66024,1.13877
130.41917,1.11845
130.17810,1.09223
129.93703,1.06279
129.69596,1.03294
129.45489,1.00375
129.21382,0.97498
128.97275,0.94637
128.73168,0.91790
128.49061,0.89071
128.24954,0.86671
128.00847,0.84496
127.76740,0.82198
127.52632,0.79667
127.28525,0.77016
127.04418,0.74171
126.80311,0.71011
126.56204,0.67652
126.32097,0.64276
126.07990,0.61041
125.83883,0.58292
125.59776,0.56468
125.35669,0.55654
125.11562,0.55417
124.87455,0.55197
124.63348,0.54768
124.39241,0.54240
124.15134,0.53698
123.91027,0.52952
123.66920,0.51737
123.42812,0.50093
123.18705,0.48402
122.94598,0.47067
122.70491,0.46240
122.46384,0.45803
122.22277,0.45607
121.98170,0.45732
121.74063,0.46375
121.49956,0.47346
121.25849,0.47983
121.01742,0.47911
120.77635,0.47557
120.53528,0.47619
120.29421,0.48347
120.05314,0.49557
119.81207,0.51134
119.57100,0.53283
119.32993,0.56185
119.08885,0.59530
118.84778,0.62601
118.60671,0.64874
118.36564,0.66411
118.12457,0.67667
117.88350,0.69125
117.64243,0.71139
117.40136,0.73856
117.16029,0.77116
116.91922,0.80483
116.67815,0.83249
116.43708,0.84274
116.19601,0.82579
115.95494,0.78723
115.71387,0.74625
115.47280,0.72013
115.23173,0.71470
114.99066,0.72545
114.74958,0.74363
114.50851,0.75750
114.26744,0.75023
114.02637,0.71837
113.78530,0.68373
113.54423,0.66316
113.30316,0.65777
113.06209,0.66622
112.82102,0.69005
112.57995,0.71791
112.33888,0.71816
112.09781,0.68689
111.85674,0.65561
111.61567,0.64571
111.37460,0.66380
111.13353,0.70723
110.89246,0.75683
110.65139,0.77183
110.41031,0.73711
110.16924,0.69207
109.92817,0.66638
109.68710,0.66392
109.44603,0.67783
109.20496,0.69068
108.96389,0.67536
108.72282,0.63435
108.48175,0.60055
108.24068,0.59138
107.99961,0.60031
107.75854,0.60648
107.51747,0.58931
107.27640,0.54922
107.03533,0.50690
106.79426,0.48056
106.55319,0.47466
106.31212,0.47702
106.07104,0.46701
105.82997,0.44154
105.58890,0.41852
105.34783,0.41324
105.10676,0.42587
104.86569,0.43996
104.62462,0.43444
104.38355,0.41057
104.14248,0.38823
103.90141,0.38097
103.66034,0.38577
103.41927,0.38595
103.17820,0.37109
102.93713,0.35205
102.69606,0.34494
102.45499,0.35087
102.21392,0.35417
101.97285,0.34098
101.73177,0.31993
101.49070,0.30913
101.24963,0.31313
101.00856,0.31976
100.76749,0.31364
100.52642,0.29879
100.28535,0.29343
100.04428,0.30402
99.80321,0.31769
99.56214,0.31616
99.32107,0.30171
99.08000,0.29160
98.83893,0.29116
98.59786,0.28844
98.35679,0.27536
98.11572,0.26401
97.87465,0.26641
97.63358,0.27513
97.39250,0.27340
97.15143,0.26538
96.91036,0.26909
96.66929,0.28312
96.42822,0.28742
96.18715,0.27892
95.94608,0.27855
95.70501,0.29391
95.46394,0.30902
95.22287,0.31428
94.98180,0.31914
94.74073,0.32632
94.49966,0.32699
94.25859,0.32377
94.01752,0.32782
93.77645,0.33579
93.53538,0.33553
93.29431,0.32993
93.05323,0.32855
92.81216,0.32890
92.57109,0.32647
92.33002,0.32643
92.08895,0.33047
91.84788,0.33292
91.60681,0.33447
91.36574,0.33970
91.12467,0.34739
90.88360,0.35949
90.64253,0.38413
90.40146,0.42011
90.16039,0.45745
89.91932,0.49527
89.67825,0.53831
89.43718,0.58472
89.19611,0.63114
88.95504,0.67475
88.71396,0.71270
88.47289,0.74564
88.23182,0.76437
87.99075,0.75333
87.74968,0.71745
87.50861,0.67471
87.26754,0.63435
87.02647,0.59787
86.78540,0.56317
86.54433,0.52592
86.30326,0.48630
86.06219,0.45076
85.82112,0.42263
85.58005,0.39880
85.33898,0.37614
85.09791,0.35403
84.85684,0.33213
84.61577,0.31137
84.37469,0.29405
84.13362,0.28110
83.89255,0.27128
83.65148,0.26231
83.41041,0.25270
83.16934,0.24346
82.92827,0.23603
82.68720,0.22970
82.44613,0.22404
82.20506,0.22070
81.96399,0.21983
81.72292,0.21854
81.48185,0.21517
81.24078,0.21216
80.99971,0.21231
80.75864,0.21479
80.51757,0.21677
80.27650,0.21728
80.03542,0.21728
79.79435,0.21738
79.55328,0.21732
79.31221,0.21635
79.07114,0.21334
78.83007,0.20859
78.58900,0.20410
78.34793,0.20040
78.10686,0.19586
77.86579,0.18998
77.62472,0.18434
77.38365,0.18079
77.14258,0.18068
76.90151,0.18388
76.66044,0.18852
76.41937,0.19210
76.17830,0.19166
75.93723,0.18529
75.69615,0.17513
75.45508,0.16614
75.21401,0.16140
74.97294,0.16087
74.73187,0.16354
74.49080,0.16869
74.24973,0.17534
74.00866,0.18168
73.76759,0.18531
73.52652,0.18503
73.28545,0.18156
73.04438,0.17551
72.80331,0.16687
72.56224,0.15721
72.32117,0.14934
72.08010,0.14402
71.83903,0.13943
71.59796,0.13498
71.35688,0.13345
71.11581,0.13750
70.87474,0.14601
70.63367,0.15699
70.39260,0.17356
70.15153,0.20291
69.91046,0.24771
69.66939,0.30009
69.42832,0.34389
69.18725,0.36403
68.94618,0.35802
68.70511,0.33546
68.46404,0.30538
68.22297,0.27193
67.98190,0.23870
67.74083,0.20971
67.49976,0.18663
67.25869,0.16736
67.01761,0.14867
66.77654,0.12969
66.53547,0.11278
66.29440,0.10149
66.05333,0.09793
65.81226,0.10193
65.57119,0.11240
65.33012,0.12882
65.08905,0.15159
64.84798,0.18128
64.60691,0.21704
64.36584,0.25267
64.12477,0.27422
63.88370,0.26937
63.64263,0.24092
63.40156,0.20260
63.16049,0.16588
62.91942,0.13591
62.67834,0.11474
62.43727,0.10442
62.19620,0.10720
61.95513,0.12444
61.71406,0.15611
61.47299,0.19895
61.23192,0.23677
60.99085,0.23540
60.74978,0.19059
60.50871,0.13948
60.26764,0.10374
60.02657,0.08511
59.78550,0.07984
59.54443,0.08603
59.30336,0.10548
59.06229,0.14134
58.82122,0.19319
58.58015,0.23774
58.33907,0.22100
58.09800,0.15531
57.85693,0.09699
57.61586,0.06750
57.37479,0.07023
57.13372,0.10595
56.89265,0.17636
56.65158,0.25075
56.41051,0.22371
56.16944,0.13339
55.92837,0.07134
55.68730,0.05056
55.44623,0.06993
55.20516,0.13729
54.96409,0.23445
54.72302,0.24833
54.48195,0.16328
54.24088,0.09978
53.99980,0.08589
53.75873,0.12079
53.51766,0.20158
53.27659,0.26644
53.03552,0.21322
52.79445,0.14233
52.55338,0.12280
52.31231,0.16656
52.07124,0.24911
51.83017,0.24898
51.58910,0.15763
51.34803,0.10305
51.10696,0.12565
50.86589,0.21171
50.62482,0.23618
50.38375,0.14813
50.14268,0.09492
49.90161,0.11774
49.66053,0.19261
49.41946,0.19388
49.17839,0.10348
48.93732,0.06767
48.69625,0.11696
48.45518,0.17852
48.21411,0.14332
47.97304,0.09014
47.73197,0.10366
47.49090,0.15865
47.24983,0.15901
47.00876,0.13276
46.76769,0.14232
46.52662,0.14672
46.28555,0.11003
46.04448,0.08647
45.80341,0.09400
45.56234,0.10176
45.32126,0.10778
45.08019,0.12316
44.83912,0.12446
44.59805,0.10542
44.35698,0.09413
44.11591,0.09403
43.87484,0.09557
43.63377,0.10479
43.39270,0.12090
43.15163,0.13241
42.91056,0.14295
42.66949,0.15445
42.42842,0.15848
42.18735,0.15688
41.94628,0.15447
41.70521,0.14654
41.46414,0.13438
41.22307,0.12409
40.98199,0.11929
40.74092,0.12608
40.49985,0.14468
40.25878,0.16404
40.01771,0.17753
39.77664,0.18814
39.53557,0.19391
39.29450,0.19114
39.05343,0.18190
38.81236,0.16734
38.57129,0.15881
38.33022,0.17818
38.08915,0.23071
37.84808,0.28991
37.60701,0.31702
37.36594,0.30074
37.12487,0.26670
36.88380,0.24673
36.64272,0.24561
36.40165,0.24011
36.16058,0.21889
35.91951,0.19799
35.67844,0.19419
35.43737,0.20882
35.19630,0.23217
34.95523,0.25309
34.71416,0.26155
34.47309,0.25203
34.23202,0.23379
33.99095,0.22269
33.74988,0.21950
33.50881,0.21296
33.26774,0.20979
33.02667,0.22463
32.78560,0.25419
32.54453,0.28426
32.30345,0.30265
32.06238,0.29667
31.82131,0.26931
31.58024,0.24587
31.33917,0.24045
31.09810,0.23928
30.85703,0.23197
30.61596,0.23070
30.37489,0.24588
30.13382,0.26151
29.89275,0.25692
29.65168,0.24842
29.41061,0.27404
29.16954,0.33296
28.92847,0.38175
28.68740,0.38849
28.44633,0.35793
28.20526,0.30952
27.96418,0.25288
27.72311,0.19554
27.48204,0.14832
27.24097,0.11647
26.99990,0.10394
26.75883,0.10628
26.51776,0.12592
26.27669,0.16804
26.03562,0.21214
25.79455,0.22748
25.55348,0.20407
25.31241,0.16251
25.07134,0.12324
24.83027,0.08196
24.58920,0.03745
24.34813,0.00840
24.10706,0.00072
23.86599,0.00083
23.62491,0.00166
23.38384,0.01536
23.14277,0.06063
22.90170,0.12699
22.66063,0.16620
22.41956,0.14744
22.17849,0.10209
21.93742,0.08304
21.69635,0.09437
21.45528,0.10049
21.21421,0.08628
20.97314,0.07074
20.73207,0.07280
20.49100,0.09718
20.24993,0.13196
20.00886,0.14407
19.76779,0.12025
19.52672,0.08028
19.28564,0.04553
19.04457,0.03041
18.80350,0.04096
18.56243,0.07131
18.32136,0.10172
18.08029,0.11076
17.83922,0.10090
17.59815,0.09959
17.35708,0.11896
17.11601,0.13688
16.87494,0.12835
16.63387,0.08915
16.39280,0.02942
16.15173,-0.03105
15.91066,-0.06799
15.66959,-0.07911
15.42852,-0.08425
15.18745,-0.08983
14.94637,-0.08024
14.70530,-0.05025
14.46423,-0.01171
14.22316,0.02197
13.98209,0.03661
13.74102,0.02345
13.49995,-0.00804
13.25888,-0.04351
13.01781,-0.07830
12.77674,-0.10385
12.53567,-0.10583
12.29460,-0.08352
12.05353,-0.04662
11.81246,-0.01505
11.57139,-0.00878
11.33032,-0.02759
11.08925,-0.05600
10.84818,-0.08274
10.60710,-0.10836
10.36603,-0.14170
10.12496,-0.17641
9.88389,-0.17838
9.64282,-0.12894
9.40175,-0.06563
9.16068,-0.04968
8.91961,-0.09515
8.67854,-0.14682
8.43747,-0.14987
8.19640,-0.12177
7.95533,-0.11479
7.71426,-0.14853
7.47319,-0.20632
7.23212,-0.25702
6.99105,-0.28123
6.74998,-0.29075
6.50891,-0.29801
6.26783,-0.29445
6.02676,-0.28850
5.78569,-0.27747
5.54462,-0.23865
5.30355,-0.18178
5.06248,-0.13000
4.82141,-0.10573
4.58034,-0.12624
4.33927,-0.17194
4.09820,-0.21859
3.85713,-0.26351
3.61606,-0.29062
3.37499,-0.25923
3.13392,-0.18615
2.89285,-0.14161
2.65178,-0.16835
2.41071,-0.21620
2.16964,-0.26192
1.92856,-0.29190
1.68749,-0.27986
1.44642,-0.24278
1.20535,-0.19960
0.96428,-0.19106
0.72321,-0.23590
0.48214,-0.28659
0.24107,-0.25445
-0.00000,-0.14709
