399.69498,1.52859
399.45391,1.53163
399.21284,1.54296
398.97177,1.54934
398.73070,1.54232
398.48963,1.52957
398.24856,1.52525
398.00749,1.53321
397.76642,1.54107
397.52535,1.53929
397.28428,1.53327
397.04321,1.53001
396.80214,1.52994
396.56107,1.53299
396.32000,1.54055
396.07892,1.54926
395.83785,1.55544
395.59678,1.56196
395.35571,1.56927
395.11464,1.56829
394.87357,1.54994
394.63250,1.51834
394.39143,1.48911
394.15036,1.47735
393.90929,1.48952
393.66822,1.52083
393.42715,1.55618
393.18608,1.57904
392.94501,1.58337
392.70394,1.57205
392.46287,1.54678
392.22180,1.50914
391.98073,1.46935
391.73965,1.44095
391.49858,1.43005
391.25751,1.43584
391.01644,1.45640
390.77537,1.48294
390.53430,1.49596
390.29323,1.48772
390.05216,1.47636
389.81109,1.47613
389.57002,1.47824
389.32895,1.47316
389.08788,1.46840
388.84681,1.47160
388.60574,1.47475
388.36467,1.46459
388.12360,1.44187
387.88253,1.42180
387.64146,1.41707
387.40038,1.42774
387.15931,1.44292
386.91824,1.44587
386.67717,1.42639
386.43610,1.39461
386.19503,1.37312
385.95396,1.37348
385.71289,1.38679
385.47182,1.39690
385.23075,1.39731
384.98968,1.39310
384.74861,1.39018
384.50754,1.38628
384.26647,1.37692
384.02540,1.36512
383.78433,1.35893
383.54326,1.36322
383.30219,1.37524
383.06111,1.37971
382.82004,1.35870
382.57897,1.31688
382.33790,1.27762
382.09683,1.25900
381.85576,1.26323
381.61469,1.28139
381.37362,1.30123
381.13255,1.31263
380.89148,1.31464
380.65041,1.31478
380.40934,1.31619
380.16827,1.31323
379.92720,1.30154
379.68613,1.28653
379.44506,1.27891
379.20399,1.28543
378.96292,1.30443
378.72184,1.32387
378.48077,1.32715
378.23970,1.30927
377.99863,1.28658
377.75756,1.28013
377.51649,1.29360
377.27542,1.31560
377.03435,1.33710
376.79328,1.35976
376.55221,1.38184
376.31114,1.39354
376.07007,1.39217
375.82900,1.38743
375.58793,1.39284
375.34686,1.41207
375.10579,1.43314
374.86472,1.44045
374.62365,1.43125
374.38257,1.41450
374.14150,1.39779
373.90043,1.38277
373.65936,1.37200
373.41829,1.36994
373.17722,1.37564
372.93615,1.38125
372.69508,1.37981
372.45401,1.37477
372.21294,1.37505
371.97187,1.38270
371.73080,1.39301
371.48973,1.40134
371.24866,1.40529
371.00759,1.40337
370.76652,1.39584
370.52545,1.38311
370.28437,1.36569
370.04330,1.34895
369.80223,1.34260
369.56116,1.35193
369.32009,1.37107
369.07902,1.38680
368.83795,1.38905
368.59688,1.37976
368.35581,1.36805
368.11474,1.35774
367.87367,1.34519
367.63260,1.32876
367.39153,1.31645
367.15046,1.31607
366.90939,1.32480
366.66832,1.33188
366.42725,1.32681
366.18618,1.30787
365.94510,1.28535
365.70403,1.27215
365.46296,1.27214
365.22189,1.27870
364.98082,1.28400
364.73975,1.28598
364.49868,1.28389
364.25761,1.27787
364.01654,1.27255
363.77547,1.27211
363.53440,1.27500
363.29333,1.27699
363.05226,1.27694
362.81119,1.27786
362.57012,1.28161
362.32905,1.28438
362.08798,1.28170
361.84691,1.27498
361.60583,1.26961
361.36476,1.26903
361.12369,1.27163
360.88262,1.27300
360.64155,1.27144
360.40048,1.26886
360.15941,1.26630
359.91834,1.26213
359.67727,1.25406
359.43620,1.24316
359.19513,1.23641
358.95406,1.24229
358.71299,1.26061
358.47192,1.27694
358.23085,1.27657
357.98978,1.26423
357.74871,1.25528
357.50764,1.25629
357.26656,1.26278
357.02549,1.26710
356.78442,1.26480
356.54335,1.25746
356.30228,1.25131
356.06121,1.25034
355.82014,1.25111
355.57907,1.24661
355.33800,1.23475
355.09693,1.21930
354.85586,1.20610
354.61479,1.20202
354.37372,1.21153
354.13265,1.22919
353.89158,1.24005
353.65051,1.23602
353.40944,1.22635
353.16837,1.22240
352.92729,1.22478
352.68622,1.22838
352.44515,1.23034
352.20408,1.23096
351.96301,1.23114
351.72194,1.23154
351.48087,1.23303
351.23980,1.23758
350.99873,1.24726
350.75766,1.26020
350.51659,1.26815
350.27552,1.26139
350.03445,1.23965
349.79338,1.21571
349.55231,1.20508
349.31124,1.21286
349.07017,1.23162
348.82910,1.25084
348.58802,1.26433
348.34695,1.26810
348.10588,1.26028
347.86481,1.24586
347.62374,1.23446
347.38267,1.23149
347.14160,1.23505
346.90053,1.24094
346.65946,1.24607
346.41839,1.24836
346.17732,1.24791
345.93625,1.24692
345.69518,1.24606
345.45411,1.24337
345.21304,1.23977
344.97197,1.24198
344.73090,1.25517
344.48983,1.27486
344.24875,1.28786
344.00768,1.28482
343.76661,1.27200
343.52554,1.26440
343.28447,1.27022
343.04340,1.28478
342.80233,1.29686
342.56126,1.30142
342.32019,1.30578
342.07912,1.32112
341.83805,1.34782
341.59698,1.36966
341.35591,1.36955
341.11484,1.35422
340.87377,1.34795
340.63270,1.36206
340.39163,1.38237
340.15056,1.38874
339.90948,1.38039
339.66841,1.36968
339.42734,1.36459
339.18627,1.36790
338.94520,1.38125
338.70413,1.39833
338.46306,1.40510
338.22199,1.39826
337.98092,1.39209
337.73985,1.39684
337.49878,1.40262
337.25771,1.39669
337.01664,1.38609
336.77557,1.38282
336.53450,1.38172
336.29343,1.37112
336.05236,1.35613
335.81129,1.34994
335.57021,1.35811
335.32914,1.37730
335.08807,1.39656
334.84700,1.40260
334.60593,1.39347
334.36486,1.38138
334.12379,1.37425
333.88272,1.36471
333.64165,1.34522
333.40058,1.32367
333.15951,1.31308
332.91844,1.31506
332.67737,1.31951
332.43630,1.31760
332.19523,1.31163
331.95416,1.30859
331.71309,1.30821
331.47202,1.30482
331.23094,1.29837
330.98987,1.29341
330.74880,1.28962
330.50773,1.28397
330.26666,1.27917
330.02559,1.28183
329.78452,1.29371
329.54345,1.30744
329.30238,1.31409
329.06131,1.31196
328.82024,1.30219
328.57917,1.28548
328.33810,1.26358
328.09703,1.24234
327.85596,1.23076
327.61489,1.23494
327.37382,1.25154
327.13275,1.26950
326.89167,1.28300
326.65060,1.29386
326.40953,1.29942
326.16846,1.29192
325.92739,1.27540
325.68632,1.26486
325.44525,1.26489
325.20418,1.26443
324.96311,1.25660
324.72204,1.25115
324.48097,1.25848
324.23990,1.27539
323.99883,1.29082
323.75776,1.30124
323.51669,1.30975
323.27562,1.31469
323.03455,1.31362
322.79348,1.31006
322.55240,1.30877
322.31133,1.30842
322.07026,1.30616
321.82919,1.30191
321.58812,1.29417
321.34705,1.28493
321.10598,1.28363
320.86491,1.29727
320.62384,1.31730
320.38277,1.32396
320.14170,1.31310
319.90063,1.29969
319.65956,1.29512
319.41849,1.29905
319.17742,1.30130
318.93635,1.29465
318.69528,1.28719
318.45421,1.29053
318.21313,1.30454
317.97206,1.32301
317.73099,1.34077
317.48992,1.34905
317.24885,1.33454
317.00778,1.29605
316.76671,1.25553
316.52564,1.23683
316.28457,1.24427
316.04350,1.26573
315.80243,1.29004
315.56136,1.31542
315.32029,1.34067
315.07922,1.35885
314.83815,1.36519
314.59708,1.36167
314.35601,1.34857
314.11494,1.32666
313.87386,1.30852
313.63279,1.30985
313.39172,1.32783
313.15065,1.34053
312.90958,1.33756
312.66851,1.32863
312.42744,1.31746
312.18637,1.30358
311.94530,1.29671
311.70423,1.30498
311.46316,1.32030
311.22209,1.33229
310.98102,1.34210
310.73995,1.34997
310.49888,1.34988
310.25781,1.34279
310.01674,1.33745
309.77567,1.33617
309.53459,1.33452
309.29352,1.33268
309.05245,1.33426
308.81138,1.33765
308.57031,1.34238
308.32924,1.34955
308.08817,1.35103
307.84710,1.34171
307.60603,1.33309
307.36496,1.33713
307.12389,1.35019
306.88282,1.36253
306.64175,1.37111
306.40068,1.37715
306.15961,1.37940
305.91854,1.37512
305.67747,1.36558
305.43640,1.35618
305.19532,1.34932
304.95425,1.34213
304.71318,1.33347
304.47211,1.32692
304.23104,1.32648
303.98997,1.33035
303.74890,1.32932
303.50783,1.31887
303.26676,1.30684
303.02569,1.30390
302.78462,1.30998
302.54355,1.31174
302.30248,1.29900
302.06141,1.28043
301.82034,1.27047
301.57927,1.27196
301.33820,1.27978
301.09713,1.29014
300.85605,1.29881
300.61498,1.29731
300.37391,1.28141
300.13284,1.26059
299.89177,1.24870
299.65070,1.24922
299.40963,1.25570
299.16856,1.26155
298.92749,1.26376
298.68642,1.26068
298.44535,1.25326
298.20428,1.24735
297.96321,1.24908
297.72214,1.25590
297.48107,1.25625
297.24000,1.24458
296.99893,1.23106
296.75786,1.22597
296.51678,1.22463
296.27571,1.21766
296.03464,1.20683
295.79357,1.20075
295.55250,1.20085
295.31143,1.20070
295.07036,1.19710
294.82929,1.19320
294.58822,1.19095
294.34715,1.18807
294.10608,1.18280
293.86501,1.17769
293.62394,1.17733
293.38287,1.18281
293.14180,1.18905
292.90073,1.18940
292.65966,1.18304
292.41859,1.17455
292.17751,1.16737
291.93644,1.16076
291.69537,1.15280
291.45430,1.14513
291.21323,1.14285
290.97216,1.14901
290.73109,1.15956
290.49002,1.16496
290.24895,1.15978
290.00788,1.14954
289.76681,1.14366
289.52574,1.14490
289.28467,1.14842
289.04360,1.14919
288.80253,1.14723
288.56146,1.14475
288.32039,1.14251
288.07932,1.14072
287.83824,1.13968
287.59717,1.13823
287.35610,1.13447
287.11503,1.12936
286.87396,1.12579
286.63289,1.12393
286.39182,1.12128
286.15075,1.11600
285.90968,1.10903
285.66861,1.10337
285.42754,1.10255
285.18647,1.10930
284.94540,1.12197
284.70433,1.13266
284.46326,1.13449
284.22219,1.13033
283.98112,1.12820
283.74005,1.12984
283.49897,1.12934
283.25790,1.12248
283.01683,1.11259
282.77576,1.10449
282.53469,1.09809
282.29362,1.09157
282.05255,1.08723
281.81148,1.08930
281.57041,1.09742
281.32934,1.10643
281.08827,1.11236
280.84720,1.11555
280.60613,1.11784
280.36506,1.11940
280.12399,1.11906
279.88292,1.11672
279.64185,1.11402
279.40078,1.11268
279.15970,1.11351
278.91863,1.11597
278.67756,1.11821
278.43649,1.11840
278.19542,1.11677
277.95435,1.11552
277.71328,1.11571
277.47221,1.11509
277.23114,1.11129
276.99007,1.10699
276.74900,1.10837
276.50793,1.11678
276.26686,1.12611
276.02579,1.12965
275.78472,1.12636
275.54365,1.11949
275.30258,1.11301
275.06151,1.11096
274.82043,1.11504
274.57936,1.12178
274.33829,1.12652
274.09722,1.12928
273.85615,1.13261
273.61508,1.13603
273.37401,1.13725
273.13294,1.13672
272.89187,1.13658
272.65080,1.13709
272.40973,1.13721
272.16866,1.13705
271.92759,1.13821
271.68652,1.14158
271.44545,1.14551
271.20438,1.14701
270.96331,1.14555
270.72224,1.14399
270.48116,1.14438
270.24009,1.14629
269.99902,1.14988
269.75795,1.15581
269.51688,1.16186
269.27581,1.16506
269.03474,1.16656
268.79367,1.17076
268.55260,1.17989
268.31153,1.19117
268.07046,1.19905
267.82939,1.20024
267.58832,1.19711
267.34725,1.19467
267.10618,1.19586
266.86511,1.20131
266.62404,1.21074
266.38297,1.22208
266.14189,1.23130
265.90082,1.23651
265.65975,1.24031
265.41868,1.24484
265.17761,1.24787
264.93654,1.24795
264.69547,1.24963
264.45440,1.25820
264.21333,1.27241
263.97226,1.28648
263.73119,1.29686
263.49012,1.30365
263.24905,1.30823
263.00798,1.31449
262.76691,1.32922
262.52584,1.35487
262.28477,1.38432
262.04370,1.40921
261.80262,1.43121
261.56155,1.45577
261.32048,1.47943
261.07941,1.49497
260.83834,1.50401
260.59727,1.51285
260.35620,1.52297
260.11513,1.53292
259.87406,1.54638
259.63299,1.56964
259.39192,1.60127
259.15085,1.63329
258.90978,1.66432
258.66871,1.70265
258.42764,1.75185
258.18657,1.79856
257.94550,1.82350
257.70443,1.82663
257.46335,1.82424
257.22228,1.82013
256.98121,1.80391
256.74014,1.77640
256.49907,1.75217
256.25800,1.74450
256.01693,1.75725
255.77586,1.78189
255.53479,1.79907
255.29372,1.79722
255.05265,1.78412
254.81158,1.77100
254.57051,1.75352
254.32944,1.72308
254.08837,1.68976
253.84730,1.66948
253.60623,1.66434
253.36516,1.66215
253.12408,1.64822
252.88301,1.62299
252.64194,1.60302
252.40087,1.60178
252.15980,1.61274
251.91873,1.61830
251.67766,1.61343
251.43659,1.60771
251.19552,1.60811
250.95445,1.61324
250.71338,1.61397
250.47231,1.60184
250.23124,1.58343
249.99017,1.57347
249.74910,1.57901
249.50803,1.59400
249.26696,1.60605
249.02589,1.61074
248.78481,1.61442
248.54374,1.62432
248.30267,1.64168
248.06160,1.65801
247.82053,1.66102
247.57946,1.64752
247.33839,1.62507
247.09732,1.60334
246.85625,1.59088
246.61518,1.59390
246.37411,1.60683
246.13304,1.61552
245.89197,1.61657
245.65090,1.61928
245.40983,1.63331
245.16876,1.66438
244.92769,1.71032
244.68661,1.75571
244.44554,1.78181
244.20447,1.79539
243.96340,1.83372
243.72233,1.92227
243.48126,2.03217
243.24019,2.09300
242.99912,2.07986
242.75805,2.04234
242.51698,1.98053
242.27591,1.82455
242.03484,1.70272
241.79377,1.62092
241.55270,1.56242
241.31163,1.51411
241.07056,1.46574
240.82949,1.41578
240.58842,1.36816
240.34734,1.32549
240.10627,1.28712
239.86520,1.25342
239.62413,1.22542
239.38306,1.19977
239.14199,1.17173
238.90092,1.14248
238.65985,1.11831
238.41878,1.10251
238.17771,1.09176
237.93664,1.08004
237.69557,1.06489
237.45450,1.04886
237.21343,1.03411
236.97236,1.01998
236.73129,1.00625
236.49022,0.99479
236.24915,0.98632
236.00807,0.97748
235.76700,0.96421
235.52593,0.94773
235.28486,0.93404
235.04379,0.92675
234.80272,0.92269
234.56165,0.91644
234.32058,0.90810
234.07951,0.90231
233.83844,0.90028
233.59737,0.89811
233.35630,0.89344
233.11523,0.88886
232.87416,0.88703
232.63309,0.88650
232.39202,0.88488
232.15095,0.88278
231.90988,0.88149
231.66880,0.87944
231.42773,0.87502
231.18666,0.87090
230.94559,0.87059
230.70452,0.87217
230.46345,0.87038
230.22238,0.86437
229.98131,0.85824
229.74024,0.85358
229.49917,0.84837
229.25810,0.84263
229.01703,0.83928
228.77596,0.83930
228.53489,0.84095
228.29382,0.84333
228.05275,0.84624
227.81168,0.84775
227.57061,0.84654
227.32953,0.84462
227.08846,0.84392
226.84739,0.84318
226.60632,0.84041
226.36525,0.83558
226.12418,0.82975
225.88311,0.82390
225.64204,0.81976
225.40097,0.81960
225.15990,0.82386
224.91883,0.83000
224.67776,0.83484
224.43669,0.83733
224.19562,0.83785
223.95455,0.83662
223.71348,0.83422
223.47241,0.83192
223.23134,0.83049
222.99026,0.83047
222.74919,0.83250
222.50812,0.83616
222.26705,0.84051
222.02598,0.84578
221.78491,0.85205
221.54384,0.85792
221.30277,0.86330
221.06170,0.87018
220.82063,0.87893
220.57956,0.88798
220.33849,0.89698
220.09742,0.90583
219.85635,0.91254
219.61528,0.91624
219.37421,0.91947
219.13314,0.92526
218.89207,0.93445
218.65099,0.94564
218.40992,0.95597
218.16885,0.96358
217.92778,0.96913
217.68671,0.97462
217.44564,0.98246
217.20457,0.99507
216.96350,1.01194
216.72243,1.02833
216.48136,1.04088
216.24029,1.05154
215.99922,1.06215
215.75815,1.07072
215.51708,1.07682
215.27601,1.08468
215.03494,1.09737
214.79387,1.11258
214.55280,1.12619
214.31172,1.13764
214.07065,1.14900
213.82958,1.16085
213.58851,1.17155
213.34744,1.17784
213.10637,1.17638
212.86530,1.16915
212.62423,1.16387
212.38316,1.16600
212.14209,1.17506
211.90102,1.18872
211.65995,1.20495
211.41888,1.22027
211.17781,1.22992
210.93674,1.23013
210.69567,1.22066
210.45460,1.20591
210.21353,1.19181
209.97245,1.18213
209.73138,1.17801
209.49031,1.17851
209.24924,1.18176
209.00817,1.18681
208.76710,1.19167
208.52603,1.19018
208.28496,1.17871
208.04389,1.16247
207.80282,1.14887
207.56175,1.14071
207.32068,1.13622
207.07961,1.13227
206.83854,1.12855
206.59747,1.12818
206.35640,1.13205
206.11533,1.13378
205.87426,1.12503
205.63318,1.10636
205.39211,1.08568
205.15104,1.06801
204.90997,1.05384
204.66890,1.04316
204.42783,1.03494
204.18676,1.02502
203.94569,1.00964
203.70462,0.99074
203.46355,0.97503
203.22248,0.96789
202.98141,0.96861
202.74034,0.97026
202.49927,0.96458
202.25820,0.94864
202.01713,0.92662
201.77606,0.90482
201.53499,0.88709
201.29391,0.87459
201.05284,0.86683
200.81177,0.86121
200.57070,0.85285
200.32963,0.83861
200.08856,0.82092
199.84749,0.80593
199.60642,0.79837
199.36535,0.79783
199.12428,0.79810
198.88321,0.79135
198.64214,0.77535
198.40107,0.75569
198.16000,0.74014
197.91893,0.73226
197.67786,0.72980
197.43679,0.72776
197.19572,0.72276
196.95464,0.71522
196.71357,0.70792
196.47250,0.70301
196.23143,0.69935
195.99036,0.69309
195.74929,0.68234
195.50822,0.67077
195.26715,0.66394
195.02608,0.66287
194.78501,0.66249
194.54394,0.65667
194.30287,0.64532
194.06180,0.63459
193.82073,0.62966
193.57966,0.62962
193.33859,0.62864
193.09752,0.62293
192.85645,0.61563
192.61537,0.61185
192.37430,0.61152
192.13323,0.61013
191.89216,0.60558
191.65109,0.60099
191.41002,0.59943
191.16895,0.59943
190.92788,0.59734
190.68681,0.59269
190.44574,0.58885
190.20467,0.58795
189.96360,0.58765
189.72253,0.58411
189.48146,0.57754
189.24039,0.57272
188.99932,0.57299
188.75825,0.57563
188.51718,0.57515
188.27610,0.57081
188.03503,0.56688
187.79396,0.56563
187.55289,0.56501
187.31182,0.56378
187.07075,0.56396
186.82968,0.56591
186.58861,0.56600
186.34754,0.56217
186.10647,0.55785
185.86540,0.55673
185.62433,0.55753
185.38326,0.55714
185.14219,0.55591
184.90112,0.55600
184.66005,0.55723
184.41898,0.55781
184.17791,0.55780
183.93683,0.55870
183.69576,0.56055
183.45469,0.56241
183.21362,0.56470
182.97255,0.56791
182.73148,0.56995
182.49041,0.56876
182.24934,0.56643
182.00827,0.56680
181.76720,0.57040
181.52613,0.57468
181.28506,0.57786
181.04399,0.58022
180.80292,0.58264
180.56185,0.58552
180.32078,0.58818
180.07971,0.58930
179.83864,0.58903
179.59756,0.59004
179.35649,0.59466
179.11542,0.60202
178.87435,0.60941
178.63328,0.61557
178.39221,0.62068
178.15114,0.62524
177.91007,0.63075
177.66900,0.63914
177.42793,0.65029
177.18686,0.66270
176.94579,0.67599
176.70472,0.68989
176.46365,0.70309
176.22258,0.71590
175.98151,0.72993
175.74044,0.74449
175.49937,0.75842
175.25829,0.77368
175.01722,0.79206
174.77615,0.81195
174.53508,0.83138
174.29401,0.84976
174.05294,0.86565
173.81187,0.87701
173.57080,0.88383
173.32973,0.88812
173.08866,0.89285
172.84759,0.90007
172.60652,0.90857
172.36545,0.91517
172.12438,0.91872
171.88331,0.92100
171.64224,0.92413
171.40117,0.92847
171.16010,0.93210
170.91902,0.93234
170.67795,0.92791
170.43688,0.91968
170.19581,0.91041
169.95474,0.90333
169.71367,0.90043
169.47260,0.90055
169.23153,0.89875
168.99046,0.89031
168.74939,0.87722
168.50832,0.86724
168.26725,0.86472
168.02618,0.86669
167.78511,0.86895
167.54404,0.87101
167.30297,0.87354
167.06190,0.87572
166.82083,0.87678
166.57975,0.87739
166.33868,0.87915
166.09761,0.88269
165.85654,0.88578
165.61547,0.88575
165.37440,0.88466
165.13333,0.88799
164.89226,0.89734
164.65119,0.90835
164.41012,0.91668
164.16905,0.92326
163.92798,0.93162
163.68691,0.94274
163.44584,0.95504
163.20477,0.96720
162.96370,0.97833
162.72263,0.98655
162.48156,0.98981
162.24048,0.98721
161.99941,0.97925
161.75834,0.96889
161.51727,0.96196
161.27620,0.96400
161.03513,0.97569
160.79406,0.99131
160.55299,1.00225
160.31192,1.00315
160.07085,0.99440
159.82978,0.97991
159.58871,0.96452
159.34764,0.95212
159.10657,0.94425
158.86550,0.94099
158.62443,0.94262
158.38336,0.94904
158.14229,0.95763
157.90121,0.96322
157.66014,0.96159
157.41907,0.95313
157.17800,0.94156
156.93693,0.92903
156.69586,0.91521
156.45479,0.90088
156.21372,0.88945
155.97265,0.88411
155.73158,0.88473
155.49051,0.88773
155.24944,0.88829
155.00837,0.88341
154.76730,0.87362
154.52623,0.86154
154.28516,0.84911
154.04409,0.83700
153.80302,0.82528
153.56194,0.81362
153.32087,0.80133
153.07980,0.78784
152.83873,0.77335
152.59766,0.75830
152.35659,0.74277
152.11552,0.72737
151.87445,0.71369
151.63338,0.70204
151.39231,0.69032
151.15124,0.67666
150.91017,0.66135
150.66910,0.64553
150.42803,0.63056
150.18696,0.61865
149.94589,0.61098
149.70482,0.60509
149.46375,0.59680
149.22267,0.58489
148.98160,0.57245
148.74053,0.56370
148.49946,0.56009
148.25839,0.55899
148.01732,0.55625
147.77625,0.55027
147.53518,0.54377
147.29411,0.54097
147.05304,0.54321
146.81197,0.54733
146.57090,0.54873
146.32983,0.54683
146.08876,0.54592
145.84769,0.54963
145.60662,0.55651
145.36555,0.56225
145.12448,0.56529
144.88340,0.56788
144.64233,0.57217
144.40126,0.57762
144.16019,0.58190
143.91912,0.58362
143.67805,0.58404
143.43698,0.58465
143.19591,0.58389
142.95484,0.57870
142.71377,0.56913
142.47270,0.55874
142.23163,0.55043
141.99056,0.54384
141.74949,0.53706
141.50842,0.52994
141.26735,0.52445
141.02628,0.52117
140.78521,0.51745
140.54413,0.51083
140.30306,0.50274
140.06199,0.49638
139.82092,0.49281
139.57985,0.49183
139.33878,0.49462
139.09771,0.50183
138.85664,0.51067
138.61557,0.51792
138.37450,0.52447
138.13343,0.53309
137.89236,0.54377
137.65129,0.55449
137.41022,0.56483
137.16915,0.57574
136.92808,0.58770
136.68701,0.60171
136.44594,0.61957
136.20486,0.64130
135.96379,0.66437
135.72272,0.68733
135.48165,0.71175
135.24058,0.73831
134.99951,0.76404
134.75844,0.78690
134.51737,0.81037
134.27630,0.83971
134.03523,0.87585
133.79416,0.91401
133.55309,0.94621
133.31202,0.96772
133.07095,0.98299
132.82988,0.99962
132.58881,1.01828
132.34774,1.03482
132.10667,1.04879
131.86559,1.06191
131.62452,1.07345
131.38345,1.08267
131.14238,1.08988
130.90131,1.09388
130.66024,1.09306
130.41917,1.08649
130.17810,1.07175
129.93703,1.04759
129.69596,1.01770
129.45489,0.98662
129.21382,0.95576
128.97275,0.92445
128.73168,0.89151
128.49061,0.85578
128.24954,0.81746
128.00847,0.77989
127.76740,0.74799
127.52632,0.72349
127.28525,0.70271
127.04418,0.68066
126.80311,0.65664
126.56204,0.63341
126.32097,0.61300
126.07990,0.59590
125.83883,0.58219
125.59776,0.57097
125.35669,0.56010
125.11562,0.54759
124.87455,0.53322
124.63348,0.51859
124.39241,0.50569
124.15134,0.49545
123.91027,0.48783
123.66920,0.48252
123.42812,0.47850
123.18705,0.47368
122.94598,0.46707
122.70491,0.46047
122.46384,0.45652
122.22277,0.45566
121.98170,0.45615
121.74063,0.45656
121.49956,0.45714
121.25849,0.45882
121.01742,0.46208
120.77635,0.46730
120.53528,0.47493
120.29421,0.48451
120.05314,0.49489
119.81207,0.50600
119.57100,0.51890
119.32993,0.53431
119.08885,0.55195
118.84778,0.57083
118.60671,0.59015
118.36564,0.61115
118.12457,0.63669
117.88350,0.66670
117.64243,0.69578
117.40136,0.71818
117.16029,0.73408
116.91922,0.74763
116.67815,0.76090
116.43708,0.77259
116.19601,0.78067
115.95494,0.78413
115.71387,0.78163
115.47280,0.77165
115.23173,0.75569
114.99066,0.73811
114.74958,0.72190
114.50851,0.70702
114.26744,0.69309
114.02637,0.68143
113.78530,0.67279
113.54423,0.66522
113.30316,0.65757
113.06209,0.65299
112.82102,0.65471
112.57995,0.66120
112.33888,0.66879
112.09781,0.67707
111.85674,0.68706
111.61567,0.69696
111.37460,0.70417
111.13353,0.70850
110.89246,0.71130
110.65139,0.71239
110.41031,0.70835
110.16924,0.69636
109.92817,0.67902
109.68710,0.66246
109.44603,0.64987
109.20496,0.63936
108.96389,0.62793
108.72282,0.61589
108.48175,0.60638
108.24068,0.60084
107.99961,0.59525
107.75854,0.58232
107.51747,0.55897
107.27640,0.52985
107.03533,0.50257
106.79426,0.48205
106.55319,0.46854
106.31212,0.45905
106.07104,0.45079
105.82997,0.44352
105.58890,0.43835
105.34783,0.43465
105.10676,0.42920
104.86569,0.41903
104.62462,0.40414
104.38355,0.38726
104.14248,0.37216
103.90141,0.36192
103.66034,0.35769
103.41927,0.35819
103.17820,0.36016
102.93713,0.35951
102.69606,0.35287
102.45499,0.33979
102.21392,0.32393
101.97285,0.31134
101.73177,0.30643
101.49070,0.30870
101.24963,0.31331
101.00856,0.31453
100.76749,0.30861
100.52642,0.29626
100.28535,0.28352
100.04428,0.27761
99.80321,0.28140
99.56214,0.29104
99.32107,0.29733
99.08000,0.29230
98.83893,0.27819
98.59786,0.26594
98.35679,0.26465
98.11572,0.27453
97.87465,0.28590
97.63358,0.28744
97.39250,0.27946
97.15143,0.27327
96.91036,0.27679
96.66929,0.28643
96.42822,0.29259
96.18715,0.29216
95.94608,0.29203
95.70501,0.29923
95.46394,0.31202
95.22287,0.32086
94.98180,0.32105
94.74073,0.31970
94.49966,0.32387
94.25859,0.33021
94.01752,0.33052
93.77645,0.32603
93.53538,0.32539
93.29431,0.32994
93.05323,0.33269
92.81216,0.33160
92.57109,0.33214
92.33002,0.33486
92.08895,0.33404
91.84788,0.32959
91.60681,0.32895
91.36574,0.33484
91.12467,0.34249
90.88360,0.35040
90.64253,0.36486
90.40146,0.38936
90.16039,0.41980
89.91932,0.45427
89.67825,0.49559
89.43718,0.54157
89.19611,0.58715
88.95504,0.63308
88.71396,0.67687
88.47289,0.70672
88.23182,0.71873
87.99075,0.71710
87.74968,0.69835
87.50861,0.66106
87.26754,0.61612
87.02647,0.57299
86.78540,0.53501
86.54433,0.50494
86.30326,0.48153
86.06219,0.45753
85.82112,0.42874
85.58005,0.39916
85.33898,0.37359
85.09791,0.35253
84.85684,0.33461
84.61577,0.31891
84.37469,0.30523
84.13362,0.29429
83.89255,0.28654
83.65148,0.28023
83.41041,0.27229
83.16934,0.26164
82.92827,0.25039
82.68720,0.24135
82.44613,0.23548
82.20506,0.23193
81.96399,0.22929
81.72292,0.22664
81.48185,0.22396
81.24078,0.22145
80.99971,0.21855
80.75864,0.21466
80.51757,0.21036
80.27650,0.20697
80.03542,0.20497
79.79435,0.20343
79.55328,0.20089
79.31221,0.19751
79.07114,0.19527
78.83007,0.19546
78.58900,0.19688
78.34793,0.19719
78.10686,0.19524
77.86579,0.19161
77.62472,0.18802
77.38365,0.18589
77.14258,0.18526
76.90151,0.18495
76.66044,0.18409
76.41937,0.18307
76.17830,0.18212
75.93723,0.17972
75.69615,0.17433
75.45508,0.16756
75.21401,0.16336
74.97294,0.16409
74.73187,0.16843
74.49080,0.17269
74.24973,0.17387
74.00866,0.17248
73.76759,0.17146
73.52652,0.17252
73.28545,0.17433
73.04438,0.17425
72.80331,0.17130
72.56224,0.16724
72.32117,0.16539
72.08010,0.16881
71.83903,0.17871
71.59796,0.19260
71.35688,0.20385
71.11581,0.20556
70.87474,0.19739
70.63367,0.18633
70.39260,0.18029
70.15153,0.18324
69.91046,0.19483
69.66939,0.21266
69.42832,0.23473
69.18725,0.25906
68.94618,0.28074
68.70511,0.29160
68.46404,0.28572
68.22297,0.26537
67.98190,0.23894
67.74083,0.21441
67.49976,0.19571
67.25869,0.18254
67.01761,0.17269
66.77654,0.16485
66.53547,0.15880
66.29440,0.15393
66.05333,0.14974
65.81226,0.14775
65.57119,0.15017
65.33012,0.15711
65.08905,0.16676
64.84798,0.17754
64.60691,0.18869
64.36584,0.19942
64.12477,0.20843
63.88370,0.21384
63.64263,0.21354
63.40156,0.20706
63.16049,0.19704
62.91942,0.18715
62.67834,0.17815
62.43727,0.16744
62.19620,0.15401
61.95513,0.14170
61.71406,0.13500
61.47299,0.13368
61.23192,0.13389
60.99085,0.13305
60.74978,0.13162
60.50871,0.13189
60.26764,0.13644
60.02657,0.14613
59.78550,0.15869
59.54443,0.17080
59.30336,0.18206
59.06229,0.19438
58.82122,0.20719
58.58015,0.21604
58.33907,0.21687
58.09800,0.21032
57.85693,0.20085
57.61586,0.19222
57.37479,0.18388
57.13372,0.17254
56.89265,0.15689
56.65158,0.13921
56.41051,0.12347
56.16944,0.11364
55.92837,0.11212
55.68730,0.11929
55.44623,0.13530
55.20516,0.16037
54.96409,0.19121
54.72302,0.21807
54.48195,0.22774
54.24088,0.21339
53.99980,0.18402
53.75873,0.15386
53.51766,0.12945
53.27659,0.11334
53.03552,0.10901
52.79445,0.11945
52.55338,0.14591
52.31231,0.18925
52.07124,0.24501
51.83017,0.28114
51.58910,0.25233
51.34803,0.18800
51.10696,0.13323
50.86589,0.10477
50.62482,0.10940
50.38375,0.15295
50.14268,0.22809
49.90161,0.26793
49.66053,0.20632
49.41946,0.13132
49.17839,0.09810
48.93732,0.11701
48.69625,0.17876
48.45518,0.21688
48.21411,0.16681
47.97304,0.11440
47.73197,0.11493
47.49090,0.15774
47.24983,0.18175
47.00876,0.15195
46.76769,0.12888
46.52662,0.14381
46.28555,0.16508
46.04448,0.14787
45.80341,0.12467
45.56234,0.13106
45.32126,0.14345
45.08019,0.13288
44.83912,0.12354
44.59805,0.13628
44.35698,0.14841
44.11591,0.14335
43.87484,0.13941
43.63377,0.14329
43.39270,0.14513
43.15163,0.14613
42.91056,0.15075
42.66949,0.15644
42.42842,0.16398
42.18735,0.17272
41.94628,0.17300
41.70521,0.16557
41.46414,0.16238
41.22307,0.16387
40.98199,0.16287
40.74092,0.16081
40.49985,0.16366
40.25878,0.17242
40.01771,0.18234
39.77664,0.18530
39.53557,0.17588
39.29450,0.15996
39.05343,0.15090
38.81236,0.15777
38.57129,0.18028
38.33022,0.21082
38.08915,0.24009
37.84808,0.25909
37.60701,0.26127
37.36594,0.25118
37.12487,0.24124
36.88380,0.23592
36.64272,0.23203
36.40165,0.23068
36.16058,0.23455
35.91951,0.24141
35.67844,0.24600
35.43737,0.24251
35.19630,0.22901
34.95523,0.21255
34.71416,0.19984
34.47309,0.18927
34.23202,0.17910
33.99095,0.17175
33.74988,0.17186
33.50881,0.18669
33.26774,0.21690
33.02667,0.24250
32.78560,0.23794
32.54453,0.20487
32.30345,0.16929
32.06238,0.15133
31.82131,0.14832
31.58024,0.14165
31.33917,0.11827
31.09810,0.08206
30.85703,0.04707
30.61596,0.02557
30.37489,0.01957
30.13382,0.01809
29.89275,0.00903
29.65168,-0.00659
29.41061,-0.01846
29.16954,-0.02244
28.92847,-0.02658
28.68740,-0.03786
28.44633,-0.05186
28.20526,-0.06398
27.96418,-0.07855
27.72311,-0.09657
27.48204,-0.10381
27.24097,-0.08751
26.99990,-0.06013
26.75883,-0.04863
26.51776,-0.06592
26.27669,-0.09374
26.03562,-0.11000
25.79455,-0.11812
25.55348,-0.13081
25.31241,-0.15227
25.07134,-0.18348
24.83027,-0.21880
24.58920,-0.24248
24.34813,-0.24797
24.10706,-0.24560
23.86599,-0.24937
23.62491,-0.26772
23.38384,-0.29111
23.14277,-0.29769
22.90170,-0.28424
22.66063,-0.26556
22.41956,-0.25278
22.17849,-0.24576
21.93742,-0.24195
21.69635,-0.24111
21.45528,-0.24138
21.21421,-0.24386
20.97314,-0.25780
20.73207,-0.29035
20.49100,-0.33258
20.24993,-0.36974
20.00886,-0.40048
19.76779,-0.42232
19.52672,-0.41655
19.28564,-0.38351
19.04457,-0.35026
18.80350,-0.34390
18.56243,-0.37147
18.32136,-0.41464
18.08029,-0.45404
17.83922,-0.46167
17.59815,-0.42406
17.35708,-0.37881
17.11601,-0.34384
16.87494,-0.30898
16.63387,-0.28241
16.39280,-0.28960
16.15173,-0.32755
15.91066,-0.35932
15.66959,-0.36460
15.42852,-0.36722
15.18745,-0.39273
14.94637,-0.42637
14.70530,-0.43561
14.46423,-0.42041
14.22316,-0.40237
13.98209,-0.38772
13.74102,-0.37816
13.49995,-0.37336
13.25888,-0.36106
13.01781,-0.33818
12.77674,-0.31651
12.53567,-0.30966
12.29460,-0.32281
12.05353,-0.35026
11.81246,-0.37297
11.57139,-0.37230
11.33032,-0.35202
11.08925,-0.33901
10.84818,-0.35628
10.60710,-0.39213
10.36603,-0.41443
10.12496,-0.41158
9.88389,-0.40398
9.64282,-0.40328
9.40175,-0.39351
9.16068,-0.37021
8.91961,-0.35670
8.67854,-0.37091
8.43747,-0.40518
8.19640,-0.43447
7.95533,-0.43721
7.71426,-0.41491
7.47319,-0.38853
7.23212,-0.37959
6.99105,-0.39611
6.74998,-0.42532
6.50891,-0.44636
6.26783,-0.45662
6.02676,-0.46839
5.78569,-0.48202
5.54462,-0.48586
5.30355,-0.47732
5.06248,-0.45239
4.82141,-0.42930
4.58034,-0.40605
4.33927,-0.37555
4.09820,-0.34739
3.85713,-0.33689
3.61606,-0.34374
3.37499,-0.35300
3.13392,-0.36418
2.89285,-0.38106
2.65178,-0.39183
2.41071,-0.38675
2.16964,-0.38598
1.92856,-0.39868
1.68749,-0.40454
1.44642,-0.39774
1.20535,-0.38358
0.96428,-0.37862
0.72321,-0.41512
0.48214,-0.47575
0.24107,-0.47148
-0.00000,-0.09745
