399.69498,1.58916
399.45391,1.60493
399.21284,1.62092
398.97177,1.61911
398.73070,1.59103
398.48963,1.55097
398.24856,1.52332
398.00749,1.51800
397.76642,1.52888
397.52535,1.54556
397.28428,1.56058
397.04321,1.57220
396.80214,1.58436
396.56107,1.59947
396.32000,1.61272
396.07892,1.61871
395.83785,1.61830
395.59678,1.61527
395.35571,1.60983
395.11464,1.59968
394.87357,1.58634
394.63250,1.57548
394.39143,1.57341
394.15036,1.58372
393.90929,1.59533
393.66822,1.58669
393.42715,1.55671
393.18608,1.52963
392.94501,1.52557
392.70394,1.54482
392.46287,1.57568
392.22180,1.60453
391.98073,1.61841
391.73965,1.61239
391.49858,1.59746
391.25751,1.58859
391.01644,1.58698
390.77537,1.57858
390.53430,1.55203
390.29323,1.52002
390.05216,1.50617
389.81109,1.51359
389.57002,1.52363
389.32895,1.52251
389.08788,1.51772
388.84681,1.51909
388.60574,1.52321
388.36467,1.52513
388.12360,1.52868
387.88253,1.53930
387.64146,1.55155
387.40038,1.55231
387.15931,1.53623
386.91824,1.51200
386.67717,1.49039
386.43610,1.46922
386.19503,1.44706
385.95396,1.43536
385.71289,1.43923
385.47182,1.45114
385.23075,1.45903
384.98968,1.45268
384.74861,1.43618
384.50754,1.41871
384.26647,1.40326
384.02540,1.38882
383.78433,1.37464
383.54326,1.36417
383.30219,1.36151
383.06111,1.36385
382.82004,1.36137
382.57897,1.35544
382.33790,1.35928
382.09683,1.37118
381.85576,1.37167
381.61469,1.35390
381.37362,1.33653
381.13255,1.33268
380.89148,1.33090
380.65041,1.31708
380.40934,1.29726
380.16827,1.28777
379.92720,1.29664
379.68613,1.31934
379.44506,1.34127
379.20399,1.35102
378.96292,1.34897
378.72184,1.34633
378.48077,1.35382
378.23970,1.36565
377.99863,1.37018
377.75756,1.36875
377.51649,1.37318
377.27542,1.39177
377.03435,1.41757
376.79328,1.43514
376.55221,1.44230
376.31114,1.44819
376.07007,1.45495
375.82900,1.46047
375.58793,1.47232
375.34686,1.49504
375.10579,1.51222
374.86472,1.50508
374.62365,1.48370
374.38257,1.47121
374.14150,1.46933
373.90043,1.46462
373.65936,1.45499
373.41829,1.45126
373.17722,1.45885
372.93615,1.46891
372.69508,1.46985
372.45401,1.46571
372.21294,1.46620
371.97187,1.47170
371.73080,1.47434
371.48973,1.46730
371.24866,1.45516
371.00759,1.44602
370.76652,1.43797
370.52545,1.42917
370.28437,1.42508
370.04330,1.42895
369.80223,1.43704
369.56116,1.44267
369.32009,1.44071
369.07902,1.43193
368.83795,1.42281
368.59688,1.41568
368.35581,1.40472
368.11474,1.38804
367.87367,1.37406
367.63260,1.36987
367.39153,1.37126
367.15046,1.36941
366.90939,1.36193
366.66832,1.35280
366.42725,1.34930
366.18618,1.35856
365.94510,1.37796
365.70403,1.39223
365.46296,1.39042
365.22189,1.38214
364.98082,1.38129
364.73975,1.38634
364.49868,1.38755
364.25761,1.38104
364.01654,1.37125
363.77547,1.36658
363.53440,1.37066
363.29333,1.37665
363.05226,1.37354
362.81119,1.36045
362.57012,1.34782
362.32905,1.34274
362.08798,1.34131
361.84691,1.33809
361.60583,1.33622
361.36476,1.34037
361.12369,1.34574
360.88262,1.34443
360.64155,1.33773
360.40048,1.33195
360.15941,1.32811
359.91834,1.32262
359.67727,1.31557
359.43620,1.31137
359.19513,1.30905
358.95406,1.30161
358.71299,1.29072
358.47192,1.28891
358.23085,1.30103
357.98978,1.31532
357.74871,1.31845
357.50764,1.31295
357.26656,1.31059
357.02549,1.31534
356.78442,1.32070
356.54335,1.31987
356.30228,1.31460
356.06121,1.31295
355.82014,1.31943
355.57907,1.33022
355.33800,1.33966
355.09693,1.34479
354.85586,1.34322
354.61479,1.33447
354.37372,1.32345
354.13265,1.31588
353.89158,1.31207
353.65051,1.30961
353.40944,1.31164
353.16837,1.32316
352.92729,1.33856
352.68622,1.34365
352.44515,1.33132
352.20408,1.31037
351.96301,1.29500
351.72194,1.29213
351.48087,1.30044
351.23980,1.31236
350.99873,1.31977
350.75766,1.32252
350.51659,1.32512
350.27552,1.32688
350.03445,1.32419
349.79338,1.31907
349.55231,1.31722
349.31124,1.32036
349.07017,1.32562
348.82910,1.32920
348.58802,1.32748
348.34695,1.31773
348.10588,1.30286
347.86481,1.29161
347.62374,1.29066
347.38267,1.30119
347.14160,1.31963
346.90053,1.33759
346.65946,1.34451
346.41839,1.33834
346.17732,1.33016
345.93625,1.33023
345.69518,1.33622
345.45411,1.34275
345.21304,1.35379
344.97197,1.37220
344.73090,1.38775
344.48983,1.39043
344.24875,1.38333
344.00768,1.37341
343.76661,1.36519
343.52554,1.36389
343.28447,1.37543
343.04340,1.39949
342.80233,1.42668
342.56126,1.44427
342.32019,1.43959
342.07912,1.41031
341.83805,1.37507
341.59698,1.35732
341.35591,1.36445
341.11484,1.38690
340.87377,1.41271
340.63270,1.43848
340.39163,1.46346
340.15056,1.47898
339.90948,1.47073
339.66841,1.44076
339.42734,1.41499
339.18627,1.41237
338.94520,1.42381
338.70413,1.42904
338.46306,1.42716
338.22199,1.43204
337.98092,1.44503
337.73985,1.45219
337.49878,1.44418
337.25771,1.42951
337.01664,1.42633
336.77557,1.44588
336.53450,1.47989
336.29343,1.50236
336.05236,1.49583
335.81129,1.46951
335.57021,1.44207
335.32914,1.42326
335.08807,1.41327
334.84700,1.41064
334.60593,1.41572
334.36486,1.42408
334.12379,1.42190
333.88272,1.40218
333.64165,1.37752
333.40058,1.36079
333.15951,1.34974
332.91844,1.34184
332.67737,1.34693
332.43630,1.37301
332.19523,1.40943
331.95416,1.43455
331.71309,1.44086
331.47202,1.44049
331.23094,1.44406
330.98987,1.44429
330.74880,1.42698
330.50773,1.39392
330.26666,1.35995
330.02559,1.33701
329.78452,1.32576
329.54345,1.31958
329.30238,1.31732
329.06131,1.32667
328.82024,1.35041
328.57917,1.37437
328.33810,1.37824
328.09703,1.36132
327.85596,1.34343
327.61489,1.33578
327.37382,1.32720
327.13275,1.30618
326.89167,1.28530
326.65060,1.28700
326.40953,1.31410
326.16846,1.34217
325.92739,1.34792
325.68632,1.33842
325.44525,1.33135
325.20418,1.32854
324.96311,1.32463
324.72204,1.32072
324.48097,1.32297
324.23990,1.33581
323.99883,1.35477
323.75776,1.36981
323.51669,1.37281
323.27562,1.36072
323.03455,1.33549
322.79348,1.30711
322.55240,1.29229
322.31133,1.30197
322.07026,1.33063
321.82919,1.35955
321.58812,1.37651
321.34705,1.38524
321.10598,1.38711
320.86491,1.37568
320.62384,1.35552
320.38277,1.34443
320.14170,1.34938
319.90063,1.35928
319.65956,1.36514
319.41849,1.36741
319.17742,1.36509
318.93635,1.35795
318.69528,1.35385
318.45421,1.35861
318.21313,1.36733
317.97206,1.37700
317.73099,1.39270
317.48992,1.41463
317.24885,1.42723
317.00778,1.41115
316.76671,1.37283
316.52564,1.33935
316.28457,1.33040
316.04350,1.34507
315.80243,1.36635
315.56136,1.37805
315.32029,1.38058
315.07922,1.38308
314.83815,1.39240
314.59708,1.40618
314.35601,1.41483
314.11494,1.41629
313.87386,1.41207
313.63279,1.39818
313.39172,1.37743
313.15065,1.36253
312.90958,1.36202
312.66851,1.37260
312.42744,1.38682
312.18637,1.40223
311.94530,1.41768
311.70423,1.42729
311.46316,1.42846
311.22209,1.43050
310.98102,1.44013
310.73995,1.44631
310.49888,1.43837
310.25781,1.42909
310.01674,1.43571
309.77567,1.45523
309.53459,1.46967
309.29352,1.46632
309.05245,1.45176
308.81138,1.44202
308.57031,1.44294
308.32924,1.44435
308.08817,1.43398
307.84710,1.41591
307.60603,1.40680
307.36496,1.41666
307.12389,1.44057
306.88282,1.46465
306.64175,1.47587
306.40068,1.47108
306.15961,1.46148
305.91854,1.46060
305.67747,1.46616
305.43640,1.46338
305.19532,1.44385
304.95425,1.41510
304.71318,1.39309
304.47211,1.38995
304.23104,1.40580
303.98997,1.42508
303.74890,1.42703
303.50783,1.40981
303.26676,1.39472
303.02569,1.39962
302.78462,1.41965
302.54355,1.43363
302.30248,1.42474
302.06141,1.39676
301.82034,1.36891
301.57927,1.35547
301.33820,1.35613
301.09713,1.36281
300.85605,1.36722
300.61498,1.36225
300.37391,1.34518
300.13284,1.32200
299.89177,1.30432
299.65070,1.29914
299.40963,1.30355
299.16856,1.31055
298.92749,1.31762
298.68642,1.32495
298.44535,1.32843
298.20428,1.32296
297.96321,1.31242
297.72214,1.30631
297.48107,1.30595
297.24000,1.30337
296.99893,1.29423
296.75786,1.28436
296.51678,1.28217
296.27571,1.28951
296.03464,1.29872
295.79357,1.29856
295.55250,1.28529
295.31143,1.26548
295.07036,1.24793
294.82929,1.23745
294.58822,1.23569
294.34715,1.23993
294.10608,1.24337
293.86501,1.24217
293.62394,1.23909
293.38287,1.23739
293.14180,1.23653
292.90073,1.23512
292.65966,1.23352
292.41859,1.23129
292.17751,1.22703
291.93644,1.22288
291.69537,1.22260
291.45430,1.22471
291.21323,1.22421
290.97216,1.22150
290.73109,1.22267
290.49002,1.22969
290.24895,1.23653
290.00788,1.23608
289.76681,1.22884
289.52574,1.22136
289.28467,1.21791
289.04360,1.21691
288.80253,1.21470
288.56146,1.21055
288.32039,1.20587
288.07932,1.20292
287.83824,1.20357
287.59717,1.20635
287.35610,1.20686
287.11503,1.20188
286.87396,1.19358
286.63289,1.18717
286.39182,1.18533
286.15075,1.18559
285.90968,1.18371
285.66861,1.17977
285.42754,1.17794
285.18647,1.17949
284.94540,1.18089
284.70433,1.17966
284.46326,1.17775
284.22219,1.17766
283.98112,1.17854
283.74005,1.17890
283.49897,1.17959
283.25790,1.18071
283.01683,1.17975
282.77576,1.17669
282.53469,1.17626
282.29362,1.18078
282.05255,1.18497
281.81148,1.18230
281.57041,1.17395
281.32934,1.16743
281.08827,1.16834
280.84720,1.17622
280.60613,1.18668
280.36506,1.19535
280.12399,1.19960
279.88292,1.19810
279.64185,1.19113
279.40078,1.18170
279.15970,1.17374
278.91863,1.16919
278.67756,1.16827
278.43649,1.17155
278.19542,1.17922
277.95435,1.18802
277.71328,1.19239
277.47221,1.18946
277.23114,1.18142
276.99007,1.17326
276.74900,1.16813
276.50793,1.16506
276.26686,1.16203
276.02579,1.16057
275.78472,1.16390
275.54365,1.17049
275.30258,1.17435
275.06151,1.17313
274.82043,1.17126
274.57936,1.17294
274.33829,1.17689
274.09722,1.18015
273.85615,1.18215
273.61508,1.18238
273.37401,1.17912
273.13294,1.17381
272.89187,1.17219
272.65080,1.17775
272.40973,1.18753
272.16866,1.19588
271.92759,1.19937
271.68652,1.19760
271.44545,1.19263
271.20438,1.18925
270.96331,1.19258
270.72224,1.20322
270.48116,1.21570
270.24009,1.22327
269.99902,1.22457
269.75795,1.22324
269.51688,1.22256
269.27581,1.22372
269.03474,1.22717
268.79367,1.23219
268.55260,1.23654
268.31153,1.23820
268.07046,1.23657
267.82939,1.23323
267.58832,1.23319
267.34725,1.24191
267.10618,1.25870
266.86511,1.27588
266.62404,1.28633
266.38297,1.28953
266.14189,1.29020
265.90082,1.29391
265.65975,1.30196
265.41868,1.30869
265.17761,1.30820
264.93654,1.30431
264.69547,1.30613
264.45440,1.31499
264.21333,1.32445
263.97226,1.33189
263.73119,1.34250
263.49012,1.36010
263.24905,1.38018
263.00798,1.39455
262.76691,1.40163
262.52584,1.40826
262.28477,1.42089
262.04370,1.43881
261.80262,1.45679
261.56155,1.47300
261.32048,1.49186
261.07941,1.51759
260.83834,1.54971
260.59727,1.58668
260.35620,1.62552
260.11513,1.66024
259.87406,1.68554
259.63299,1.70298
259.39192,1.71840
259.15085,1.73021
258.90978,1.73865
258.66871,1.75295
258.42764,1.78310
258.18657,1.83103
257.94550,1.87875
257.70443,1.89821
257.46335,1.88906
257.22228,1.87574
256.98121,1.86532
256.74014,1.84859
256.49907,1.82274
256.25800,1.79698
256.01693,1.78253
255.77586,1.78123
255.53479,1.78467
255.29372,1.78410
255.05265,1.77913
254.81158,1.77200
254.57051,1.75841
254.32944,1.73396
254.08837,1.70841
253.84730,1.69751
253.60623,1.70104
253.36516,1.70414
253.12408,1.69811
252.88301,1.68552
252.64194,1.66587
252.40087,1.63968
252.15980,1.62073
251.91873,1.62325
251.67766,1.64475
251.43659,1.67024
251.19552,1.68802
250.95445,1.69302
250.71338,1.67860
250.47231,1.64593
250.23124,1.61139
249.99017,1.58894
249.74910,1.58030
249.50803,1.58351
249.26696,1.59543
249.02589,1.60901
248.78481,1.61945
248.54374,1.62573
248.30267,1.62657
248.06160,1.62309
247.82053,1.62210
247.57946,1.63105
247.33839,1.64904
247.09732,1.66321
246.85625,1.65933
246.61518,1.64262
246.37411,1.63538
246.13304,1.64857
245.89197,1.66858
245.65090,1.67626
245.40983,1.67441
245.16876,1.68252
244.92769,1.71327
244.68661,1.76555
244.44554,1.82582
244.20447,1.86475
243.96340,1.86088
243.72233,1.84164
243.48126,1.85743
243.24019,1.92621
242.99912,2.01606
242.75805,2.07084
242.51698,2.03949
242.27591,1.89658
242.03484,1.76359
241.79377,1.68886
241.55270,1.64612
241.31163,1.59783
241.07056,1.53094
240.82949,1.46248
240.58842,1.40873
240.34734,1.36968
240.10627,1.33805
239.86520,1.30914
239.62413,1.28146
239.38306,1.25532
239.14199,1.23081
238.90092,1.20612
238.65985,1.18129
238.41878,1.16017
238.17771,1.14496
237.93664,1.13229
237.69557,1.11764
237.45450,1.10074
237.21343,1.08435
236.97236,1.06908
236.73129,1.05230
236.49022,1.03248
236.24915,1.01214
236.00807,0.99529
235.76700,0.98357
235.52593,0.97669
235.28486,0.97486
235.04379,0.97782
234.80272,0.98177
234.56165,0.98076
234.32058,0.97277
234.07951,0.96232
233.83844,0.95383
233.59737,0.94527
233.35630,0.93260
233.11523,0.91802
232.87416,0.90802
232.63309,0.90481
232.39202,0.90477
232.15095,0.90490
231.90988,0.90641
231.66880,0.91063
231.42773,0.91514
231.18666,0.91523
230.94559,0.90918
230.70452,0.89985
230.46345,0.89090
230.22238,0.88443
229.98131,0.88195
229.74024,0.88374
229.49917,0.88700
229.25810,0.88816
229.01703,0.88711
228.77596,0.88630
228.53489,0.88592
228.29382,0.88400
228.05275,0.88109
227.81168,0.87946
227.57061,0.87813
227.32953,0.87432
227.08846,0.86897
226.84739,0.86417
226.60632,0.85853
226.36525,0.85144
226.12418,0.84702
225.88311,0.84754
225.64204,0.84914
225.40097,0.84837
225.15990,0.84700
224.91883,0.84776
224.67776,0.85027
224.43669,0.85295
224.19562,0.85515
223.95455,0.85691
223.71348,0.85834
223.47241,0.85947
223.23134,0.86069
222.99026,0.86270
222.74919,0.86545
222.50812,0.86858
222.26705,0.87279
222.02598,0.87838
221.78491,0.88364
221.54384,0.88748
221.30277,0.89140
221.06170,0.89685
220.82063,0.90305
220.57956,0.90858
220.33849,0.91308
220.09742,0.91754
219.85635,0.92389
219.61528,0.93347
219.37421,0.94571
219.13314,0.95902
218.89207,0.97235
218.65099,0.98411
218.40992,0.99148
218.16885,0.99394
217.92778,0.99626
217.68671,1.00460
217.44564,1.02014
217.20457,1.03941
216.96350,1.05968
216.72243,1.08020
216.48136,1.09761
216.24029,1.10638
215.99922,1.10681
215.75815,1.10582
215.51708,1.10850
215.27601,1.11569
215.03494,1.12910
214.79387,1.15108
214.55280,1.17679
214.31172,1.19362
214.07065,1.19575
213.82958,1.19278
213.58851,1.19658
213.34744,1.20818
213.10637,1.22208
212.86530,1.23592
212.62423,1.24879
212.38316,1.25657
212.14209,1.25789
211.90102,1.25912
211.65995,1.26528
211.41888,1.27269
211.17781,1.27640
210.93674,1.27692
210.69567,1.27468
210.45460,1.26751
210.21353,1.25609
209.97245,1.24605
209.73138,1.24429
209.49031,1.25283
209.24924,1.26550
209.00817,1.27256
208.76710,1.26905
208.52603,1.25724
208.28496,1.24350
208.04389,1.23539
207.80282,1.23543
207.56175,1.23536
207.32068,1.22434
207.07961,1.20256
206.83854,1.17845
206.59747,1.15704
206.35640,1.13948
206.11533,1.12812
205.87426,1.12497
205.63318,1.12632
205.39211,1.12339
205.15104,1.11032
204.90997,1.09093
204.66890,1.07528
204.42783,1.06928
204.18676,1.07012
203.94569,1.07151
203.70462,1.06795
203.46355,1.05513
203.22248,1.03475
202.98141,1.01560
202.74034,1.00370
202.49927,0.99582
202.25820,0.98477
202.01713,0.96723
201.77606,0.94569
201.53499,0.92553
201.29391,0.91167
201.05284,0.90605
200.81177,0.90473
200.57070,0.89891
200.32963,0.88339
200.08856,0.86324
199.84749,0.84740
199.60642,0.83912
199.36535,0.83494
199.12428,0.82987
198.88321,0.82130
198.64214,0.80916
198.40107,0.79559
198.16000,0.78414
197.91893,0.77714
197.67786,0.77326
197.43679,0.76804
197.19572,0.75807
196.95464,0.74485
196.71357,0.73297
196.47250,0.72516
196.23143,0.72005
195.99036,0.71446
195.74929,0.70741
195.50822,0.70125
195.26715,0.69775
195.02608,0.69427
194.78501,0.68705
194.54394,0.67721
194.30287,0.66934
194.06180,0.66510
193.82073,0.66180
193.57966,0.65703
193.33859,0.65186
193.09752,0.64863
192.85645,0.64751
192.61537,0.64612
192.37430,0.64242
192.13323,0.63778
191.89216,0.63513
191.65109,0.63477
191.41002,0.63374
191.16895,0.62924
190.92788,0.62195
190.68681,0.61528
190.44574,0.61164
190.20467,0.60999
189.96360,0.60734
189.72253,0.60254
189.48146,0.59752
189.24039,0.59444
188.99932,0.59309
188.75825,0.59192
188.51718,0.59069
188.27610,0.59004
188.03503,0.58945
187.79396,0.58824
187.55289,0.58752
187.31182,0.58833
187.07075,0.58886
186.82968,0.58664
186.58861,0.58259
186.34754,0.57977
186.10647,0.57887
185.86540,0.57797
185.62433,0.57666
185.38326,0.57732
185.14219,0.58083
184.90112,0.58354
184.66005,0.58144
184.41898,0.57656
184.17791,0.57481
183.93683,0.57782
183.69576,0.58123
183.45469,0.58163
183.21362,0.58129
182.97255,0.58327
182.73148,0.58694
182.49041,0.59056
182.24934,0.59373
182.00827,0.59545
181.76720,0.59463
181.52613,0.59283
181.28506,0.59192
181.04399,0.59057
180.80292,0.58765
180.56185,0.58556
180.32078,0.58700
180.07971,0.59206
179.83864,0.59949
179.59756,0.60762
179.35649,0.61465
179.11542,0.62060
178.87435,0.62759
178.63328,0.63659
178.39221,0.64660
178.15114,0.65703
177.91007,0.66812
177.66900,0.67868
177.42793,0.68577
177.18686,0.68825
176.94579,0.68987
176.70472,0.69620
176.46365,0.70877
176.22258,0.72465
175.98151,0.74135
175.74044,0.75852
175.49937,0.77541
175.25829,0.79098
175.01722,0.80632
174.77615,0.82328
174.53508,0.84201
174.29401,0.86202
174.05294,0.88321
173.81187,0.90422
173.57080,0.92191
173.32973,0.93436
173.08866,0.94318
172.84759,0.95062
172.60652,0.95593
172.36545,0.95811
172.12438,0.95970
171.88331,0.96276
171.64224,0.96472
171.40117,0.96291
171.16010,0.95969
170.91902,0.95891
170.67795,0.96003
170.43688,0.95854
170.19581,0.95118
169.95474,0.93958
169.71367,0.92805
169.47260,0.91951
169.23153,0.91513
168.99046,0.91584
168.74939,0.92136
168.50832,0.92803
168.26725,0.93036
168.02618,0.92575
167.78511,0.91681
167.54404,0.90856
167.30297,0.90420
167.06190,0.90344
166.82083,0.90402
166.57975,0.90452
166.33868,0.90588
166.09761,0.90990
165.85654,0.91630
165.61547,0.92288
165.37440,0.92837
165.13333,0.93299
164.89226,0.93625
164.65119,0.93707
164.41012,0.93702
164.16905,0.94000
163.92798,0.94789
163.68691,0.96044
163.44584,0.97794
163.20477,0.99904
162.96370,1.01706
162.72263,1.02411
162.48156,1.02016
162.24048,1.01173
161.99941,1.00324
161.75834,0.99690
161.51727,0.99753
161.27620,1.00922
161.03513,1.02714
160.79406,1.03869
160.55299,1.03552
160.31192,1.02162
160.07085,1.00750
159.82978,1.00059
159.58871,1.00150
159.34764,1.00548
159.10657,1.00709
158.86550,1.00393
158.62443,0.99681
158.38336,0.98826
158.14229,0.98092
157.90121,0.97627
157.66014,0.97436
157.41907,0.97394
157.17800,0.97216
156.93693,0.96596
156.69586,0.95569
156.45479,0.94603
156.21372,0.94136
155.97265,0.94060
155.73158,0.93866
155.49051,0.93280
155.24944,0.92480
155.00837,0.91565
154.76730,0.90253
154.52623,0.88435
154.28516,0.86541
154.04409,0.85108
153.80302,0.84228
153.56194,0.83428
153.32087,0.82147
153.07980,0.80429
152.83873,0.78852
152.59766,0.77725
152.35659,0.76712
152.11552,0.75251
151.87445,0.73168
151.63338,0.70865
151.39231,0.68976
151.15124,0.67838
150.91017,0.67242
150.66910,0.66641
150.42803,0.65620
150.18696,0.64213
149.94589,0.62790
149.70482,0.61697
149.46375,0.61021
149.22267,0.60578
148.98160,0.60029
148.74053,0.59121
148.49946,0.57956
148.25839,0.56998
148.01732,0.56656
147.77625,0.56849
147.53518,0.57051
147.29411,0.56829
147.05304,0.56288
146.81197,0.55903
146.57090,0.55949
146.32983,0.56225
146.08876,0.56381
145.84769,0.56431
145.60662,0.56699
145.36555,0.57298
145.12448,0.57949
144.88340,0.58383
144.64233,0.58697
144.40126,0.59157
144.16019,0.59789
143.91912,0.60309
143.67805,0.60409
143.43698,0.60061
143.19591,0.59510
142.95484,0.58960
142.71377,0.58338
142.47270,0.57454
142.23163,0.56373
141.99056,0.55390
141.74949,0.54635
141.50842,0.53960
141.26735,0.53223
141.02628,0.52494
140.78521,0.51947
140.54413,0.51662
140.30306,0.51582
140.06199,0.51616
139.82092,0.51719
139.57985,0.51890
139.33878,0.52148
139.09771,0.52542
138.85664,0.53072
138.61557,0.53583
138.37450,0.53919
138.13343,0.54222
137.89236,0.54875
137.65129,0.56020
137.41022,0.57398
137.16915,0.58780
136.92808,0.60264
136.68701,0.61981
136.44594,0.63818
136.20486,0.65660
135.96379,0.67578
135.72272,0.69663
135.48165,0.71977
135.24058,0.74607
134.99951,0.77526
134.75844,0.80556
134.51737,0.83615
134.27630,0.86705
134.03523,0.89698
133.79416,0.92470
133.55309,0.95110
133.31202,0.97776
133.07095,1.00564
132.82988,1.03509
132.58881,1.06406
132.34774,1.08864
132.10667,1.10797
131.86559,1.12422
131.62452,1.13636
131.38345,1.13940
131.14238,1.13131
130.90131,1.11668
130.66024,1.10366
130.41917,1.09535
130.17810,1.08522
129.93703,1.06498
129.69596,1.03395
129.45489,0.99717
129.21382,0.95950
128.97275,0.92465
128.73168,0.89479
128.49061,0.86833
128.24954,0.84114
128.00847,0.81156
127.76740,0.78255
127.52632,0.75730
127.28525,0.73454
127.04418,0.71041
126.80311,0.68397
126.56204,0.65785
126.32097,0.63424
126.07990,0.61364
125.83883,0.59615
125.59776,0.58165
125.35669,0.56905
125.11562,0.55689
124.87455,0.54443
124.63348,0.53215
124.39241,0.52085
124.15134,0.51060
123.91027,0.50086
123.66920,0.49173
123.42812,0.48399
123.18705,0.47798
122.94598,0.47325
122.70491,0.46944
122.46384,0.46647
122.22277,0.46428
121.98170,0.46289
121.74063,0.46248
121.49956,0.46303
121.25849,0.46485
121.01742,0.46906
120.77635,0.47621
120.53528,0.48486
120.29421,0.49307
120.05314,0.50128
119.81207,0.51180
119.57100,0.52544
119.32993,0.54064
119.08885,0.55634
118.84778,0.57376
118.60671,0.59473
118.36564,0.61921
118.12457,0.64536
117.88350,0.67241
117.64243,0.70195
117.40136,0.73452
117.16029,0.76606
116.91922,0.78986
116.67815,0.80241
116.43708,0.80560
116.19601,0.80240
115.95494,0.79275
115.71387,0.77617
115.47280,0.75618
115.23173,0.73808
114.99066,0.72422
114.74958,0.71398
114.50851,0.70648
114.26744,0.70134
114.02637,0.69833
113.78530,0.69708
113.54423,0.69597
113.30316,0.69235
113.06209,0.68598
112.82102,0.68050
112.57995,0.67901
112.33888,0.68020
112.09781,0.68109
111.85674,0.68166
111.61567,0.68498
111.37460,0.69335
111.13353,0.70579
110.89246,0.71948
110.65139,0.73162
110.41031,0.73867
110.16924,0.73560
109.92817,0.71889
109.68710,0.69154
109.44603,0.66240
109.20496,0.63925
108.96389,0.62489
108.72282,0.61858
108.48175,0.61786
108.24068,0.61740
107.99961,0.60855
107.75854,0.58528
107.51747,0.55169
107.27640,0.51918
107.03533,0.49677
106.79426,0.48616
106.55319,0.48360
106.31212,0.48351
106.07104,0.48070
105.82997,0.47178
105.58890,0.45635
105.34783,0.43712
105.10676,0.41872
104.86569,0.40520
104.62462,0.39770
104.38355,0.39401
104.14248,0.38985
103.90141,0.38090
103.66034,0.36587
103.41927,0.34895
103.17820,0.33731
102.93713,0.33504
102.69606,0.33916
102.45499,0.34114
102.21392,0.33453
101.97285,0.32188
101.73177,0.31103
101.49070,0.30668
101.24963,0.30738
101.00856,0.30851
100.76749,0.30626
100.52642,0.30004
100.28535,0.29278
100.04428,0.28917
99.80321,0.29176
99.56214,0.29754
99.32107,0.29909
99.08000,0.29220
98.83893,0.28199
98.59786,0.27725
98.35679,0.28091
98.11572,0.28740
97.87465,0.28815
97.63358,0.28117
97.39250,0.27315
97.15143,0.27116
96.91036,0.27533
96.66929,0.27978
96.42822,0.28026
96.18715,0.28012
95.94608,0.28552
95.70501,0.29632
95.46394,0.30505
95.22287,0.30731
94.98180,0.30875
94.74073,0.31632
94.49966,0.32762
94.25859,0.33288
94.01752,0.32895
93.77645,0.32398
93.53538,0.32492
93.29431,0.32969
93.05323,0.33197
92.81216,0.33157
92.57109,0.33314
92.33002,0.33559
92.08895,0.33408
91.84788,0.33185
91.60681,0.33667
91.36574,0.34687
91.12467,0.35533
90.88360,0.36498
90.64253,0.38340
90.40146,0.40837
90.16039,0.43388
89.91932,0.46340
89.67825,0.50245
89.43718,0.54845
89.19611,0.59605
88.95504,0.64037
88.71396,0.67504
88.47289,0.69868
88.23182,0.71371
87.99075,0.71449
87.74968,0.69419
87.50861,0.65872
87.26754,0.61945
87.02647,0.58231
86.78540,0.54848
86.54433,0.51768
86.30326,0.48899
86.06219,0.46112
85.82112,0.43300
85.58005,0.40549
85.33898,0.38097
85.09791,0.35983
84.85684,0.33992
84.61577,0.32055
84.37469,0.30342
84.13362,0.28942
83.89255,0.27740
83.65148,0.26604
83.41041,0.25499
83.16934,0.24474
82.92827,0.23588
82.68720,0.22876
82.44613,0.22358
82.20506,0.22032
81.96399,0.21829
81.72292,0.21661
81.48185,0.21474
81.24078,0.21244
80.99971,0.20989
80.75864,0.20787
80.51757,0.20711
80.27650,0.20780
80.03542,0.20926
79.79435,0.20998
79.55328,0.20896
79.31221,0.20689
79.07114,0.20476
78.83007,0.20240
78.58900,0.19976
78.34793,0.19782
78.10686,0.19679
77.86579,0.19518
77.62472,0.19160
77.38365,0.18646
77.14258,0.18156
76.90151,0.17873
76.66044,0.17844
76.41937,0.17952
76.17830,0.18009
75.93723,0.17879
75.69615,0.17536
75.45508,0.17060
75.21401,0.16624
74.97294,0.16428
74.73187,0.16589
74.49080,0.17050
74.24973,0.17586
74.00866,0.17927
73.76759,0.17902
73.52652,0.17520
73.28545,0.16980
73.04438,0.16597
72.80331,0.16622
72.56224,0.17036
72.32117,0.17518
72.08010,0.17689
71.83903,0.17419
71.59796,0.16887
71.35688,0.16360
71.11581,0.16030
70.87474,0.16053
70.63367,0.16550
70.39260,0.17525
70.15153,0.18912
69.91046,0.20720
69.66939,0.22981
69.42832,0.25462
69.18725,0.27436
68.94618,0.28002
68.70511,0.26882
68.46404,0.24672
68.22297,0.22241
67.98190,0.20190
67.74083,0.18793
67.49976,0.18032
67.25869,0.17578
67.01761,0.17039
66.77654,0.16315
66.53547,0.15598
66.29440,0.15048
66.05333,0.14703
65.81226,0.14615
65.57119,0.14859
65.33012,0.15415
65.08905,0.16158
64.84798,0.16972
64.60691,0.17842
64.36584,0.18812
64.12477,0.19796
63.88370,0.20450
63.64263,0.20399
63.40156,0.19693
63.16049,0.18842
62.91942,0.18312
62.67834,0.18147
62.43727,0.18143
62.19620,0.18220
61.95513,0.18425
61.71406,0.18654
61.47299,0.18660
61.23192,0.18319
60.99085,0.17691
60.74978,0.16869
60.50871,0.15914
60.26764,0.14872
60.02657,0.13801
59.78550,0.12784
59.54443,0.11892
59.30336,0.11175
59.06229,0.10691
58.82122,0.10521
58.58015,0.10762
58.33907,0.11492
58.09800,0.12695
57.85693,0.14204
57.61586,0.15811
57.37479,0.17383
57.13372,0.18707
56.89265,0.19244
56.65158,0.18356
56.41051,0.16046
56.16944,0.13181
55.92837,0.10795
55.68730,0.09543
55.44623,0.09723
55.20516,0.11464
54.96409,0.14649
54.72302,0.18443
54.48195,0.20920
54.24088,0.20262
53.99980,0.17046
53.75873,0.13440
53.51766,0.11021
53.27659,0.10472
53.03552,0.12089
52.79445,0.15913
52.55338,0.20932
52.31231,0.23672
52.07124,0.21134
51.83017,0.16276
51.58910,0.12771
51.34803,0.11981
51.10696,0.13985
50.86589,0.17388
50.62482,0.18602
50.38375,0.15826
50.14268,0.12391
49.90161,0.11398
49.66053,0.13986
49.41946,0.18997
49.17839,0.20534
48.93732,0.15478
48.69625,0.10619
48.45518,0.10299
48.21411,0.14425
47.97304,0.18587
47.73197,0.16610
47.49090,0.12046
47.24983,0.11347
47.00876,0.14583
46.76769,0.15996
46.52662,0.13102
46.28555,0.11345
46.04448,0.13066
45.80341,0.14130
45.56234,0.11636
45.32126,0.09805
45.08019,0.10590
44.83912,0.11623
44.59805,0.11692
44.35698,0.12417
44.11591,0.13676
43.87484,0.13754
43.63377,0.12990
43.39270,0.12679
43.15163,0.12757
42.91056,0.12433
42.66949,0.11552
42.42842,0.10771
42.18735,0.10953
41.94628,0.12202
41.70521,0.13592
41.46414,0.14177
41.22307,0.14023
40.98199,0.14073
40.74092,0.14985
40.49985,0.16030
40.25878,0.15787
40.01771,0.14476
39.77664,0.13884
39.53557,0.15004
39.29450,0.17320
39.05343,0.19752
38.81236,0.21575
38.57129,0.22647
38.33022,0.23063
38.08915,0.22945
37.84808,0.22689
37.60701,0.22591
37.36594,0.22256
37.12487,0.21352
36.88380,0.20064
36.64272,0.18433
36.40165,0.16653
36.16058,0.15754
35.91951,0.16597
35.67844,0.18605
35.43737,0.20262
35.19630,0.20419
34.95523,0.19386
34.71416,0.18422
34.47309,0.17996
34.23202,0.17759
33.99095,0.17459
33.74988,0.17047
33.50881,0.16961
33.26774,0.18196
33.02667,0.20676
32.78560,0.22472
32.54453,0.22452
32.30345,0.21939
32.06238,0.22102
31.82131,0.21786
31.58024,0.19542
31.33917,0.15955
31.09810,0.12661
30.85703,0.10236
30.61596,0.07988
30.37489,0.05743
30.13382,0.04741
29.89275,0.05870
29.65168,0.07684
29.41061,0.07307
29.16954,0.03422
28.92847,-0.02174
28.68740,-0.05754
28.44633,-0.05119
28.20526,-0.01896
27.96418,0.00720
27.72311,0.01091
27.48204,-0.00051
27.24097,-0.01576
26.99990,-0.03452
26.75883,-0.05943
26.51776,-0.08770
26.27669,-0.11234
26.03562,-0.12629
25.79455,-0.12583
25.55348,-0.11576
25.31241,-0.10372
25.07134,-0.09244
24.83027,-0.08404
24.58920,-0.08340
24.34813,-0.09350
24.10706,-0.10498
23.86599,-0.10423
23.62491,-0.09721
23.38384,-0.09847
23.14277,-0.11140
22.90170,-0.12580
22.66063,-0.13491
22.41956,-0.14272
22.17849,-0.15041
21.93742,-0.15067
21.69635,-0.14192
21.45528,-0.13849
21.21421,-0.15749
20.97314,-0.20519
20.73207,-0.26812
20.49100,-0.31460
20.24993,-0.31894
20.00886,-0.28763
19.76779,-0.25327
19.52672,-0.22890
19.28564,-0.20802
19.04457,-0.19290
18.80350,-0.18813
18.56243,-0.18893
18.32136,-0.19219
18.08029,-0.19431
17.83922,-0.18455
17.59815,-0.16103
17.35708,-0.14081
17.11601,-0.13761
16.87494,-0.14488
16.63387,-0.14807
16.39280,-0.14803
16.15173,-0.15466
15.91066,-0.16498
15.66959,-0.16530
15.42852,-0.15173
15.18745,-0.13658
14.94637,-0.13932
14.70530,-0.16328
14.46423,-0.18623
14.22316,-0.18567
13.98209,-0.16256
13.74102,-0.13266
13.49995,-0.11380
13.25888,-0.12227
13.01781,-0.16105
12.77674,-0.20565
12.53567,-0.22241
12.29460,-0.20851
12.05353,-0.17726
11.81246,-0.14741
11.57139,-0.13585
11.33032,-0.14513
11.08925,-0.16418
10.84818,-0.17586
10.60710,-0.17113
10.36603,-0.15859
10.12496,-0.15162
9.88389,-0.15107
9.64282,-0.15101
9.40175,-0.14981
9.16068,-0.15203
8.91961,-0.16382
8.67854,-0.18455
8.43747,-0.20512
8.19640,-0.21572
7.95533,-0.21470
7.71426,-0.20866
7.47319,-0.20196
7.23212,-0.19173
6.99105,-0.18239
6.74998,-0.18305
6.50891,-0.19251
6.26783,-0.20507
6.02676,-0.21873
5.78569,-0.23404
5.54462,-0.25300
5.30355,-0.27454
5.06248,-0.28168
4.82141,-0.26049
4.58034,-0.23161
4.33927,-0.22098
4.09820,-0.22673
3.85713,-0.23301
3.61606,-0.23766
3.37499,-0.24914
3.13392,-0.27263
2.89285,-0.29292
2.65178,-0.28349
2.41071,-0.25366
2.16964,-0.23897
1.92856,-0.24891
1.68749,-0.26856
1.44642,-0.28512
1.20535,-0.28682
0.96428,-0.27356
0.72321,-0.29011
0.48214,-0.38369
0.24107,-0.34404
-0.00000,0.04230
