399.69498,1.61224
399.45391,1.62071
399.21284,1.63272
398.97177,1.64574
398.73070,1.65982
398.48963,1.67484
398.24856,1.68626
398.00749,1.69153
397.76642,1.69054
397.52535,1.67869
397.28428,1.65404
397.04321,1.62445
396.80214,1.60031
396.56107,1.58952
396.32000,1.59994
396.07892,1.63045
395.83785,1.66061
395.59678,1.66461
395.35571,1.64221
395.11464,1.61719
394.87357,1.60452
394.63250,1.59948
394.39143,1.59124
394.15036,1.58054
393.90929,1.57667
393.66822,1.58153
393.42715,1.58851
393.18608,1.58802
392.94501,1.57711
392.70394,1.56339
392.46287,1.55690
392.22180,1.56276
391.98073,1.58035
391.73965,1.60265
391.49858,1.61772
391.25751,1.61694
391.01644,1.59964
390.77537,1.57618
390.53430,1.55527
390.29323,1.54176
390.05216,1.54327
389.81109,1.55756
389.57002,1.57129
389.32895,1.57795
389.08788,1.58688
388.84681,1.60801
388.60574,1.63172
388.36467,1.63889
388.12360,1.62648
387.88253,1.60304
387.64146,1.57551
387.40038,1.54945
387.15931,1.53109
386.91824,1.51966
386.67717,1.51010
386.43610,1.50527
386.19503,1.50973
385.95396,1.51502
385.71289,1.50589
385.47182,1.48042
385.23075,1.45239
384.98968,1.42900
384.74861,1.40469
384.50754,1.38046
384.26647,1.36391
384.02540,1.35539
383.78433,1.35284
383.54326,1.36143
383.30219,1.38318
383.06111,1.40336
382.82004,1.40787
382.57897,1.40742
382.33790,1.41563
382.09683,1.42783
381.85576,1.43194
381.61469,1.42688
381.37362,1.41654
381.13255,1.39369
380.89148,1.35949
380.65041,1.32843
380.40934,1.30986
380.16827,1.30839
379.92720,1.32256
379.68613,1.34500
379.44506,1.36841
379.20399,1.38561
378.96292,1.39510
378.72184,1.40290
378.48077,1.41272
378.23970,1.42159
377.99863,1.43082
377.75756,1.45282
377.51649,1.49481
377.27542,1.53621
377.03435,1.53627
376.79328,1.49671
376.55221,1.46125
376.31114,1.44946
376.07007,1.45292
375.82900,1.45384
375.58793,1.44306
375.34686,1.43235
375.10579,1.43746
374.86472,1.45726
374.62365,1.47468
374.38257,1.48037
374.14150,1.48632
373.90043,1.49789
373.65936,1.49652
373.41829,1.47775
373.17722,1.46592
372.93615,1.47577
372.69508,1.49263
372.45401,1.49586
372.21294,1.48974
371.97187,1.49153
371.73080,1.50341
371.48973,1.51246
371.24866,1.50930
371.00759,1.49607
370.76652,1.48036
370.52545,1.46916
370.28437,1.46538
370.04330,1.46985
369.80223,1.48234
369.56116,1.49886
369.32009,1.50967
369.07902,1.50208
368.83795,1.47332
368.59688,1.43741
368.35581,1.41127
368.11474,1.40356
367.87367,1.41442
367.63260,1.43489
367.39153,1.45001
367.15046,1.45153
366.90939,1.44283
366.66832,1.43001
366.42725,1.41838
366.18618,1.41470
365.94510,1.42178
365.70403,1.43160
365.46296,1.43196
365.22189,1.42131
364.98082,1.41046
364.73975,1.40787
364.49868,1.40801
364.25761,1.39969
364.01654,1.38542
363.77547,1.38062
363.53440,1.39271
363.29333,1.41240
363.05226,1.42670
362.81119,1.43152
362.57012,1.43169
362.32905,1.43198
362.08798,1.42918
361.84691,1.41780
361.60583,1.40195
361.36476,1.39105
361.12369,1.38480
360.88262,1.37511
360.64155,1.36047
360.40048,1.34604
360.15941,1.33544
359.91834,1.33199
359.67727,1.33823
359.43620,1.34756
359.19513,1.34790
358.95406,1.34101
358.71299,1.34125
358.47192,1.35471
358.23085,1.37099
357.98978,1.37617
357.74871,1.36883
357.50764,1.35782
357.26656,1.35074
357.02549,1.34992
356.78442,1.35408
356.54335,1.35784
356.30228,1.35414
356.06121,1.34329
355.82014,1.33290
355.57907,1.32813
355.33800,1.32878
355.09693,1.33187
354.85586,1.33279
354.61479,1.32939
354.37372,1.32638
354.13265,1.33046
353.89158,1.34022
353.65051,1.34683
353.40944,1.34557
353.16837,1.34025
352.92729,1.33868
352.68622,1.34712
352.44515,1.36307
352.20408,1.37267
351.96301,1.36424
351.72194,1.34502
351.48087,1.33163
351.23980,1.33227
350.99873,1.34490
350.75766,1.35953
350.51659,1.36141
350.27552,1.34511
350.03445,1.32370
349.79338,1.31538
349.55231,1.32629
349.31124,1.34748
349.07017,1.36394
348.82910,1.36906
348.58802,1.36882
348.34695,1.36965
348.10588,1.37076
347.86481,1.37008
347.62374,1.36713
347.38267,1.35932
347.14160,1.34634
346.90053,1.33520
346.65946,1.33233
346.41839,1.33758
346.17732,1.34864
345.93625,1.36258
345.69518,1.37238
345.45411,1.37238
345.21304,1.36792
344.97197,1.37080
344.73090,1.38569
344.48983,1.40408
344.24875,1.41173
344.00768,1.40391
343.76661,1.39264
343.52554,1.39566
343.28447,1.41402
343.04340,1.42926
342.80233,1.42841
342.56126,1.41812
342.32019,1.40902
342.07912,1.40390
341.83805,1.40568
341.59698,1.41970
341.35591,1.43910
341.11484,1.44353
340.87377,1.42626
340.63270,1.40795
340.39163,1.41070
340.15056,1.43174
339.90948,1.44967
339.66841,1.45585
339.42734,1.46283
339.18627,1.47829
338.94520,1.49380
338.70413,1.50163
338.46306,1.50511
338.22199,1.50541
337.98092,1.49658
337.73985,1.48199
337.49878,1.47604
337.25771,1.48354
337.01664,1.49275
336.77557,1.49350
336.53450,1.48867
336.29343,1.48377
336.05236,1.48005
335.81129,1.48028
335.57021,1.48932
335.32914,1.50224
335.08807,1.50154
334.84700,1.47726
334.60593,1.44619
334.36486,1.43410
334.12379,1.44457
333.88272,1.45903
333.64165,1.46325
333.40058,1.46273
333.15951,1.46588
332.91844,1.46882
332.67737,1.46486
332.43630,1.45369
332.19523,1.43498
331.95416,1.41166
331.71309,1.38991
331.47202,1.37035
331.23094,1.34921
330.98987,1.33057
330.74880,1.32624
330.50773,1.34248
330.26666,1.36873
330.02559,1.38291
329.78452,1.38003
329.54345,1.37777
329.30238,1.38274
329.06131,1.38027
328.82024,1.36075
328.57917,1.33681
328.33810,1.32666
328.09703,1.32897
327.85596,1.33207
327.61489,1.33405
327.37382,1.34189
327.13275,1.35747
326.89167,1.37109
326.65060,1.37386
326.40953,1.36786
326.16846,1.36128
325.92739,1.36367
325.68632,1.38291
325.44525,1.41527
325.20418,1.43866
324.96311,1.43326
324.72204,1.40872
324.48097,1.38764
324.23990,1.37441
323.99883,1.35941
323.75776,1.34100
323.51669,1.32982
323.27562,1.33331
323.03455,1.34572
322.79348,1.35934
322.55240,1.37594
322.31133,1.39471
322.07026,1.40350
321.82919,1.40059
321.58812,1.40511
321.34705,1.42420
321.10598,1.43391
320.86491,1.41717
320.62384,1.39523
320.38277,1.39140
320.14170,1.39910
319.90063,1.40307
319.65956,1.40545
319.41849,1.41141
319.17742,1.41175
318.93635,1.40177
318.69528,1.39795
318.45421,1.41529
318.21313,1.44203
317.97206,1.45413
317.73099,1.45519
317.48992,1.46645
317.24885,1.48356
317.00778,1.48269
316.76671,1.45865
316.52564,1.43216
316.28457,1.41804
316.04350,1.40805
315.80243,1.39314
315.56136,1.37841
315.32029,1.36835
315.07922,1.35964
314.83815,1.35246
314.59708,1.35137
314.35601,1.35752
314.11494,1.37080
313.87386,1.39507
313.63279,1.42935
313.39172,1.45914
313.15065,1.47070
312.90958,1.46576
312.66851,1.45069
312.42744,1.42929
312.18637,1.40855
311.94530,1.39747
311.70423,1.40139
311.46316,1.42008
311.22209,1.44766
310.98102,1.47264
310.73995,1.48527
310.49888,1.48938
310.25781,1.49422
310.01674,1.49421
309.77567,1.48275
309.53459,1.47242
309.29352,1.47736
309.05245,1.49195
308.81138,1.49903
308.57031,1.49276
308.32924,1.48002
308.08817,1.46789
307.84710,1.46014
307.60603,1.45439
307.36496,1.44275
307.12389,1.42910
306.88282,1.42835
306.64175,1.43784
306.40068,1.43920
306.15961,1.42935
305.91854,1.42631
305.67747,1.44036
305.43640,1.46163
305.19532,1.47640
304.95425,1.47934
304.71318,1.47405
304.47211,1.46922
304.23104,1.46809
303.98997,1.46272
303.74890,1.44628
303.50783,1.41935
303.26676,1.38780
303.02569,1.36401
302.78462,1.35959
302.54355,1.37577
302.30248,1.39921
302.06141,1.41329
301.82034,1.41400
301.57927,1.40615
301.33820,1.39608
301.09713,1.38738
300.85605,1.37871
300.61498,1.37196
300.37391,1.36955
300.13284,1.36959
299.89177,1.36996
299.65070,1.36815
299.40963,1.36077
299.16856,1.34966
298.92749,1.34107
298.68642,1.33720
298.44535,1.33520
298.20428,1.33400
297.96321,1.33682
297.72214,1.34342
297.48107,1.34739
297.24000,1.34455
296.99893,1.33856
296.75786,1.33652
296.51678,1.33921
296.27571,1.34123
296.03464,1.33580
295.79357,1.32097
295.55250,1.30519
295.31143,1.30050
295.07036,1.30920
294.82929,1.32110
294.58822,1.32484
294.34715,1.31776
294.10608,1.30246
293.86501,1.28294
293.62394,1.26571
293.38287,1.25692
293.14180,1.25768
292.90073,1.26299
292.65966,1.26757
292.41859,1.27234
292.17751,1.27958
291.93644,1.28501
291.69537,1.28265
291.45430,1.27418
291.21323,1.26544
290.97216,1.25801
290.73109,1.25203
290.49002,1.25103
290.24895,1.25654
290.00788,1.26311
289.76681,1.26411
289.52574,1.25905
289.28467,1.25109
289.04360,1.24205
288.80253,1.23398
288.56146,1.23075
288.32039,1.23401
288.07932,1.24028
287.83824,1.24484
287.59717,1.24572
287.35610,1.24285
287.11503,1.23806
286.87396,1.23534
286.63289,1.23656
286.39182,1.23838
286.15075,1.23658
285.90968,1.23079
285.66861,1.22380
285.42754,1.21988
285.18647,1.22235
284.94540,1.22884
284.70433,1.23164
284.46326,1.22603
284.22219,1.21566
283.98112,1.20795
283.74005,1.20706
283.49897,1.21241
283.25790,1.22043
283.01683,1.22603
282.77576,1.22514
282.53469,1.21811
282.29362,1.20949
282.05255,1.20390
281.81148,1.20366
281.57041,1.20907
281.32934,1.21720
281.08827,1.22235
280.84720,1.22184
280.60613,1.21883
280.36506,1.21601
280.12399,1.21242
279.88292,1.20993
279.64185,1.21347
279.40078,1.22102
279.15970,1.22414
278.91863,1.22194
278.67756,1.22273
278.43649,1.22936
278.19542,1.23422
277.95435,1.23183
277.71328,1.22548
277.47221,1.21910
277.23114,1.21255
276.99007,1.20597
276.74900,1.20276
276.50793,1.20494
276.26686,1.20894
276.02579,1.21017
275.78472,1.20885
275.54365,1.20754
275.30258,1.20738
275.06151,1.20964
274.82043,1.21486
274.57936,1.22082
274.33829,1.22457
274.09722,1.22475
273.85615,1.22217
273.61508,1.21981
273.37401,1.21978
273.13294,1.22010
272.89187,1.21933
272.65080,1.22184
272.40973,1.23148
272.16866,1.24340
271.92759,1.24848
271.68652,1.24455
271.44545,1.23801
271.20438,1.23584
270.96331,1.23921
270.72224,1.24338
270.48116,1.24431
270.24009,1.24416
269.99902,1.24807
269.75795,1.25858
269.51688,1.27372
269.27581,1.28766
269.03474,1.29425
268.79367,1.29166
268.55260,1.28370
268.31153,1.27741
268.07046,1.27892
267.82939,1.28946
267.58832,1.30428
267.34725,1.31590
267.10618,1.32072
266.86511,1.32125
266.62404,1.32054
266.38297,1.31825
266.14189,1.31426
265.90082,1.31184
265.65975,1.31389
265.41868,1.31842
265.17761,1.32168
264.93654,1.32429
264.69547,1.33163
264.45440,1.34792
264.21333,1.37179
263.97226,1.39714
263.73119,1.41711
263.49012,1.42938
263.24905,1.43948
263.00798,1.45450
262.76691,1.47236
262.52584,1.48552
262.28477,1.49330
262.04370,1.50102
261.80262,1.51337
261.56155,1.53128
261.32048,1.55219
261.07941,1.57110
260.83834,1.58215
260.59727,1.58561
260.35620,1.59170
260.11513,1.61220
259.87406,1.64865
259.63299,1.69276
259.39192,1.73912
259.15085,1.78757
258.90978,1.82801
258.66871,1.84617
258.42764,1.85109
258.18657,1.85290
257.94550,1.84110
257.70443,1.81677
257.46335,1.79382
257.22228,1.78461
256.98121,1.79244
256.74014,1.81204
256.49907,1.83407
256.25800,1.84118
256.01693,1.82316
255.77586,1.79918
255.53479,1.79085
255.29372,1.78985
255.05265,1.77162
254.81158,1.73597
254.57051,1.70549
254.32944,1.69717
254.08837,1.70771
253.84730,1.72258
253.60623,1.73680
253.36516,1.75522
253.12408,1.77001
252.88301,1.76411
252.64194,1.74712
252.40087,1.74140
252.15980,1.74752
251.91873,1.74594
251.67766,1.71906
251.43659,1.67227
251.19552,1.63117
250.95445,1.61395
250.71338,1.61819
250.47231,1.62650
250.23124,1.62387
249.99017,1.61350
249.74910,1.60804
249.50803,1.61499
249.26696,1.63476
249.02589,1.65865
248.78481,1.66781
248.54374,1.65170
248.30267,1.62280
248.06160,1.60366
247.82053,1.60703
247.57946,1.62378
247.33839,1.63324
247.09732,1.62924
246.85625,1.62662
246.61518,1.63887
246.37411,1.66110
246.13304,1.67326
245.89197,1.66293
245.65090,1.63997
245.40983,1.62012
245.16876,1.61427
244.92769,1.63337
244.68661,1.68593
244.44554,1.75877
244.20447,1.81612
243.96340,1.84037
243.72233,1.85188
243.48126,1.86934
243.24019,1.88606
242.99912,1.89805
242.75805,1.91562
242.51698,1.95229
242.27591,1.97870
242.03484,1.92264
241.79377,1.82012
241.55270,1.72379
241.31163,1.64996
241.07056,1.59385
240.82949,1.54326
240.58842,1.49297
240.34734,1.44733
240.10627,1.40795
239.86520,1.36977
239.62413,1.33024
239.38306,1.29345
239.14199,1.26410
238.90092,1.24061
238.65985,1.21725
238.41878,1.19204
238.17771,1.16806
237.93664,1.14817
237.69557,1.13119
237.45450,1.11338
237.21343,1.09377
236.97236,1.07670
236.73129,1.06608
236.49022,1.05873
236.24915,1.04761
236.00807,1.03228
235.76700,1.02067
235.52593,1.01850
235.28486,1.02181
235.04379,1.02083
234.80272,1.00989
234.56165,0.99328
234.32058,0.98124
234.07951,0.98027
233.83844,0.98654
233.59737,0.98909
233.35630,0.98222
233.11523,0.97114
232.87416,0.96290
232.63309,0.95852
232.39202,0.95581
232.15095,0.95472
231.90988,0.95565
231.66880,0.95483
231.42773,0.94717
231.18666,0.93485
230.94559,0.92706
230.70452,0.92847
230.46345,0.93344
230.22238,0.93478
229.98131,0.93266
229.74024,0.92982
229.49917,0.92481
229.25810,0.91634
229.01703,0.90873
228.77596,0.90627
228.53489,0.90654
228.29382,0.90391
228.05275,0.89720
227.81168,0.89063
227.57061,0.88723
227.32953,0.88621
227.08846,0.88651
226.84739,0.88823
226.60632,0.88996
226.36525,0.88889
226.12418,0.88559
225.88311,0.88508
225.64204,0.88987
225.40097,0.89545
225.15990,0.89652
224.91883,0.89453
224.67776,0.89404
224.43669,0.89558
224.19562,0.89625
223.95455,0.89448
223.71348,0.89124
223.47241,0.88893
223.23134,0.88993
222.99026,0.89436
222.74919,0.89999
222.50812,0.90471
222.26705,0.90739
222.02598,0.90722
221.78491,0.90476
221.54384,0.90269
221.30277,0.90298
221.06170,0.90516
220.82063,0.90902
220.57956,0.91625
220.33849,0.92736
220.09742,0.93941
219.85635,0.94951
219.61528,0.95822
219.37421,0.96691
219.13314,0.97559
218.89207,0.98442
218.65099,0.99383
218.40992,1.00353
218.16885,1.01460
217.92778,1.02961
217.68671,1.04837
217.44564,1.06751
217.20457,1.08548
216.96350,1.10215
216.72243,1.11490
216.48136,1.12215
216.24029,1.12642
215.99922,1.13052
215.75815,1.13457
215.51708,1.13738
215.27601,1.13948
215.03494,1.14490
214.79387,1.15791
214.55280,1.17764
214.31172,1.19924
214.07065,1.21944
213.82958,1.23645
213.58851,1.24802
213.34744,1.25461
213.10637,1.25958
212.86530,1.26510
212.62423,1.27199
212.38316,1.28078
212.14209,1.28954
211.90102,1.29331
211.65995,1.28879
211.41888,1.27923
211.17781,1.27082
210.93674,1.26477
210.69567,1.25758
210.45460,1.24964
210.21353,1.24613
209.97245,1.24795
209.73138,1.25159
209.49031,1.25858
209.24924,1.27490
209.00817,1.29676
208.76710,1.30764
208.52603,1.29818
208.28496,1.27610
208.04389,1.25270
207.80282,1.23537
207.56175,1.22933
207.32068,1.23459
207.07961,1.24135
206.83854,1.23733
206.59747,1.22187
206.35640,1.20455
206.11533,1.19121
205.87426,1.18031
205.63318,1.16914
205.39211,1.15602
205.15104,1.13989
204.90997,1.12283
204.66890,1.10939
204.42783,1.10135
204.18676,1.09597
203.94569,1.09000
203.70462,1.08281
203.46355,1.07507
203.22248,1.06734
202.98141,1.05968
202.74034,1.04839
202.49927,1.02656
202.25820,0.99479
202.01713,0.96441
201.77606,0.94608
201.53499,0.94041
201.29391,0.93919
201.05284,0.93475
200.81177,0.92624
200.57070,0.91625
200.32963,0.90628
200.08856,0.89707
199.84749,0.88894
199.60642,0.88052
199.36535,0.86972
199.12428,0.85700
198.88321,0.84531
198.64214,0.83666
198.40107,0.83065
198.16000,0.82412
197.91893,0.81219
197.67786,0.79308
197.43679,0.77247
197.19572,0.75904
196.95464,0.75533
196.71357,0.75575
196.47250,0.75328
196.23143,0.74592
195.99036,0.73572
195.74929,0.72530
195.50822,0.71694
195.26715,0.71119
195.02608,0.70574
194.78501,0.69829
194.54394,0.69034
194.30287,0.68554
194.06180,0.68479
193.82073,0.68488
193.57966,0.68164
193.33859,0.67376
193.09752,0.66364
192.85645,0.65530
192.61537,0.65149
192.37430,0.65261
192.13323,0.65693
191.89216,0.66075
191.65109,0.65946
191.41002,0.65138
191.16895,0.64016
190.92788,0.63123
190.68681,0.62662
190.44574,0.62374
190.20467,0.61978
189.96360,0.61585
189.72253,0.61390
189.48146,0.61256
189.24039,0.60896
188.99932,0.60298
188.75825,0.59768
188.51718,0.59617
188.27610,0.59859
188.03503,0.60144
187.79396,0.60047
187.55289,0.59551
187.31182,0.59081
187.07075,0.59042
186.82968,0.59316
186.58861,0.59310
186.34754,0.58782
186.10647,0.58289
185.86540,0.58431
185.62433,0.59022
185.38326,0.59344
185.14219,0.59083
184.90112,0.58609
184.66005,0.58341
184.41898,0.58350
184.17791,0.58631
183.93683,0.59249
183.69576,0.60011
183.45469,0.60442
183.21362,0.60395
182.97255,0.60282
182.73148,0.60416
182.49041,0.60596
182.24934,0.60550
182.00827,0.60451
181.76720,0.60591
181.52613,0.60841
181.28506,0.60854
181.04399,0.60670
180.80292,0.60614
180.56185,0.60735
180.32078,0.60908
180.07971,0.61258
179.83864,0.61946
179.59756,0.62715
179.35649,0.63171
179.11542,0.63390
178.87435,0.63742
178.63328,0.64325
178.39221,0.64990
178.15114,0.65741
177.91007,0.66723
177.66900,0.67906
177.42793,0.69088
177.18686,0.70128
176.94579,0.71102
176.70472,0.72265
176.46365,0.73789
176.22258,0.75450
175.98151,0.76876
175.74044,0.78174
175.49937,0.79722
175.25829,0.81428
175.01722,0.82928
174.77615,0.84302
174.53508,0.85842
174.29401,0.87594
174.05294,0.89512
173.81187,0.91438
173.57080,0.93010
173.32973,0.94161
173.08866,0.95247
172.84759,0.96399
172.60652,0.97485
172.36545,0.98673
172.12438,1.00157
171.88331,1.01537
171.64224,1.02267
171.40117,1.02420
171.16010,1.02348
170.91902,1.01937
170.67795,1.00787
170.43688,0.99025
170.19581,0.97426
169.95474,0.96453
169.71367,0.95808
169.47260,0.95167
169.23153,0.94675
168.99046,0.94420
168.74939,0.94094
168.50832,0.93426
168.26725,0.92480
168.02618,0.91448
167.78511,0.90517
167.54404,0.89909
167.30297,0.89768
167.06190,0.90020
166.82083,0.90470
166.57975,0.91073
166.33868,0.91923
166.09761,0.92917
165.85654,0.93634
165.61547,0.93743
165.37440,0.93453
165.13333,0.93353
164.89226,0.93902
164.65119,0.95189
164.41012,0.96989
164.16905,0.98916
163.92798,1.00662
163.68691,1.02135
163.44584,1.03273
163.20477,1.03904
162.96370,1.04081
162.72263,1.04248
162.48156,1.04751
162.24048,1.05444
161.99941,1.05928
161.75834,1.05883
161.51727,1.05247
161.27620,1.04322
161.03513,1.03573
160.79406,1.03138
160.55299,1.02735
160.31192,1.02114
160.07085,1.01346
159.82978,1.00648
159.58871,1.00147
159.34764,0.99960
159.10657,1.00280
158.86550,1.01130
158.62443,1.02124
158.38336,1.02662
158.14229,1.02438
157.90121,1.01600
157.66014,1.00444
157.41907,0.99208
157.17800,0.98062
156.93693,0.97053
156.69586,0.96061
156.45479,0.94974
156.21372,0.93936
155.97265,0.93263
155.73158,0.93050
155.49051,0.92985
155.24944,0.92723
155.00837,0.92266
154.76730,0.91639
154.52623,0.90469
154.28516,0.88516
154.04409,0.86265
153.80302,0.84352
153.56194,0.82909
153.32087,0.81799
153.07980,0.80962
152.83873,0.80260
152.59766,0.79351
152.35659,0.78021
152.11552,0.76421
151.87445,0.74809
151.63338,0.73263
151.39231,0.71730
151.15124,0.70188
150.91017,0.68685
150.66910,0.67310
150.42803,0.66139
150.18696,0.65197
149.94589,0.64394
149.70482,0.63508
149.46375,0.62403
149.22267,0.61178
148.98160,0.60055
148.74053,0.59208
148.49946,0.58683
148.25839,0.58378
148.01732,0.58108
147.77625,0.57753
147.53518,0.57342
147.29411,0.57002
147.05304,0.56817
146.81197,0.56728
146.57090,0.56598
146.32983,0.56430
146.08876,0.56445
145.84769,0.56869
145.60662,0.57678
145.36555,0.58587
145.12448,0.59265
144.88340,0.59581
144.64233,0.59703
144.40126,0.59911
144.16019,0.60330
143.91912,0.60893
143.67805,0.61359
143.43698,0.61374
143.19591,0.60769
142.95484,0.59756
142.71377,0.58735
142.47270,0.57938
142.23163,0.57317
141.99056,0.56698
141.74949,0.55961
141.50842,0.55131
141.26735,0.54303
141.02628,0.53539
140.78521,0.52914
140.54413,0.52570
140.30306,0.52558
140.06199,0.52669
139.82092,0.52584
139.57985,0.52263
139.33878,0.52083
139.09771,0.52437
138.85664,0.53286
138.61557,0.54218
138.37450,0.54968
138.13343,0.55648
137.89236,0.56421
137.65129,0.57257
137.41022,0.58121
137.16915,0.59171
136.92808,0.60541
136.68701,0.62092
136.44594,0.63607
136.20486,0.65121
135.96379,0.66847
135.72272,0.68879
135.48165,0.71151
135.24058,0.73702
134.99951,0.76693
134.75844,0.80091
134.51737,0.83586
134.27630,0.86926
134.03523,0.90150
133.79416,0.93377
133.55309,0.96522
133.31202,0.99429
133.07095,1.02265
132.82988,1.05446
132.58881,1.09095
132.34774,1.12862
132.10667,1.16270
131.86559,1.18698
131.62452,1.19139
131.38345,1.17120
131.14238,1.13786
130.90131,1.10806
130.66024,1.08601
130.41917,1.06594
130.17810,1.04638
129.93703,1.03043
129.69596,1.01621
129.45489,0.99849
129.21382,0.97679
128.97275,0.95426
128.73168,0.93080
128.49061,0.90235
128.24954,0.86736
128.00847,0.83036
127.76740,0.79660
127.52632,0.76631
127.28525,0.73669
127.04418,0.70715
126.80311,0.68005
126.56204,0.65748
126.32097,0.63969
126.07990,0.62602
125.83883,0.61507
125.59776,0.60422
125.35669,0.59068
125.11562,0.57402
124.87455,0.55671
124.63348,0.54164
124.39241,0.52958
124.15134,0.51896
123.91027,0.50805
123.66920,0.49701
123.42812,0.48741
123.18705,0.47996
122.94598,0.47380
122.70491,0.46809
122.46384,0.46350
122.22277,0.46115
121.98170,0.46045
121.74063,0.45935
121.49956,0.45747
121.25849,0.45727
121.01742,0.46129
120.77635,0.46906
120.53528,0.47789
120.29421,0.48640
120.05314,0.49616
119.81207,0.50929
119.57100,0.52512
119.32993,0.54142
119.08885,0.55847
118.84778,0.57923
118.60671,0.60466
118.36564,0.63267
118.12457,0.66185
117.88350,0.69181
117.64243,0.72016
117.40136,0.74418
117.16029,0.76350
116.91922,0.77745
116.67815,0.78377
116.43708,0.78298
116.19601,0.77880
115.95494,0.77259
115.71387,0.76274
115.47280,0.75023
115.23173,0.73932
114.99066,0.73137
114.74958,0.72353
114.50851,0.71464
114.26744,0.70653
114.02637,0.69939
113.78530,0.69205
113.54423,0.68611
113.30316,0.68440
113.06209,0.68662
112.82102,0.68971
112.57995,0.69209
112.33888,0.69509
112.09781,0.70072
111.85674,0.70971
111.61567,0.72152
111.37460,0.73466
111.13353,0.74634
110.89246,0.75361
110.65139,0.75600
110.41031,0.75513
110.16924,0.75085
109.92817,0.74046
109.68710,0.72222
109.44603,0.69744
109.20496,0.66898
108.96389,0.64001
108.72282,0.61427
108.48175,0.59417
108.24068,0.57749
107.99961,0.55894
107.75854,0.53738
107.51747,0.51790
107.27640,0.50530
107.03533,0.49884
106.79426,0.49466
106.55319,0.49017
106.31212,0.48466
106.07104,0.47835
105.82997,0.47185
105.58890,0.46421
105.34783,0.45257
105.10676,0.43614
104.86569,0.41785
104.62462,0.40039
104.38355,0.38376
104.14248,0.36776
103.90141,0.35502
103.66034,0.34883
103.41927,0.34826
103.17820,0.34805
102.93713,0.34465
102.69606,0.34027
102.45499,0.33809
102.21392,0.33608
101.97285,0.32915
101.73177,0.31616
101.49070,0.30178
101.24963,0.29184
101.00856,0.28891
100.76749,0.29166
100.52642,0.29648
100.28535,0.29953
100.04428,0.29868
99.80321,0.29458
99.56214,0.28947
99.32107,0.28457
99.08000,0.27901
98.83893,0.27174
98.59786,0.26410
98.35679,0.25938
98.11572,0.26038
97.87465,0.26740
97.63358,0.27694
97.39250,0.28252
97.15143,0.27938
96.91036,0.26966
96.66929,0.26142
96.42822,0.26368
96.18715,0.28050
95.94608,0.30494
95.70501,0.31993
95.46394,0.31602
95.22287,0.30509
94.98180,0.30350
94.74073,0.31511
94.49966,0.33055
94.25859,0.33708
94.01752,0.33357
93.77645,0.33009
93.53538,0.33228
93.29431,0.33478
93.05323,0.32976
92.81216,0.32104
92.57109,0.31949
92.33002,0.32639
92.08895,0.33090
91.84788,0.32638
91.60681,0.32229
91.36574,0.32859
91.12467,0.34296
90.88360,0.35810
90.64253,0.37468
90.40146,0.39790
90.16039,0.42546
89.91932,0.45326
89.67825,0.48825
89.43718,0.53667
89.19611,0.58602
88.95504,0.62007
88.71396,0.64530
88.47289,0.67276
88.23182,0.69533
87.99075,0.70055
87.74968,0.68558
87.50861,0.65255
87.26754,0.60940
87.02647,0.56791
86.78540,0.53136
86.54433,0.49691
86.30326,0.46488
86.06219,0.43676
85.82112,0.41119
85.58005,0.38779
85.33898,0.36848
85.09791,0.35282
84.85684,0.33808
84.61577,0.32334
84.37469,0.30934
84.13362,0.29651
83.89255,0.28510
83.65148,0.27519
83.41041,0.26628
83.16934,0.25763
82.92827,0.24889
82.68720,0.24066
82.44613,0.23449
82.20506,0.23127
81.96399,0.22928
81.72292,0.22559
81.48185,0.21963
81.24078,0.21385
80.99971,0.21040
80.75864,0.20811
80.51757,0.20431
80.27650,0.19916
80.03542,0.19583
79.79435,0.19607
79.55328,0.19786
79.31221,0.19818
79.07114,0.19649
78.83007,0.19420
78.58900,0.19209
78.34793,0.18919
78.10686,0.18419
77.86579,0.17757
77.62472,0.17146
77.38365,0.16758
77.14258,0.16605
76.90151,0.16622
76.66044,0.16713
76.41937,0.16748
76.17830,0.16642
75.93723,0.16396
75.69615,0.16030
75.45508,0.15616
75.21401,0.15358
74.97294,0.15404
74.73187,0.15581
74.49080,0.15608
74.24973,0.15567
74.00866,0.15821
73.76759,0.16367
73.52652,0.16601
73.28545,0.16126
73.04438,0.15439
72.80331,0.15257
72.56224,0.15621
72.32117,0.16026
72.08010,0.16058
71.83903,0.15748
71.59796,0.15430
71.35688,0.15513
71.11581,0.16232
70.87474,0.17327
70.63367,0.18082
70.39260,0.18054
70.15153,0.17697
69.91046,0.17917
69.66939,0.19228
69.42832,0.21525
69.18725,0.24112
68.94618,0.25847
68.70511,0.25854
68.46404,0.24283
68.22297,0.21985
67.98190,0.19837
67.74083,0.18485
67.49976,0.18211
67.25869,0.18753
67.01761,0.19305
66.77654,0.18952
66.53547,0.17428
66.29440,0.15265
66.05333,0.13155
65.81226,0.11466
65.57119,0.10299
65.33012,0.09687
65.08905,0.09679
64.84798,0.10370
64.60691,0.11876
64.36584,0.14080
64.12477,0.16438
63.88370,0.18259
63.64263,0.19200
63.40156,0.19319
63.16049,0.18751
62.91942,0.17652
62.67834,0.16343
62.43727,0.15128
62.19620,0.14127
61.95513,0.13460
61.71406,0.13264
61.47299,0.13451
61.23192,0.13787
60.99085,0.14128
60.74978,0.14425
60.50871,0.14619
60.26764,0.14721
60.02657,0.14812
59.78550,0.14854
59.54443,0.14728
59.30336,0.14531
59.06229,0.14585
58.82122,0.15015
58.58015,0.15581
58.33907,0.16004
58.09800,0.16251
57.85693,0.16459
57.61586,0.16728
57.37479,0.17029
57.13372,0.17251
56.89265,0.17339
56.65158,0.17220
56.41051,0.16686
56.16944,0.15751
55.92837,0.14838
55.68730,0.14256
55.44623,0.13831
55.20516,0.13120
54.96409,0.11856
54.72302,0.10134
54.48195,0.08307
54.24088,0.06832
53.99980,0.05992
53.75873,0.05641
53.51766,0.05411
53.27659,0.05297
53.03552,0.05845
52.79445,0.07711
52.55338,0.11206
52.31231,0.16109
52.07124,0.21086
51.83017,0.23133
51.58910,0.20680
51.34803,0.16323
51.10696,0.12344
50.86589,0.09264
50.62482,0.07071
50.38375,0.05879
50.14268,0.06041
49.90161,0.07958
49.66053,0.11997
49.41946,0.18910
49.17839,0.26386
48.93732,0.22990
48.69625,0.12577
48.45518,0.05239
48.21411,0.02406
47.97304,0.04084
47.73197,0.12027
47.49090,0.24082
47.24983,0.21114
47.00876,0.10766
46.76769,0.06987
46.52662,0.09090
46.28555,0.12533
46.04448,0.11693
45.80341,0.09192
45.56234,0.10612
45.32126,0.14398
45.08019,0.13807
44.83912,0.10085
44.59805,0.08440
44.35698,0.08668
44.11591,0.08539
43.87484,0.08781
43.63377,0.10097
43.39270,0.09975
43.15163,0.07814
42.91056,0.06616
42.66949,0.07617
42.42842,0.09286
42.18735,0.09885
41.94628,0.08989
41.70521,0.07791
41.46414,0.07808
41.22307,0.09000
40.98199,0.10385
40.74092,0.11556
40.49985,0.12330
40.25878,0.12287
40.01771,0.11982
39.77664,0.12464
39.53557,0.13320
39.29450,0.13120
39.05343,0.11624
38.81236,0.10308
38.57129,0.10524
38.33022,0.11808
38.08915,0.12624
37.84808,0.12575
37.60701,0.12564
37.36594,0.12898
37.12487,0.13044
36.88380,0.12659
36.64272,0.11947
36.40165,0.11635
36.16058,0.12143
35.91951,0.12658
35.67844,0.12062
35.43737,0.10728
35.19630,0.10275
34.95523,0.11252
34.71416,0.12198
34.47309,0.11586
34.23202,0.09931
33.99095,0.09051
33.74988,0.09969
33.50881,0.12161
33.26774,0.14447
33.02667,0.15857
32.78560,0.16307
32.54453,0.16731
32.30345,0.17463
32.06238,0.17566
31.82131,0.16161
31.58024,0.13398
31.33917,0.10212
31.09810,0.07023
30.85703,0.03536
30.61596,0.00161
30.37489,-0.02222
30.13382,-0.03185
29.89275,-0.02483
29.65168,-0.00765
29.41061,-0.00046
29.16954,-0.01894
28.92847,-0.05471
28.68740,-0.08706
28.44633,-0.10973
28.20526,-0.13119
27.96418,-0.15828
27.72311,-0.18415
27.48204,-0.19335
27.24097,-0.18397
26.99990,-0.17283
26.75883,-0.17234
26.51776,-0.17774
26.27669,-0.18355
26.03562,-0.18924
25.79455,-0.19712
25.55348,-0.21624
25.31241,-0.24558
25.07134,-0.26935
24.83027,-0.27182
24.58920,-0.25661
24.34813,-0.23621
24.10706,-0.22408
23.86599,-0.23772
23.62491,-0.27249
23.38384,-0.31149
23.14277,-0.33058
22.90170,-0.30187
22.66063,-0.25162
22.41956,-0.24439
22.17849,-0.29450
21.93742,-0.34629
21.69635,-0.36186
21.45528,-0.36760
21.21421,-0.35447
20.97314,-0.32075
20.73207,-0.29095
20.49100,-0.29090
20.24993,-0.30384
20.00886,-0.30814
19.76779,-0.32348
19.52672,-0.36017
19.28564,-0.37233
19.04457,-0.32990
18.80350,-0.28115
18.56243,-0.25381
18.32136,-0.25130
18.08029,-0.26127
17.83922,-0.27630
17.59815,-0.29066
17.35708,-0.29691
17.11601,-0.30287
16.87494,-0.31049
16.63387,-0.31170
16.39280,-0.30249
16.15173,-0.28518
15.91066,-0.27447
15.66959,-0.27905
15.42852,-0.29278
15.18745,-0.30547
14.94637,-0.30940
14.70530,-0.29419
14.46423,-0.26542
14.22316,-0.24892
13.98209,-0.25886
13.74102,-0.28104
13.49995,-0.29647
13.25888,-0.30676
13.01781,-0.32156
12.77674,-0.34764
12.53567,-0.38623
12.29460,-0.41515
12.05353,-0.41953
11.81246,-0.41488
11.57139,-0.40472
11.33032,-0.38986
11.08925,-0.38011
10.84818,-0.37706
10.60710,-0.38070
10.36603,-0.38306
10.12496,-0.37755
9.88389,-0.37225
9.64282,-0.37116
9.40175,-0.36566
9.16068,-0.36055
8.91961,-0.36750
8.67854,-0.37531
8.43747,-0.36693
8.19640,-0.33943
7.95533,-0.30331
7.71426,-0.27453
7.47319,-0.26925
7.23212,-0.29466
6.99105,-0.34550
6.74998,-0.39785
6.50891,-0.41531
6.26783,-0.40128
6.02676,-0.38878
5.78569,-0.39776
5.54462,-0.42148
5.30355,-0.43069
5.06248,-0.40942
4.82141,-0.38574
4.58034,-0.37803
4.33927,-0.38769
4.09820,-0.40262
3.85713,-0.40722
3.61606,-0.40912
3.37499,-0.42761
3.13392,-0.46589
2.89285,-0.49333
2.65178,-0.44143
2.41071,-0.36316
2.16964,-0.33520
1.92856,-0.33869
1.68749,-0.32716
1.44642,-0.30047
1.20535,-0.29968
0.96428,-0.31519
0.72321,-0.34220
0.48214,-0.35920
0.24107,-0.32613
-0.00000,-0.06399
