399.69498,1.82417
399.45391,1.78591
399.21284,1.74640
398.97177,1.73831
398.73070,1.78955
398.48963,1.84334
398.24856,1.85603
398.00749,1.87875
397.76642,1.89400
397.52535,1.88844
397.28428,1.89000
397.04321,1.89524
396.80214,1.85928
396.56107,1.81949
396.32000,1.84331
396.07892,1.91150
395.83785,1.94952
395.59678,1.89403
395.35571,1.79945
395.11464,1.74892
394.87357,1.74883
394.63250,1.77640
394.39143,1.79653
394.15036,1.77073
393.90929,1.74897
393.66822,1.78923
393.42715,1.81914
393.18608,1.78604
392.94501,1.76161
392.70394,1.76670
392.46287,1.78987
392.22180,1.79537
391.98073,1.77490
391.73965,1.74001
391.49858,1.71451
391.25751,1.72245
391.01644,1.75679
390.77537,1.75765
390.53430,1.75451
390.29323,1.75008
390.05216,1.74463
389.81109,1.75572
389.57002,1.76335
389.32895,1.74468
389.08788,1.72996
388.84681,1.72501
388.60574,1.73150
388.36467,1.74541
388.12360,1.71066
387.88253,1.65530
387.64146,1.66403
387.40038,1.71384
387.15931,1.70196
386.91824,1.62567
386.67717,1.56140
386.43610,1.53997
386.19503,1.56122
385.95396,1.60137
385.71289,1.63667
385.47182,1.64525
385.23075,1.61641
384.98968,1.59099
384.74861,1.58577
384.50754,1.56717
384.26647,1.53377
384.02540,1.52392
383.78433,1.50782
383.54326,1.48429
383.30219,1.47179
383.06111,1.45550
382.82004,1.42480
382.57897,1.41354
382.33790,1.45130
382.09683,1.52401
381.85576,1.57783
381.61469,1.56489
381.37362,1.52249
381.13255,1.48908
380.89148,1.46331
380.65041,1.43520
380.40934,1.40799
380.16827,1.40552
379.92720,1.43201
379.68613,1.43874
379.44506,1.44932
379.20399,1.45868
378.96292,1.45046
378.72184,1.45309
378.48077,1.48135
378.23970,1.50400
377.99863,1.48994
377.75756,1.47061
377.51649,1.49297
377.27542,1.58337
377.03435,1.68317
376.79328,1.63470
376.55221,1.60540
376.31114,1.64959
376.07007,1.71003
375.82900,1.71910
375.58793,1.66924
375.34686,1.60135
375.10579,1.58996
374.86472,1.63963
374.62365,1.69030
374.38257,1.68515
374.14150,1.65365
373.90043,1.64718
373.65936,1.67552
373.41829,1.70382
373.17722,1.69601
372.93615,1.66969
372.69508,1.64836
372.45401,1.63167
372.21294,1.62255
371.97187,1.63527
371.73080,1.67014
371.48973,1.69117
371.24866,1.66083
371.00759,1.60052
370.76652,1.56830
370.52545,1.58488
370.28437,1.60941
370.04330,1.60402
369.80223,1.58423
369.56116,1.57907
369.32009,1.59757
369.07902,1.62887
368.83795,1.63776
368.59688,1.61335
368.35581,1.58702
368.11474,1.55955
367.87367,1.55395
367.63260,1.58634
367.39153,1.62275
367.15046,1.62838
366.90939,1.63474
366.66832,1.65657
366.42725,1.66741
366.18618,1.65549
365.94510,1.64527
365.70403,1.65831
365.46296,1.67614
365.22189,1.66794
364.98082,1.63398
364.73975,1.60558
364.49868,1.58642
364.25761,1.57384
364.01654,1.57154
363.77547,1.57082
363.53440,1.56829
363.29333,1.57779
363.05226,1.59806
362.81119,1.60517
362.57012,1.58271
362.32905,1.55009
362.08798,1.52742
361.84691,1.53049
361.60583,1.56009
361.36476,1.58917
361.12369,1.57801
360.88262,1.53512
360.64155,1.51366
360.40048,1.53444
360.15941,1.59561
359.91834,1.66869
359.67727,1.67182
359.43620,1.62129
359.19513,1.59312
358.95406,1.57165
358.71299,1.54327
358.47192,1.52935
358.23085,1.54036
357.98978,1.56168
357.74871,1.57328
357.50764,1.57176
357.26656,1.57247
357.02549,1.58025
356.78442,1.56318
356.54335,1.52154
356.30228,1.49847
356.06121,1.51841
355.82014,1.54840
355.57907,1.53931
355.33800,1.50453
355.09693,1.48381
354.85586,1.48679
354.61479,1.49996
354.37372,1.50994
354.13265,1.51587
353.89158,1.52002
353.65051,1.52129
353.40944,1.51894
353.16837,1.51650
352.92729,1.52201
352.68622,1.53196
352.44515,1.53584
352.20408,1.53985
351.96301,1.54777
351.72194,1.54889
351.48087,1.55728
351.23980,1.58204
350.99873,1.59443
350.75766,1.57785
350.51659,1.56024
350.27552,1.54446
350.03445,1.52480
349.79338,1.52162
349.55231,1.55647
349.31124,1.58710
349.07017,1.59981
348.82910,1.62871
348.58802,1.66575
348.34695,1.68311
348.10588,1.65617
347.86481,1.60340
347.62374,1.56129
347.38267,1.54214
347.14160,1.55409
346.90053,1.57440
346.65946,1.56576
346.41839,1.56839
346.17732,1.62078
345.93625,1.69895
345.69518,1.68663
345.45411,1.64410
345.21304,1.61232
344.97197,1.58148
344.73090,1.56066
344.48983,1.55893
344.24875,1.56883
344.00768,1.58032
343.76661,1.60065
343.52554,1.63320
343.28447,1.65434
343.04340,1.67869
342.80233,1.71603
342.56126,1.72083
342.32019,1.68656
342.07912,1.63891
341.83805,1.60445
341.59698,1.58456
341.35591,1.57296
341.11484,1.58469
340.87377,1.62883
340.63270,1.66234
340.39163,1.62784
340.15056,1.58272
339.90948,1.56709
339.66841,1.56615
339.42734,1.56901
339.18627,1.59490
338.94520,1.64817
338.70413,1.69866
338.46306,1.72766
338.22199,1.74331
337.98092,1.71032
337.73985,1.61320
337.49878,1.57162
337.25771,1.61307
337.01664,1.70645
336.77557,1.78004
336.53450,1.76105
336.29343,1.69570
336.05236,1.65891
335.81129,1.66577
335.57021,1.68049
335.32914,1.67102
335.08807,1.65318
334.84700,1.63595
334.60593,1.61580
334.36486,1.60186
334.12379,1.59286
333.88272,1.57648
333.64165,1.56152
333.40058,1.57058
333.15951,1.60920
332.91844,1.65273
332.67737,1.67817
332.43630,1.70941
332.19523,1.73759
331.95416,1.74306
331.71309,1.68073
331.47202,1.59563
331.23094,1.55254
330.98987,1.55091
330.74880,1.55031
330.50773,1.52901
330.26666,1.50801
330.02559,1.51091
329.78452,1.50911
329.54345,1.48990
329.30238,1.48199
329.06131,1.49450
328.82024,1.52194
328.57917,1.58380
328.33810,1.65923
328.09703,1.60010
327.85596,1.53382
327.61489,1.50857
327.37382,1.51572
327.13275,1.55528
326.89167,1.61574
326.65060,1.62912
326.40953,1.60222
326.16846,1.57495
325.92739,1.59548
325.68632,1.66805
325.44525,1.64337
325.20418,1.61483
324.96311,1.55224
324.72204,1.51173
324.48097,1.54621
324.23990,1.52944
323.99883,1.48942
323.75776,1.47365
323.51669,1.47096
323.27562,1.46936
323.03455,1.48796
322.79348,1.54901
322.55240,1.62978
322.31133,1.64945
322.07026,1.59774
321.82919,1.55621
321.58812,1.54641
321.34705,1.53362
321.10598,1.50470
320.86491,1.48887
320.62384,1.49878
320.38277,1.53443
320.14170,1.57833
319.90063,1.54757
319.65956,1.56504
319.41849,1.57739
319.17742,1.52265
318.93635,1.52844
318.69528,1.60705
318.45421,1.67142
318.21313,1.60594
317.97206,1.53952
317.73099,1.52125
317.48992,1.56138
317.24885,1.63474
317.00778,1.64657
316.76671,1.58867
316.52564,1.53667
316.28457,1.50225
316.04350,1.48802
315.80243,1.48198
315.56136,1.46795
315.32029,1.44526
315.07922,1.42619
314.83815,1.41984
314.59708,1.42071
314.35601,1.41964
314.11494,1.42162
313.87386,1.43776
313.63279,1.47359
313.39172,1.52312
313.15065,1.57858
312.90958,1.63327
312.66851,1.66845
312.42744,1.65875
312.18637,1.61765
311.94530,1.59133
311.70423,1.58528
311.46316,1.56651
311.22209,1.53472
310.98102,1.52777
310.73995,1.56310
310.49888,1.62861
310.25781,1.68884
310.01674,1.69433
309.77567,1.66708
309.53459,1.67924
309.29352,1.73398
309.05245,1.78035
308.81138,1.77085
308.57031,1.74860
308.32924,1.74623
308.08817,1.70958
307.84710,1.66859
307.60603,1.66803
307.36496,1.67765
307.12389,1.63850
306.88282,1.57136
306.64175,1.54017
306.40068,1.54852
306.15961,1.55506
305.91854,1.55554
305.67747,1.57443
305.43640,1.60801
305.19532,1.64584
304.95425,1.69306
304.71318,1.74024
304.47211,1.79263
304.23104,1.77952
303.98997,1.69050
303.74890,1.62073
303.50783,1.57594
303.26676,1.52737
303.02569,1.47956
302.78462,1.45313
302.54355,1.44808
302.30248,1.45840
302.06141,1.48773
301.82034,1.53452
301.57927,1.58732
301.33820,1.63220
301.09713,1.66240
300.85605,1.67886
300.61498,1.68959
300.37391,1.68857
300.13284,1.66785
299.89177,1.59634
299.65070,1.52771
299.40963,1.49887
299.16856,1.50260
298.92749,1.50968
298.68642,1.50364
298.44535,1.50996
298.20428,1.55145
297.96321,1.60846
297.72214,1.64044
297.48107,1.62622
297.24000,1.59560
296.99893,1.57280
296.75786,1.55012
296.51678,1.53262
296.27571,1.54118
296.03464,1.57574
295.79357,1.60340
295.55250,1.59515
295.31143,1.56654
295.07036,1.55404
294.82929,1.57304
294.58822,1.61588
294.34715,1.63864
294.10608,1.58150
293.86501,1.49711
293.62394,1.43009
293.38287,1.39823
293.14180,1.39757
292.90073,1.41409
292.65966,1.44031
292.41859,1.47611
292.17751,1.50114
291.93644,1.47418
291.69537,1.42693
291.45430,1.40371
291.21323,1.41075
290.97216,1.42792
290.73109,1.43686
290.49002,1.43063
290.24895,1.40816
290.00788,1.37306
289.76681,1.33561
289.52574,1.31086
289.28467,1.30872
289.04360,1.32445
288.80253,1.34029
288.56146,1.34134
288.32039,1.33081
288.07932,1.32208
287.83824,1.32020
287.59717,1.32256
287.35610,1.33224
287.11503,1.35426
286.87396,1.37989
286.63289,1.39060
286.39182,1.38313
286.15075,1.37387
285.90968,1.37551
285.66861,1.38305
285.42754,1.38500
285.18647,1.37882
284.94540,1.36813
284.70433,1.35504
284.46326,1.34259
284.22219,1.33785
283.98112,1.34732
283.74005,1.36683
283.49897,1.38170
283.25790,1.38262
283.01683,1.37219
282.77576,1.36381
282.53469,1.37214
282.29362,1.39320
282.05255,1.40523
281.81148,1.39908
281.57041,1.38683
281.32934,1.37350
281.08827,1.36105
280.84720,1.36031
280.60613,1.38098
280.36506,1.41679
280.12399,1.44183
279.88292,1.43163
279.64185,1.39873
279.40078,1.37009
279.15970,1.35753
278.91863,1.35903
278.67756,1.36421
278.43649,1.36215
278.19542,1.35303
277.95435,1.34712
277.71328,1.35268
277.47221,1.36970
277.23114,1.39039
276.99007,1.39810
276.74900,1.37968
276.50793,1.34681
276.26686,1.32642
276.02579,1.33364
275.78472,1.36076
275.54365,1.38522
275.30258,1.39469
275.06151,1.39244
274.82043,1.37927
274.57936,1.35615
274.33829,1.33434
274.09722,1.32958
273.85615,1.34514
273.61508,1.36884
273.37401,1.38221
273.13294,1.37731
272.89187,1.36528
272.65080,1.36052
272.40973,1.36765
272.16866,1.38157
271.92759,1.39193
271.68652,1.39351
271.44545,1.39480
271.20438,1.40714
270.96331,1.42711
270.72224,1.43997
270.48116,1.44122
270.24009,1.43971
269.99902,1.44253
269.75795,1.44720
269.51688,1.44594
269.27581,1.43631
269.03474,1.42377
268.79367,1.42033
268.55260,1.43473
268.31153,1.46339
268.07046,1.49077
267.82939,1.49886
267.58832,1.48661
267.34725,1.47387
267.10618,1.47507
266.86511,1.47984
266.62404,1.47308
266.38297,1.46732
266.14189,1.48525
265.90082,1.51841
265.65975,1.53155
265.41868,1.51568
265.17761,1.49918
264.93654,1.50395
264.69547,1.53558
264.45440,1.59594
264.21333,1.66657
263.97226,1.69341
263.73119,1.66040
263.49012,1.61687
263.24905,1.60168
263.00798,1.60782
262.76691,1.60981
262.52584,1.60427
262.28477,1.60641
262.04370,1.62396
261.80262,1.66443
261.56155,1.73901
261.32048,1.82182
261.07941,1.83278
260.83834,1.76398
260.59727,1.70230
260.35620,1.70104
260.11513,1.75093
259.87406,1.82112
259.63299,1.89733
259.39192,1.93875
259.15085,1.89888
258.90978,1.84629
258.66871,1.82567
258.42764,1.85000
258.18657,1.90903
257.94550,1.98438
257.70443,2.06296
257.46335,2.12033
257.22228,2.14803
256.98121,2.19124
256.74014,2.26222
256.49907,2.27419
256.25800,2.22764
256.01693,2.18332
255.77586,2.09940
255.53479,2.00130
255.29372,1.94426
255.05265,1.94923
254.81158,2.00566
254.57051,2.03631
254.32944,2.02255
254.08837,2.02461
253.84730,1.99905
253.60623,1.86910
253.36516,1.77014
253.12408,1.72745
252.88301,1.70861
252.64194,1.69143
252.40087,1.68464
252.15980,1.69864
251.91873,1.73502
251.67766,1.77292
251.43659,1.77968
251.19552,1.74472
250.95445,1.69832
250.71338,1.67580
250.47231,1.68763
250.23124,1.72372
249.99017,1.77202
249.74910,1.81873
249.50803,1.83306
249.26696,1.81322
249.02589,1.80640
248.78481,1.82305
248.54374,1.85961
248.30267,1.90351
248.06160,1.93557
247.82053,1.92012
247.57946,1.86167
247.33839,1.83844
247.09732,1.83627
246.85625,1.84919
246.61518,1.88809
246.37411,1.93917
246.13304,1.96999
245.89197,1.97153
245.65090,1.93760
245.40983,1.87964
245.16876,1.83722
244.92769,1.83963
244.68661,1.89166
244.44554,1.94085
244.20447,1.86131
243.96340,1.76536
243.72233,1.74812
243.48126,1.81602
243.24019,1.91048
242.99912,1.93479
242.75805,1.88826
242.51698,1.85746
242.27591,1.88219
242.03484,1.94559
241.79377,1.94043
241.55270,1.86059
241.31163,1.81346
241.07056,1.72737
240.82949,1.60931
240.58842,1.51875
240.34734,1.47175
240.10627,1.44822
239.86520,1.42192
239.62413,1.38723
239.38306,1.35826
239.14199,1.34369
238.90092,1.33185
238.65985,1.30520
238.41878,1.26481
238.17771,1.22897
237.93664,1.21252
237.69557,1.21490
237.45450,1.22157
237.21343,1.21519
236.97236,1.19544
236.73129,1.17976
236.49022,1.17877
236.24915,1.18333
236.00807,1.17521
235.76700,1.15114
235.52593,1.12647
235.28486,1.11464
235.04379,1.11418
234.80272,1.11500
234.56165,1.10959
234.32058,1.09463
234.07951,1.06885
233.83844,1.03925
233.59737,1.02264
233.35630,1.03439
233.11523,1.07234
232.87416,1.10609
232.63309,1.10185
232.39202,1.07069
232.15095,1.04218
231.90988,1.02973
231.66880,1.03515
231.42773,1.05094
231.18666,1.05389
230.94559,1.02814
230.70452,0.99881
230.46345,0.99473
230.22238,1.01852
229.98131,1.04319
229.74024,1.03734
229.49917,1.01994
229.25810,1.02565
229.01703,1.05973
228.77596,1.09532
228.53489,1.09849
228.29382,1.07570
228.05275,1.05201
227.81168,1.03322
227.57061,1.01027
227.32953,0.98302
227.08846,0.96460
226.84739,0.96565
226.60632,0.98277
226.36525,0.99587
226.12418,0.99038
225.88311,0.97852
225.64204,0.97580
225.40097,0.98231
225.15990,0.98922
224.91883,0.98961
224.67776,0.98438
224.43669,0.98092
224.19562,0.98425
223.95455,0.99255
223.71348,0.99952
223.47241,0.99948
223.23134,0.99430
222.99026,0.99206
222.74919,0.99739
222.50812,1.00761
222.26705,1.01954
222.02598,1.03159
221.78491,1.03753
221.54384,1.03454
221.30277,1.03283
221.06170,1.04082
220.82063,1.05270
220.57956,1.05723
220.33849,1.05513
220.09742,1.05441
219.85635,1.05697
219.61528,1.06078
219.37421,1.06554
219.13314,1.06940
218.89207,1.06925
218.65099,1.06962
218.40992,1.08003
218.16885,1.10055
217.92778,1.11980
217.68671,1.13271
217.44564,1.14437
217.20457,1.15735
216.96350,1.16834
216.72243,1.18055
216.48136,1.19947
216.24029,1.21426
215.99922,1.21716
215.75815,1.22376
215.51708,1.24567
215.27601,1.26709
215.03494,1.27337
214.79387,1.27009
214.55280,1.25827
214.31172,1.23854
214.07065,1.22322
213.82958,1.22246
213.58851,1.23297
213.34744,1.24924
213.10637,1.27224
212.86530,1.30100
212.62423,1.33338
212.38316,1.36838
212.14209,1.39133
211.90102,1.37850
211.65995,1.33691
211.41888,1.30552
211.17781,1.30754
210.93674,1.32773
210.69567,1.33987
210.45460,1.34035
210.21353,1.34373
209.97245,1.35710
209.73138,1.36826
209.49031,1.36346
209.24924,1.35322
209.00817,1.35732
208.76710,1.37221
208.52603,1.37810
208.28496,1.36674
208.04389,1.34578
207.80282,1.31714
207.56175,1.28378
207.32068,1.25393
207.07961,1.23275
206.83854,1.22032
206.59747,1.21377
206.35640,1.20896
206.11533,1.19682
205.87426,1.17143
205.63318,1.14270
205.39211,1.12673
205.15104,1.12982
204.90997,1.14604
204.66890,1.16745
204.42783,1.19114
204.18676,1.21556
203.94569,1.23497
203.70462,1.24369
203.46355,1.24483
203.22248,1.23976
202.98141,1.21956
202.74034,1.18723
202.49927,1.14916
202.25820,1.10123
202.01713,1.04970
201.77606,1.00998
201.53499,0.98797
201.29391,0.97988
201.05284,0.98434
200.81177,1.00124
200.57070,1.02152
200.32963,1.03316
200.08856,1.03406
199.84749,1.03114
199.60642,1.02803
199.36535,1.01831
199.12428,0.99483
198.88321,0.95883
198.64214,0.91601
198.40107,0.87464
198.16000,0.84601
197.91893,0.83847
197.67786,0.85154
197.43679,0.87511
197.19572,0.89722
196.95464,0.90876
196.71357,0.89645
196.47250,0.86260
196.23143,0.83404
195.99036,0.82544
195.74929,0.83048
195.50822,0.83720
195.26715,0.84160
195.02608,0.84363
194.78501,0.83903
194.54394,0.82807
194.30287,0.82141
194.06180,0.82612
193.82073,0.83633
193.57966,0.83631
193.33859,0.81776
193.09752,0.79230
192.85645,0.77512
192.61537,0.76938
192.37430,0.76857
192.13323,0.76804
191.89216,0.76965
191.65109,0.77375
191.41002,0.77231
191.16895,0.75873
190.92788,0.73895
190.68681,0.72047
190.44574,0.70690
190.20467,0.70238
189.96360,0.70909
189.72253,0.72179
189.48146,0.72878
189.24039,0.72372
188.99932,0.71437
188.75825,0.71075
188.51718,0.71286
188.27610,0.71277
188.03503,0.70465
187.79396,0.68954
187.55289,0.67494
187.31182,0.67283
187.07075,0.68980
186.82968,0.71698
186.58861,0.73096
186.34754,0.71514
186.10647,0.68348
185.86540,0.65914
185.62433,0.65388
185.38326,0.67093
185.14219,0.70658
184.90112,0.73680
184.66005,0.72658
184.41898,0.69713
184.17791,0.68609
183.93683,0.70207
183.69576,0.72810
183.45469,0.73641
183.21362,0.73222
182.97255,0.73984
182.73148,0.75931
182.49041,0.76949
182.24934,0.75413
182.00827,0.72756
181.76720,0.71146
181.52613,0.70900
181.28506,0.70955
181.04399,0.71139
180.80292,0.72230
180.56185,0.74079
180.32078,0.75544
180.07971,0.75672
179.83864,0.74639
179.59756,0.73434
179.35649,0.72949
179.11542,0.73625
178.87435,0.75293
178.63328,0.76974
178.39221,0.77714
178.15114,0.78276
177.91007,0.80074
177.66900,0.82929
177.42793,0.85532
177.18686,0.87161
176.94579,0.87942
176.70472,0.88002
176.46365,0.87318
176.22258,0.86505
175.98151,0.86535
175.74044,0.87169
175.49937,0.87252
175.25829,0.87560
175.01722,0.89610
174.77615,0.92906
174.53508,0.96008
174.29401,0.98886
174.05294,1.01662
173.81187,1.03445
173.57080,1.04312
173.32973,1.05777
173.08866,1.07882
172.84759,1.08766
172.60652,1.08544
172.36545,1.08853
172.12438,1.09468
171.88331,1.08922
171.64224,1.08091
171.40117,1.08879
171.16010,1.10741
170.91902,1.12450
170.67795,1.14367
170.43688,1.16319
170.19581,1.17123
169.95474,1.16642
169.71367,1.15519
169.47260,1.13732
169.23153,1.11375
168.99046,1.09422
168.74939,1.08316
168.50832,1.07228
168.26725,1.05469
168.02618,1.03359
167.78511,1.01633
167.54404,1.00962
167.30297,1.01315
167.06190,1.01749
166.82083,1.01933
166.57975,1.02764
166.33868,1.04625
166.09761,1.06376
165.85654,1.06837
165.61547,1.06197
165.37440,1.05472
165.13333,1.05610
164.89226,1.06539
164.65119,1.07009
164.41012,1.06626
164.16905,1.06629
163.92798,1.07314
163.68691,1.07745
163.44584,1.07561
163.20477,1.07242
162.96370,1.07137
162.72263,1.07432
162.48156,1.08378
162.24048,1.09793
161.99941,1.11002
161.75834,1.11715
161.51727,1.12443
161.27620,1.13693
161.03513,1.14889
160.79406,1.14887
160.55299,1.13865
160.31192,1.13143
160.07085,1.13053
159.82978,1.12694
159.58871,1.11790
159.34764,1.11363
159.10657,1.12016
158.86550,1.12875
158.62443,1.12974
158.38336,1.12640
158.14229,1.12438
157.90121,1.11948
157.66014,1.10669
157.41907,1.09020
157.17800,1.07850
156.93693,1.07558
156.69586,1.07711
156.45479,1.07426
156.21372,1.06293
155.97265,1.04626
155.73158,1.02712
155.49051,1.00508
155.24944,0.98271
155.00837,0.96724
154.76730,0.96131
154.52623,0.95829
154.28516,0.95102
154.04409,0.94217
153.80302,0.94085
153.56194,0.94983
153.32087,0.96265
153.07980,0.97157
152.83873,0.97108
152.59766,0.95661
152.35659,0.93143
152.11552,0.90543
151.87445,0.88147
151.63338,0.85529
151.39231,0.82570
151.15124,0.79609
150.91017,0.76841
150.66910,0.74298
150.42803,0.72251
150.18696,0.71099
149.94589,0.70933
149.70482,0.71451
149.46375,0.72193
149.22267,0.72660
148.98160,0.72220
148.74053,0.70537
148.49946,0.68206
148.25839,0.66153
148.01732,0.64915
147.77625,0.64594
147.53518,0.64938
147.29411,0.65443
147.05304,0.65725
146.81197,0.65836
146.57090,0.66067
146.32983,0.66613
146.08876,0.67536
145.84769,0.68709
145.60662,0.69716
145.36555,0.70119
145.12448,0.69895
144.88340,0.69497
144.64233,0.69519
144.40126,0.70476
144.16019,0.72566
143.91912,0.75032
143.67805,0.76236
143.43698,0.75237
143.19591,0.72882
142.95484,0.70634
142.71377,0.69286
142.47270,0.68916
142.23163,0.69213
141.99056,0.69593
141.74949,0.69335
141.50842,0.68075
141.26735,0.66381
141.02628,0.65207
140.78521,0.64720
140.54413,0.64448
140.30306,0.64200
140.06199,0.64180
139.82092,0.64350
139.57985,0.64401
139.33878,0.64565
139.09771,0.65246
138.85664,0.65838
138.61557,0.65461
138.37450,0.64675
138.13343,0.64974
137.89236,0.66978
137.65129,0.69501
137.41022,0.70785
137.16915,0.71142
136.92808,0.72496
136.68701,0.75287
136.44594,0.77681
136.20486,0.78250
135.96379,0.78221
135.72272,0.79760
135.48165,0.83097
135.24058,0.86471
134.99951,0.88908
134.75844,0.90872
134.51737,0.92900
134.27630,0.95063
134.03523,0.97753
133.79416,1.00911
133.55309,1.02892
133.31202,1.02819
133.07095,1.02659
132.82988,1.04742
132.58881,1.08829
132.34774,1.11950
132.10667,1.11241
131.86559,1.08512
131.62452,1.06464
131.38345,1.06667
131.14238,1.10218
130.90131,1.14688
130.66024,1.15096
130.41917,1.11389
130.17810,1.08219
129.93703,1.07611
129.69596,1.08403
129.45489,1.08972
129.21382,1.07493
128.97275,1.03312
128.73168,0.97857
128.49061,0.92885
128.24954,0.89232
128.00847,0.87452
127.76740,0.87589
127.52632,0.87987
127.28525,0.86601
127.04418,0.83686
126.80311,0.80942
126.56204,0.79234
126.32097,0.78323
126.07990,0.77910
125.83883,0.77594
125.59776,0.76307
125.35669,0.73627
125.11562,0.70421
124.87455,0.67355
124.63348,0.64669
124.39241,0.62595
124.15134,0.61166
123.91027,0.60251
123.66920,0.59908
123.42812,0.60008
123.18705,0.60000
122.94598,0.59666
122.70491,0.59395
122.46384,0.59395
122.22277,0.59398
121.98170,0.59188
121.74063,0.58854
121.49956,0.58616
121.25849,0.58740
121.01742,0.59334
120.77635,0.60288
120.53528,0.61576
120.29421,0.63128
120.05314,0.64439
119.81207,0.64915
119.57100,0.64618
119.32993,0.64201
119.08885,0.64096
118.84778,0.64203
118.60671,0.64423
118.36564,0.65178
118.12457,0.67074
117.88350,0.70263
117.64243,0.74392
117.40136,0.79199
117.16029,0.84847
116.91922,0.91035
116.67815,0.95946
116.43708,0.97443
116.19601,0.96318
115.95494,0.95148
115.71387,0.94116
115.47280,0.91965
115.23173,0.88678
114.99066,0.85513
114.74958,0.83454
114.50851,0.82458
114.26744,0.81864
114.02637,0.81260
113.78530,0.80893
113.54423,0.81219
113.30316,0.82059
113.06209,0.82490
112.82102,0.81673
112.57995,0.79894
112.33888,0.78537
112.09781,0.78566
111.85674,0.79925
111.61567,0.81788
111.37460,0.82895
111.13353,0.82423
110.89246,0.80989
110.65139,0.79999
110.41031,0.79865
110.16924,0.79607
109.92817,0.78650
109.68710,0.77851
109.44603,0.77892
109.20496,0.77994
108.96389,0.76821
108.72282,0.74359
108.48175,0.72074
108.24068,0.71016
107.99961,0.70791
107.75854,0.70154
107.51747,0.68235
107.27640,0.65650
107.03533,0.63584
106.79426,0.62348
106.55319,0.61385
106.31212,0.60162
106.07104,0.58743
105.82997,0.57558
105.58890,0.56845
105.34783,0.56467
105.10676,0.56159
104.86569,0.55885
104.62462,0.55966
104.38355,0.56576
104.14248,0.57184
103.90141,0.56807
103.66034,0.54944
103.41927,0.52271
103.17820,0.49817
102.93713,0.47862
102.69606,0.46154
102.45499,0.44416
102.21392,0.42421
101.97285,0.39961
101.73177,0.37077
101.49070,0.34278
101.24963,0.32304
101.00856,0.31726
100.76749,0.32701
100.52642,0.34962
100.28535,0.37992
100.04428,0.41094
99.80321,0.43455
99.56214,0.44608
99.32107,0.44631
99.08000,0.43881
98.83893,0.42703
98.59786,0.41171
98.35679,0.39203
98.11572,0.36968
97.87465,0.34977
97.63358,0.33897
97.39250,0.34294
97.15143,0.36463
96.91036,0.40554
96.66929,0.46381
96.42822,0.50930
96.18715,0.48417
95.94608,0.42691
95.70501,0.38264
95.46394,0.36347
95.22287,0.37524
94.98180,0.42314
94.74073,0.50457
94.49966,0.56502
94.25859,0.50961
94.01752,0.43994
93.77645,0.40303
93.53538,0.40220
93.29431,0.43592
93.05323,0.47834
92.81216,0.47017
92.57109,0.42771
92.33002,0.40933
92.08895,0.43766
91.84788,0.49134
91.60681,0.47537
91.36574,0.40908
91.12467,0.38268
90.88360,0.41285
90.64253,0.48364
90.40146,0.54640
90.16039,0.56943
89.91932,0.59939
89.67825,0.64029
89.43718,0.66246
89.19611,0.68073
88.95504,0.72852
88.71396,0.80641
88.47289,0.87026
88.23182,0.88501
87.99075,0.86804
87.74968,0.82159
87.50861,0.76921
87.26754,0.74028
87.02647,0.72388
86.78540,0.68533
86.54433,0.63035
86.30326,0.59522
86.06219,0.57732
85.82112,0.55092
85.58005,0.52138
85.33898,0.49903
85.09791,0.47310
84.85684,0.43991
84.61577,0.41561
84.37469,0.40797
84.13362,0.40776
83.89255,0.40489
83.65148,0.39766
83.41041,0.38590
83.16934,0.37112
82.92827,0.36008
82.68720,0.35487
82.44613,0.34876
82.20506,0.33774
81.96399,0.32726
81.72292,0.32407
81.48185,0.32879
81.24078,0.33638
80.99971,0.33966
80.75864,0.33604
80.51757,0.32991
80.27650,0.32420
80.03542,0.31707
79.79435,0.30968
79.55328,0.30673
79.31221,0.30687
79.07114,0.30415
78.83007,0.29884
78.58900,0.29564
78.34793,0.29472
78.10686,0.29297
77.86579,0.28819
77.62472,0.28015
77.38365,0.27158
77.14258,0.26587
76.90151,0.26296
76.66044,0.26117
76.41937,0.26092
76.17830,0.26311
75.93723,0.26573
75.69615,0.26611
75.45508,0.26528
75.21401,0.26564
74.97294,0.26518
74.73187,0.26141
74.49080,0.26003
74.24973,0.26766
74.00866,0.27739
73.76759,0.27732
73.52652,0.27051
73.28545,0.26793
73.04438,0.27067
72.80331,0.27451
72.56224,0.27770
72.32117,0.27638
72.08010,0.26729
71.83903,0.25930
71.59796,0.26212
71.35688,0.27033
71.11581,0.27257
70.87474,0.27388
70.63367,0.28811
70.39260,0.31002
70.15153,0.31508
69.91046,0.30435
69.66939,0.30437
69.42832,0.32276
69.18725,0.34470
68.94618,0.34853
68.70511,0.33981
68.46404,0.34735
68.22297,0.38314
67.98190,0.41262
67.74083,0.37656
67.49976,0.31755
67.25869,0.28959
67.01761,0.30341
66.77654,0.33684
66.53547,0.33678
66.29440,0.29359
66.05333,0.25441
65.81226,0.24531
65.57119,0.26951
65.33012,0.29509
65.08905,0.26941
64.84798,0.21728
64.60691,0.17872
64.36584,0.17118
64.12477,0.19923
63.88370,0.25887
63.64263,0.34762
63.40156,0.41502
63.16049,0.34504
62.91942,0.25885
62.67834,0.20290
62.43727,0.17369
62.19620,0.17482
61.95513,0.21112
61.71406,0.27626
61.47299,0.33212
61.23192,0.31373
60.99085,0.24876
60.74978,0.18874
60.50871,0.14417
60.26764,0.11386
60.02657,0.09591
59.78550,0.08719
59.54443,0.08347
59.30336,0.08163
59.06229,0.08189
58.82122,0.08704
58.58015,0.10028
58.33907,0.12310
58.09800,0.15345
57.85693,0.18910
57.61586,0.23428
57.37479,0.29654
57.13372,0.37632
56.89265,0.43580
56.65158,0.38808
56.41051,0.34498
56.16944,0.31897
55.92837,0.30732
55.68730,0.31004
55.44623,0.32131
55.20516,0.33788
54.96409,0.35664
54.72302,0.36580
54.48195,0.37271
54.24088,0.39844
53.99980,0.43937
53.75873,0.45456
53.51766,0.42943
53.27659,0.40877
53.03552,0.39875
52.79445,0.40438
52.55338,0.36174
52.31231,0.24471
52.07124,0.12640
51.83017,0.04194
51.58910,-0.00999
51.34803,-0.03988
51.10696,-0.05644
50.86589,-0.06498
50.62482,-0.06911
50.38375,-0.07012
50.14268,-0.06800
49.90161,-0.06472
49.66053,-0.06216
49.41946,-0.05648
49.17839,-0.04001
48.93732,-0.00728
48.69625,0.03908
48.45518,0.07175
48.21411,0.04958
47.97304,-0.01204
47.73197,-0.06587
47.49090,-0.08858
47.24983,-0.08049
47.00876,-0.04569
46.76769,0.02061
46.52662,0.09822
46.28555,0.11715
46.04448,0.09478
45.80341,0.13222
45.56234,0.25560
45.32126,0.31501
45.08019,0.20746
44.83912,0.15601
44.59805,0.22253
44.35698,0.35796
44.11591,0.33363
43.87484,0.26225
43.63377,0.20980
43.39270,0.15017
43.15163,0.12875
42.91056,0.17401
42.66949,0.24067
42.42842,0.26304
42.18735,0.26556
41.94628,0.23297
41.70521,0.15078
41.46414,0.08848
41.22307,0.07892
40.98199,0.10891
40.74092,0.15355
40.49985,0.19928
40.25878,0.23389
40.01771,0.23278
39.77664,0.20526
39.53557,0.19419
39.29450,0.21553
39.05343,0.25055
38.81236,0.27368
38.57129,0.28049
38.33022,0.28802
38.08915,0.30499
37.84808,0.32696
37.60701,0.34463
37.36594,0.34513
37.12487,0.33024
36.88380,0.31439
36.64272,0.30558
36.40165,0.30701
36.16058,0.31503
35.91951,0.31054
35.67844,0.31045
35.43737,0.33705
35.19630,0.35662
34.95523,0.32114
34.71416,0.26700
34.47309,0.23347
34.23202,0.22427
33.99095,0.23553
33.74988,0.26128
33.50881,0.29211
33.26774,0.30876
33.02667,0.29172
32.78560,0.25447
32.54453,0.23114
32.30345,0.23214
32.06238,0.24161
31.82131,0.24328
31.58024,0.23614
31.33917,0.23742
31.09810,0.26425
30.85703,0.30448
30.61596,0.33333
30.37489,0.34930
30.13382,0.35004
29.89275,0.33668
29.65168,0.33266
29.41061,0.34510
29.16954,0.35617
28.92847,0.36466
28.68740,0.38088
28.44633,0.40767
28.20526,0.42041
27.96418,0.37214
27.72311,0.27628
27.48204,0.18339
27.24097,0.15862
26.99990,0.20017
26.75883,0.25582
26.51776,0.27569
26.27669,0.24748
26.03562,0.20936
25.79455,0.15883
25.55348,0.09471
25.31241,0.04957
25.07134,0.04120
24.83027,0.03964
24.58920,0.02383
24.34813,0.01461
24.10706,0.02967
23.86599,0.05829
23.62491,0.07750
23.38384,0.06651
23.14277,0.02992
22.90170,0.00091
22.66063,0.00514
22.41956,0.04066
22.17849,0.08965
21.93742,0.12144
21.69635,0.11127
21.45528,0.07583
21.21421,0.04776
20.97314,0.03638
20.73207,0.03038
20.49100,0.01838
20.24993,0.00889
20.00886,0.02385
19.76779,0.06529
19.52672,0.10494
19.28564,0.13216
19.04457,0.14393
18.80350,0.12413
18.56243,0.08604
18.32136,0.07215
18.08029,0.10549
17.83922,0.17617
17.59815,0.23644
17.35708,0.23047
17.11601,0.16898
16.87494,0.11162
16.63387,0.07647
16.39280,0.03323
16.15173,-0.03509
15.91066,-0.10835
15.66959,-0.14865
15.42852,-0.14654
15.18745,-0.11086
14.94637,-0.04963
14.70530,-0.00175
14.46423,0.00987
14.22316,0.00571
13.98209,0.01175
13.74102,0.03587
13.49995,0.06584
13.25888,0.08238
13.01781,0.05449
12.77674,-0.00488
12.53567,-0.05314
12.29460,-0.07067
12.05353,-0.07640
11.81246,-0.07722
11.57139,-0.07194
11.33032,-0.07342
11.08925,-0.09676
10.84818,-0.13133
10.60710,-0.11943
10.36603,-0.08085
10.12496,-0.02076
9.88389,0.04461
9.64282,0.06734
9.40175,0.01948
9.16068,-0.01579
8.91961,-0.00108
8.67854,0.01831
8.43747,0.04247
8.19640,0.05794
7.95533,0.05524
7.71426,0.06209
7.47319,0.02647
7.23212,-0.04359
6.99105,-0.08689
6.74998,-0.04704
6.50891,0.02556
6.26783,0.07184
6.02676,0.07060
5.78569,0.04829
5.54462,0.03877
5.30355,0.03468
5.06248,0.02903
4.82141,0.03182
4.58034,0.02575
4.33927,0.02363
4.09820,0.04751
3.85713,0.09497
3.61606,0.12997
3.37499,0.09324
3.13392,0.00898
2.89285,-0.07164
2.65178,-0.10853
2.41071,-0.10134
2.16964,-0.07865
1.92856,-0.05306
1.68749,-0.02813
1.44642,-0.00791
1.20535,-0.00160
0.96428,-0.02223
0.72321,-0.08439
0.48214,-0.22138
0.24107,-0.27762
-0.00000,-0.19610
