399.69498,1.84955
399.45391,1.83509
399.21284,1.83394
398.97177,1.86575
398.73070,1.94975
398.48963,2.07884
398.24856,2.18576
398.00749,2.21115
397.76642,2.20744
397.52535,2.20855
397.28428,2.20606
397.04321,2.16177
396.80214,2.04352
396.56107,1.93750
396.32000,1.90957
396.07892,1.96317
395.83785,2.03294
395.59678,2.00984
395.35571,1.96111
395.11464,2.02962
394.87357,2.22165
394.63250,2.24094
394.39143,2.23584
394.15036,2.35926
393.90929,2.33343
393.66822,2.16792
393.42715,2.03453
393.18608,1.96603
392.94501,1.96381
392.70394,1.98106
392.46287,2.01861
392.22180,2.01247
391.98073,1.94300
391.73965,1.90198
391.49858,1.94612
391.25751,2.02459
391.01644,2.08307
390.77537,2.17945
390.53430,2.24402
390.29323,2.18760
390.05216,2.20468
389.81109,2.28557
389.57002,2.14530
389.32895,2.03342
389.08788,2.03071
388.84681,2.00277
388.60574,1.98719
388.36467,2.10295
388.12360,2.28661
387.88253,2.23106
387.64146,2.13638
387.40038,2.08657
387.15931,2.12581
386.91824,2.17379
386.67717,2.08141
386.43610,2.10397
386.19503,2.28754
385.95396,2.23167
385.71289,1.99363
385.47182,1.87667
385.23075,1.95460
384.98968,2.19132
384.74861,2.18202
384.50754,2.05652
384.26647,2.07942
384.02540,2.06560
383.78433,1.96042
383.54326,1.85079
383.30219,1.75086
383.06111,1.69932
382.82004,1.75175
382.57897,1.93691
382.33790,2.08006
382.09683,2.17784
381.85576,1.93464
381.61469,1.81065
381.37362,1.92934
381.13255,2.08870
380.89148,1.92856
380.65041,1.88634
380.40934,1.95081
380.16827,2.01756
379.92720,2.05399
379.68613,2.02500
379.44506,2.14118
379.20399,2.25064
378.96292,2.04887
378.72184,1.95501
378.48077,2.06959
378.23970,2.33414
377.99863,2.02894
377.75756,1.82475
377.51649,1.76261
377.27542,1.82055
377.03435,1.99452
376.79328,2.10665
376.55221,2.15760
376.31114,2.23640
376.07007,2.19050
375.82900,2.10984
375.58793,1.94366
375.34686,1.81147
375.10579,1.80669
374.86472,1.87288
374.62365,1.92329
374.38257,1.92447
374.14150,1.90979
373.90043,1.92059
373.65936,1.96959
373.41829,2.01927
373.17722,2.00839
372.93615,1.94253
372.69508,1.93324
372.45401,2.02382
372.21294,2.08231
371.97187,2.09729
371.73080,2.06082
371.48973,1.98729
371.24866,1.93191
371.00759,1.90468
370.76652,1.90291
370.52545,1.91052
370.28437,1.89856
370.04330,1.89394
369.80223,1.92784
369.56116,1.94066
369.32009,1.88971
369.07902,1.79023
368.83795,1.67403
368.59688,1.59518
368.35581,1.57523
368.11474,1.59956
367.87367,1.63853
367.63260,1.66453
367.39153,1.66790
367.15046,1.65630
366.90939,1.63306
366.66832,1.60897
366.42725,1.60032
366.18618,1.60523
365.94510,1.60996
365.70403,1.60594
365.46296,1.59120
365.22189,1.57739
364.98082,1.58587
364.73975,1.62151
364.49868,1.65453
364.25761,1.64102
364.01654,1.58482
363.77547,1.53044
363.53440,1.50539
363.29333,1.49904
363.05226,1.48753
362.81119,1.47246
362.57012,1.47299
362.32905,1.49121
362.08798,1.50735
361.84691,1.51636
361.60583,1.54111
361.36476,1.58872
361.12369,1.64113
360.88262,1.67408
360.64155,1.69226
360.40048,1.68780
360.15941,1.63179
359.91834,1.56125
359.67727,1.51887
359.43620,1.51135
359.19513,1.51891
358.95406,1.52184
358.71299,1.51992
358.47192,1.52349
358.23085,1.53440
357.98978,1.54416
357.74871,1.54669
357.50764,1.54223
357.26656,1.53974
357.02549,1.53655
356.78442,1.51285
356.54335,1.46966
356.30228,1.43525
356.06121,1.43206
355.82014,1.45653
355.57907,1.48070
355.33800,1.47697
355.09693,1.44642
354.85586,1.41103
354.61479,1.39361
354.37372,1.40629
354.13265,1.43987
353.89158,1.47850
353.65051,1.52281
353.40944,1.57444
353.16837,1.61505
352.92729,1.61863
352.68622,1.59234
352.44515,1.56906
352.20408,1.56546
351.96301,1.57450
351.72194,1.57408
351.48087,1.54650
351.23980,1.50847
350.99873,1.49622
350.75766,1.52161
350.51659,1.55256
350.27552,1.54316
350.03445,1.50492
349.79338,1.49167
349.55231,1.52312
349.31124,1.56800
349.07017,1.58686
348.82910,1.58172
348.58802,1.57417
348.34695,1.57051
348.10588,1.55649
347.86481,1.52364
347.62374,1.48901
347.38267,1.47010
347.14160,1.46964
346.90053,1.48182
346.65946,1.50001
346.41839,1.51568
346.17732,1.52320
345.93625,1.52755
345.69518,1.53473
345.45411,1.53985
345.21304,1.54588
344.97197,1.57325
344.73090,1.62026
344.48983,1.64861
344.24875,1.62803
344.00768,1.58728
343.76661,1.57850
343.52554,1.61045
343.28447,1.63887
343.04340,1.64681
342.80233,1.66339
342.56126,1.69380
342.32019,1.72179
342.07912,1.74153
341.83805,1.75194
341.59698,1.74585
341.35591,1.72094
341.11484,1.69748
340.87377,1.68998
340.63270,1.68886
340.39163,1.68616
340.15056,1.67403
339.90948,1.64368
339.66841,1.60829
339.42734,1.60410
339.18627,1.66153
338.94520,1.77646
338.70413,1.84906
338.46306,1.78021
338.22199,1.69729
337.98092,1.67538
337.73985,1.71224
337.49878,1.78199
337.25771,1.83476
337.01664,1.82098
336.77557,1.77789
336.53450,1.77163
336.29343,1.81756
336.05236,1.88988
335.81129,1.92886
335.57021,1.88240
335.32914,1.79763
335.08807,1.74618
334.84700,1.74872
334.60593,1.78214
334.36486,1.80553
334.12379,1.80807
333.88272,1.81558
333.64165,1.84200
333.40058,1.86336
333.15951,1.85389
332.91844,1.82479
332.67737,1.80677
332.43630,1.82753
332.19523,1.86259
331.95416,1.86445
331.71309,1.83732
331.47202,1.79913
331.23094,1.76528
330.98987,1.75649
330.74880,1.79662
330.50773,1.86374
330.26666,1.86262
330.02559,1.78071
329.78452,1.72212
329.54345,1.73540
329.30238,1.78000
329.06131,1.77838
328.82024,1.73210
328.57917,1.68008
328.33810,1.63486
328.09703,1.62898
327.85596,1.66022
327.61489,1.68313
327.37382,1.68586
327.13275,1.71421
326.89167,1.77049
326.65060,1.79951
326.40953,1.78008
326.16846,1.73918
325.92739,1.69102
325.68632,1.65911
325.44525,1.67097
325.20418,1.69800
324.96311,1.69560
324.72204,1.68375
324.48097,1.66867
324.23990,1.64155
323.99883,1.61211
323.75776,1.60762
323.51669,1.64674
323.27562,1.72102
323.03455,1.78422
322.79348,1.80051
322.55240,1.81149
322.31133,1.86839
322.07026,1.92351
321.82919,1.87526
321.58812,1.77907
321.34705,1.70197
321.10598,1.66734
320.86491,1.67214
320.62384,1.70549
320.38277,1.77965
320.14170,1.89372
319.90063,1.97218
319.65956,1.96387
319.41849,1.88581
319.17742,1.78620
318.93635,1.73212
318.69528,1.74928
318.45421,1.81783
318.21313,1.89386
317.97206,1.93714
317.73099,1.92277
317.48992,1.88034
317.24885,1.86960
317.00778,1.90469
316.76671,1.90278
316.52564,1.90754
316.28457,1.91969
316.04350,1.87635
315.80243,1.81587
315.56136,1.79463
315.32029,1.83324
315.07922,1.93322
314.83815,2.15182
314.59708,2.48612
314.35601,2.30902
314.11494,2.06440
313.87386,2.03459
313.63279,2.09256
313.39172,2.03241
313.15065,1.98438
312.90958,1.98012
312.66851,1.97867
312.42744,1.99912
312.18637,2.12644
311.94530,2.35765
311.70423,2.26935
311.46316,2.18403
311.22209,2.19841
310.98102,2.20212
310.73995,2.27748
310.49888,2.12914
310.25781,1.98416
310.01674,1.93690
309.77567,1.95746
309.53459,2.03385
309.29352,2.16784
309.05245,2.30147
308.81138,2.36564
308.57031,2.20612
308.32924,2.04323
308.08817,1.98575
307.84710,1.97320
307.60603,1.93613
307.36496,1.89317
307.12389,1.90882
306.88282,1.95815
306.64175,1.97976
306.40068,1.95834
306.15961,1.87156
305.91854,1.76413
305.67747,1.68646
305.43640,1.66433
305.19532,1.69275
304.95425,1.71229
304.71318,1.66770
304.47211,1.59857
304.23104,1.56419
303.98997,1.57467
303.74890,1.60088
303.50783,1.60625
303.26676,1.57897
303.02569,1.53088
302.78462,1.48175
302.54355,1.44969
302.30248,1.43937
302.06141,1.44009
301.82034,1.43453
301.57927,1.41540
301.33820,1.39516
301.09713,1.38846
300.85605,1.38883
300.61498,1.37743
300.37391,1.35389
300.13284,1.33771
299.89177,1.34273
299.65070,1.36348
299.40963,1.38241
299.16856,1.38236
298.92749,1.35522
298.68642,1.31306
298.44535,1.27814
298.20428,1.26500
297.96321,1.27281
297.72214,1.28718
297.48107,1.29463
297.24000,1.28930
296.99893,1.26850
296.75786,1.23852
296.51678,1.21534
296.27571,1.21088
296.03464,1.22275
295.79357,1.23529
295.55250,1.23400
295.31143,1.22023
295.07036,1.20625
294.82929,1.20110
294.58822,1.20578
294.34715,1.21725
294.10608,1.22853
293.86501,1.22902
293.62394,1.21609
293.38287,1.19829
293.14180,1.18351
292.90073,1.17216
292.65966,1.16290
292.41859,1.15748
292.17751,1.15583
291.93644,1.15386
291.69537,1.15018
291.45430,1.14819
291.21323,1.15072
290.97216,1.15597
290.73109,1.15925
290.49002,1.15880
290.24895,1.15864
290.00788,1.16236
289.76681,1.16646
289.52574,1.16598
289.28467,1.16240
289.04360,1.15940
288.80253,1.15667
288.56146,1.15098
288.32039,1.14114
288.07932,1.12948
287.83824,1.12026
287.59717,1.11764
287.35610,1.12119
287.11503,1.12375
286.87396,1.11822
286.63289,1.10565
286.39182,1.09354
286.15075,1.08720
285.90968,1.08540
285.66861,1.08488
285.42754,1.08542
285.18647,1.08694
284.94540,1.08795
284.70433,1.09055
284.46326,1.09798
284.22219,1.10543
283.98112,1.10363
283.74005,1.09315
283.49897,1.08272
283.25790,1.07558
283.01683,1.07001
282.77576,1.06736
282.53469,1.07078
282.29362,1.07947
282.05255,1.08935
281.81148,1.09704
281.57041,1.10184
281.32934,1.10423
281.08827,1.10234
280.84720,1.09318
280.60613,1.07840
280.36506,1.06639
280.12399,1.06462
279.88292,1.07135
279.64185,1.07831
279.40078,1.08057
279.15970,1.08044
278.91863,1.08194
278.67756,1.08479
278.43649,1.08514
278.19542,1.08213
277.95435,1.08159
277.71328,1.08824
277.47221,1.09692
277.23114,1.09766
276.99007,1.08804
276.74900,1.07567
276.50793,1.06704
276.26686,1.06158
276.02579,1.05804
275.78472,1.05853
275.54365,1.06363
275.30258,1.06928
275.06151,1.07135
274.82043,1.07031
274.57936,1.06938
274.33829,1.06974
274.09722,1.06996
273.85615,1.06935
273.61508,1.06901
273.37401,1.07024
273.13294,1.07265
272.89187,1.07420
272.65080,1.07327
272.40973,1.06969
272.16866,1.06429
271.92759,1.05894
271.68652,1.05452
271.44545,1.04920
271.20438,1.04167
270.96331,1.03533
270.72224,1.03620
270.48116,1.04642
270.24009,1.06201
269.99902,1.07511
269.75795,1.07889
269.51688,1.07485
269.27581,1.07148
269.03474,1.07445
268.79367,1.08255
268.55260,1.09180
268.31153,1.09963
268.07046,1.10578
267.82939,1.11010
267.58832,1.11062
267.34725,1.10657
267.10618,1.10082
266.86511,1.09696
266.62404,1.09670
266.38297,1.10032
266.14189,1.10862
265.90082,1.12101
265.65975,1.13296
265.41868,1.14103
265.17761,1.14642
264.93654,1.15258
264.69547,1.16124
264.45440,1.17003
264.21333,1.17573
263.97226,1.17860
263.73119,1.18177
263.49012,1.18668
263.24905,1.19046
263.00798,1.19012
262.76691,1.18769
262.52584,1.18984
262.28477,1.20387
262.04370,1.23327
261.80262,1.27280
261.56155,1.30680
261.32048,1.32206
261.07941,1.32293
260.83834,1.32460
260.59727,1.33490
260.35620,1.34712
260.11513,1.35310
259.87406,1.35925
259.63299,1.38011
259.39192,1.41799
259.15085,1.45623
258.90978,1.47371
258.66871,1.46673
258.42764,1.45620
258.18657,1.46601
257.94550,1.49681
257.70443,1.52510
257.46335,1.53767
257.22228,1.55291
256.98121,1.58147
256.74014,1.60820
256.49907,1.62532
256.25800,1.64957
256.01693,1.69139
255.77586,1.73394
255.53479,1.76425
255.29372,1.79873
255.05265,1.84698
254.81158,1.88500
254.57051,1.89249
254.32944,1.87748
254.08837,1.84384
253.84730,1.82066
253.60623,1.84269
253.36516,1.88435
253.12408,1.91455
252.88301,1.93071
252.64194,1.94463
252.40087,1.97344
252.15980,2.01604
251.91873,2.03591
251.67766,2.00201
251.43659,1.94854
251.19552,1.93399
250.95445,1.97919
250.71338,2.06364
250.47231,2.14200
250.23124,2.16189
249.99017,2.12037
249.74910,2.08069
249.50803,2.09495
249.26696,2.16779
249.02589,2.25666
248.78481,2.33872
248.54374,2.46443
248.30267,2.52238
248.06160,2.55566
247.82053,2.39306
247.57946,2.17289
247.33839,2.08829
247.09732,2.06628
246.85625,2.02595
246.61518,1.99705
246.37411,2.02171
246.13304,2.06191
245.89197,2.04273
245.65090,1.98111
245.40983,1.91585
245.16876,1.86751
244.92769,1.85123
244.68661,1.85083
244.44554,1.83009
244.20447,1.76487
243.96340,1.66902
243.72233,1.58164
243.48126,1.52863
243.24019,1.51022
242.99912,1.50434
242.75805,1.48418
242.51698,1.44739
242.27591,1.41158
242.03484,1.38011
241.79377,1.34584
241.55270,1.31131
241.31163,1.28033
241.07056,1.24940
240.82949,1.21576
240.58842,1.18208
240.34734,1.15194
240.10627,1.12536
239.86520,1.09923
239.62413,1.07147
239.38306,1.04381
239.14199,1.01933
238.90092,0.99849
238.65985,0.97934
238.41878,0.96125
238.17771,0.94571
237.93664,0.93411
237.69557,0.92691
237.45450,0.92335
237.21343,0.92059
236.97236,0.91540
236.73129,0.90692
236.49022,0.89549
236.24915,0.88076
236.00807,0.86423
235.76700,0.85004
235.52593,0.84035
235.28486,0.83368
235.04379,0.82943
234.80272,0.82960
234.56165,0.83423
234.32058,0.83904
234.07951,0.83972
233.83844,0.83553
233.59737,0.82769
233.35630,0.81740
233.11523,0.80706
232.87416,0.80067
232.63309,0.79996
232.39202,0.80129
232.15095,0.79882
231.90988,0.79118
231.66880,0.78334
231.42773,0.78018
231.18666,0.78046
230.94559,0.77929
230.70452,0.77520
230.46345,0.77155
230.22238,0.77099
229.98131,0.77139
229.74024,0.76921
229.49917,0.76463
229.25810,0.75996
229.01703,0.75573
228.77596,0.75153
228.53489,0.74799
228.29382,0.74542
228.05275,0.74296
227.81168,0.73948
227.57061,0.73558
227.32953,0.73383
227.08846,0.73636
226.84739,0.74242
226.60632,0.74769
226.36525,0.74754
226.12418,0.74201
225.88311,0.73597
225.64204,0.73340
225.40097,0.73412
225.15990,0.73659
224.91883,0.74046
224.67776,0.74532
224.43669,0.74915
224.19562,0.75130
223.95455,0.75458
223.71348,0.76078
223.47241,0.76621
223.23134,0.76581
222.99026,0.76059
222.74919,0.75600
222.50812,0.75494
222.26705,0.75628
222.02598,0.75838
221.78491,0.76070
221.54384,0.76269
221.30277,0.76425
221.06170,0.76694
220.82063,0.77255
220.57956,0.78052
220.33849,0.78808
220.09742,0.79279
219.85635,0.79517
219.61528,0.79847
219.37421,0.80539
219.13314,0.81581
218.89207,0.82805
218.65099,0.84011
218.40992,0.84932
218.16885,0.85349
217.92778,0.85422
217.68671,0.85737
217.44564,0.86828
217.20457,0.88662
216.96350,0.90654
216.72243,0.92150
216.48136,0.92967
216.24029,0.93542
215.99922,0.94382
215.75815,0.95414
215.51708,0.96067
215.27601,0.96115
215.03494,0.96020
214.79387,0.96244
214.55280,0.96863
214.31172,0.98016
214.07065,0.99895
213.82958,1.02075
213.58851,1.03658
213.34744,1.04219
213.10637,1.04067
212.86530,1.03749
212.62423,1.03663
212.38316,1.03831
212.14209,1.03905
211.90102,1.03828
211.65995,1.04164
211.41888,1.05061
211.17781,1.05725
210.93674,1.05428
210.69567,1.04413
210.45460,1.03394
210.21353,1.02770
209.97245,1.02579
209.73138,1.02753
209.49031,1.03166
209.24924,1.03631
209.00817,1.03990
208.76710,1.04123
208.52603,1.03947
208.28496,1.03550
208.04389,1.03099
207.80282,1.02591
207.56175,1.01865
207.32068,1.00871
207.07961,0.99723
206.83854,0.98485
206.59747,0.97217
206.35640,0.96224
206.11533,0.95842
205.87426,0.95989
205.63318,0.96235
205.39211,0.96218
205.15104,0.95719
204.90997,0.94581
204.66890,0.92978
204.42783,0.91499
204.18676,0.90546
203.94569,0.89809
203.70462,0.88766
203.46355,0.87494
203.22248,0.86513
202.98141,0.85935
202.74034,0.85254
202.49927,0.84142
202.25820,0.82970
202.01713,0.82145
201.77606,0.81545
201.53499,0.80910
201.29391,0.80224
201.05284,0.79493
200.81177,0.78613
200.57070,0.77580
200.32963,0.76463
200.08856,0.75246
199.84749,0.74031
199.60642,0.73139
199.36535,0.72732
199.12428,0.72567
198.88321,0.72243
198.64214,0.71524
198.40107,0.70413
198.16000,0.69067
197.91893,0.67635
197.67786,0.66193
197.43679,0.64871
197.19572,0.63948
196.95464,0.63617
196.71357,0.63694
196.47250,0.63728
196.23143,0.63457
195.99036,0.63015
195.74929,0.62633
195.50822,0.62314
195.26715,0.61844
195.02608,0.61018
194.78501,0.59885
194.54394,0.58796
194.30287,0.58113
194.06180,0.57821
193.82073,0.57604
193.57966,0.57265
193.33859,0.56842
193.09752,0.56372
192.85645,0.55839
192.61537,0.55311
192.37430,0.54888
192.13323,0.54587
191.89216,0.54365
191.65109,0.54179
191.41002,0.53973
191.16895,0.53699
190.92788,0.53371
190.68681,0.53069
190.44574,0.52822
190.20467,0.52546
189.96360,0.52180
189.72253,0.51836
189.48146,0.51678
189.24039,0.51678
188.99932,0.51640
188.75825,0.51450
188.51718,0.51172
188.27610,0.50927
188.03503,0.50786
187.79396,0.50745
187.55289,0.50706
187.31182,0.50535
187.07075,0.50226
186.82968,0.49933
186.58861,0.49759
186.34754,0.49641
186.10647,0.49550
185.86540,0.49600
185.62433,0.49810
185.38326,0.49969
185.14219,0.49900
184.90112,0.49714
184.66005,0.49620
184.41898,0.49657
184.17791,0.49767
183.93683,0.49964
183.69576,0.50285
183.45469,0.50649
183.21362,0.50930
182.97255,0.51065
182.73148,0.51009
182.49041,0.50767
182.24934,0.50507
182.00827,0.50429
181.76720,0.50495
181.52613,0.50507
181.28506,0.50462
181.04399,0.50556
180.80292,0.50820
180.56185,0.51049
180.32078,0.51141
180.07971,0.51264
179.83864,0.51613
179.59756,0.52187
179.35649,0.52827
179.11542,0.53326
178.87435,0.53584
178.63328,0.53792
178.39221,0.54318
178.15114,0.55354
177.91007,0.56773
177.66900,0.58241
177.42793,0.59341
177.18686,0.59867
176.94579,0.60083
176.70472,0.60492
176.46365,0.61331
176.22258,0.62410
175.98151,0.63537
175.74044,0.64892
175.49937,0.66642
175.25829,0.68474
175.01722,0.69948
174.77615,0.71110
174.53508,0.72355
174.29401,0.73855
174.05294,0.75424
173.81187,0.76783
173.57080,0.77799
173.32973,0.78604
173.08866,0.79420
172.84759,0.80238
172.60652,0.80864
172.36545,0.81279
172.12438,0.81695
171.88331,0.82255
171.64224,0.82787
171.40117,0.82904
171.16010,0.82382
170.91902,0.81394
170.67795,0.80349
170.43688,0.79632
170.19581,0.79419
169.95474,0.79534
169.71367,0.79556
169.47260,0.79312
169.23153,0.79071
168.99046,0.79043
168.74939,0.79042
168.50832,0.78851
168.26725,0.78453
168.02618,0.77792
167.78511,0.76827
167.54404,0.75926
167.30297,0.75739
167.06190,0.76511
166.82083,0.77766
166.57975,0.78730
166.33868,0.79029
166.09761,0.78867
165.85654,0.78706
165.61547,0.78901
165.37440,0.79449
165.13333,0.79948
164.89226,0.80041
164.65119,0.79907
164.41012,0.80041
164.16905,0.80658
163.92798,0.81564
163.68691,0.82433
163.44584,0.83065
163.20477,0.83503
162.96370,0.84042
162.72263,0.84865
162.48156,0.85662
162.24048,0.85954
161.99941,0.85713
161.75834,0.85311
161.51727,0.85101
161.27620,0.85334
161.03513,0.86025
160.79406,0.86665
160.55299,0.86598
160.31192,0.85875
160.07085,0.85224
159.82978,0.85119
159.58871,0.85301
159.34764,0.85294
159.10657,0.85079
158.86550,0.84939
158.62443,0.84833
158.38336,0.84513
158.14229,0.84082
157.90121,0.83718
157.66014,0.83106
157.41907,0.81945
157.17800,0.80652
156.93693,0.79880
156.69586,0.79752
156.45479,0.79925
156.21372,0.80078
155.97265,0.80014
155.73158,0.79557
155.49051,0.78762
155.24944,0.78025
155.00837,0.77630
154.76730,0.77312
154.52623,0.76559
154.28516,0.75274
154.04409,0.73834
153.80302,0.72584
153.56194,0.71583
153.32087,0.70693
153.07980,0.69682
152.83873,0.68378
152.59766,0.66867
152.35659,0.65434
152.11552,0.64236
151.87445,0.63149
151.63338,0.61957
151.39231,0.60630
151.15124,0.59334
150.91017,0.58144
150.66910,0.56927
150.42803,0.55669
150.18696,0.54648
149.94589,0.54040
149.70482,0.53586
149.46375,0.52894
149.22267,0.51935
148.98160,0.51044
148.74053,0.50479
148.49946,0.50128
148.25839,0.49715
148.01732,0.49191
147.77625,0.48743
147.53518,0.48499
147.29411,0.48418
147.05304,0.48366
146.81197,0.48207
146.57090,0.47961
146.32983,0.47852
146.08876,0.48050
145.84769,0.48439
145.60662,0.48800
145.36555,0.49077
145.12448,0.49386
144.88340,0.49852
144.64233,0.50484
144.40126,0.51148
144.16019,0.51672
143.91912,0.51976
143.67805,0.52060
143.43698,0.51939
143.19591,0.51660
142.95484,0.51319
142.71377,0.50928
142.47270,0.50315
142.23163,0.49385
141.99056,0.48383
141.74949,0.47631
141.50842,0.47083
141.26735,0.46484
141.02628,0.45808
140.78521,0.45254
140.54413,0.44919
140.30306,0.44735
140.06199,0.44612
139.82092,0.44537
139.57985,0.44548
139.33878,0.44652
139.09771,0.44813
138.85664,0.45094
138.61557,0.45629
138.37450,0.46349
138.13343,0.46955
137.89236,0.47324
137.65129,0.47735
137.41022,0.48569
137.16915,0.49898
136.92808,0.51428
136.68701,0.52817
136.44594,0.54048
136.20486,0.55409
135.96379,0.57162
135.72272,0.59312
135.48165,0.61634
135.24058,0.63830
134.99951,0.65829
134.75844,0.67923
134.51737,0.70463
134.27630,0.73479
134.03523,0.76648
133.79416,0.79459
133.55309,0.81571
133.31202,0.83278
133.07095,0.85320
132.82988,0.88040
132.58881,0.90985
132.34774,0.93352
132.10667,0.94583
131.86559,0.94607
131.62452,0.93861
131.38345,0.93044
131.14238,0.92409
130.90131,0.91542
130.66024,0.90142
130.41917,0.88536
130.17810,0.87146
129.93703,0.85958
129.69596,0.84738
129.45489,0.83332
129.21382,0.81534
128.97275,0.78996
128.73168,0.75688
128.49061,0.72246
128.24954,0.69304
128.00847,0.66842
127.76740,0.64472
127.52632,0.62098
127.28525,0.60021
127.04418,0.58428
126.80311,0.57118
126.56204,0.55767
126.32097,0.54203
126.07990,0.52411
125.83883,0.50537
125.59776,0.48822
125.35669,0.47395
125.11562,0.46206
124.87455,0.45188
124.63348,0.44311
124.39241,0.43465
124.15134,0.42520
123.91027,0.41553
123.66920,0.40816
123.42812,0.40431
123.18705,0.40224
122.94598,0.39955
122.70491,0.39585
122.46384,0.39278
122.22277,0.39179
121.98170,0.39180
121.74063,0.38925
121.49956,0.38204
121.25849,0.37326
121.01742,0.36883
120.77635,0.37196
120.53528,0.38114
120.29421,0.39300
120.05314,0.40535
119.81207,0.41754
119.57100,0.42918
119.32993,0.44002
119.08885,0.45193
118.84778,0.46923
118.60671,0.49476
118.36564,0.52557
118.12457,0.55426
117.88350,0.57612
117.64243,0.59323
117.40136,0.60959
117.16029,0.62519
116.91922,0.63784
116.67815,0.64737
116.43708,0.65355
116.19601,0.65190
115.95494,0.63855
115.71387,0.61870
115.47280,0.60261
115.23173,0.59354
114.99066,0.58506
114.74958,0.57128
114.50851,0.55497
114.26744,0.54324
114.02637,0.53903
113.78530,0.53938
113.54423,0.53995
113.30316,0.53970
113.06209,0.54057
112.82102,0.54341
112.57995,0.54697
112.33888,0.55064
112.09781,0.55507
111.85674,0.55937
111.61567,0.56125
111.37460,0.56017
111.13353,0.55780
110.89246,0.55575
110.65139,0.55455
110.41031,0.55432
110.16924,0.55411
109.92817,0.55109
109.68710,0.54397
109.44603,0.53469
109.20496,0.52469
108.96389,0.51323
108.72282,0.49935
108.48175,0.48354
108.24068,0.46833
107.99961,0.45650
107.75854,0.44757
107.51747,0.43830
107.27640,0.42762
107.03533,0.41726
106.79426,0.40700
106.55319,0.39420
106.31212,0.37838
106.07104,0.36229
105.82997,0.34859
105.58890,0.33820
105.34783,0.33107
105.10676,0.32598
104.86569,0.32052
104.62462,0.31337
104.38355,0.30540
104.14248,0.29742
103.90141,0.28860
103.66034,0.27879
103.41927,0.26995
103.17820,0.26410
102.93713,0.26117
102.69606,0.25900
102.45499,0.25508
102.21392,0.24896
101.97285,0.24255
101.73177,0.23760
101.49070,0.23383
101.24963,0.22988
101.00856,0.22466
100.76749,0.21816
100.52642,0.21258
100.28535,0.21110
100.04428,0.21358
99.80321,0.21555
99.56214,0.21330
99.32107,0.20781
99.08000,0.20264
98.83893,0.19962
98.59786,0.19817
98.35679,0.19744
98.11572,0.19749
97.87465,0.19876
97.63358,0.20150
97.39250,0.20546
97.15143,0.20956
96.91036,0.21277
96.66929,0.21569
96.42822,0.21947
96.18715,0.22345
95.94608,0.22599
95.70501,0.22785
95.46394,0.23177
95.22287,0.23855
94.98180,0.24543
94.74073,0.24874
94.49966,0.24760
94.25859,0.24461
94.01752,0.24337
93.77645,0.24549
93.53538,0.25000
93.29431,0.25447
93.05323,0.25653
92.81216,0.25524
92.57109,0.25130
92.33002,0.24634
92.08895,0.24291
91.84788,0.24385
91.60681,0.24982
91.36574,0.25868
91.12467,0.26812
90.88360,0.27825
90.64253,0.29132
90.40146,0.30971
90.16039,0.33424
89.91932,0.36364
89.67825,0.39565
89.43718,0.42898
89.19611,0.46342
88.95504,0.49756
88.71396,0.52731
88.47289,0.54752
88.23182,0.55516
87.99075,0.55040
87.74968,0.53552
87.50861,0.51342
87.26754,0.48724
87.02647,0.45958
86.78540,0.43159
86.54433,0.40349
86.30326,0.37579
86.06219,0.34986
85.82112,0.32768
85.58005,0.31029
85.33898,0.29598
85.09791,0.28152
84.85684,0.26548
84.61577,0.24909
84.37469,0.23439
84.13362,0.22261
83.89255,0.21365
83.65148,0.20610
83.41041,0.19807
83.16934,0.18872
82.92827,0.17924
82.68720,0.17168
82.44613,0.16668
82.20506,0.16303
81.96399,0.15950
81.72292,0.15594
81.48185,0.15267
81.24078,0.14954
80.99971,0.14601
80.75864,0.14200
80.51757,0.13827
80.27650,0.13548
80.03542,0.13322
79.79435,0.13091
79.55328,0.12870
79.31221,0.12706
79.07114,0.12624
78.83007,0.12647
78.58900,0.12708
78.34793,0.12593
78.10686,0.12157
77.86579,0.11570
77.62472,0.11198
77.38365,0.11227
77.14258,0.11503
76.90151,0.11743
76.66044,0.11805
76.41937,0.11683
76.17830,0.11384
75.93723,0.10933
75.69615,0.10429
75.45508,0.10004
75.21401,0.09757
74.97294,0.09744
74.73187,0.09971
74.49080,0.10334
74.24973,0.10649
74.00866,0.10839
73.76759,0.10939
73.52652,0.10886
73.28545,0.10560
73.04438,0.10113
72.80331,0.09902
72.56224,0.10019
72.32117,0.10167
72.08010,0.10067
71.83903,0.09785
71.59796,0.09576
71.35688,0.09538
71.11581,0.09570
70.87474,0.09625
70.63367,0.09800
70.39260,0.10217
70.15153,0.10958
69.91046,0.12041
69.66939,0.13325
69.42832,0.14503
69.18725,0.15306
68.94618,0.15602
68.70511,0.15348
68.46404,0.14622
68.22297,0.13622
67.98190,0.12590
67.74083,0.11710
67.49976,0.11018
67.25869,0.10407
67.01761,0.09778
66.77654,0.09165
66.53547,0.08693
66.29440,0.08449
66.05333,0.08364
65.81226,0.08242
65.57119,0.07952
65.33012,0.07590
65.08905,0.07434
64.84798,0.07744
64.60691,0.08575
64.36584,0.09714
64.12477,0.10810
63.88370,0.11587
63.64263,0.11956
63.40156,0.11997
63.16049,0.11832
62.91942,0.11500
62.67834,0.10991
62.43727,0.10401
62.19620,0.09921
61.95513,0.09598
61.71406,0.09235
61.47299,0.08629
61.23192,0.07851
60.99085,0.07201
60.74978,0.06858
60.50871,0.06755
60.26764,0.06801
60.02657,0.06961
59.78550,0.07097
59.54443,0.07014
59.30336,0.06724
59.06229,0.06442
58.82122,0.06286
58.58015,0.06112
58.33907,0.05710
58.09800,0.05182
57.85693,0.04909
57.61586,0.04989
57.37479,0.05096
57.13372,0.05053
56.89265,0.05094
56.65158,0.05305
56.41051,0.05310
56.16944,0.04785
55.92837,0.03953
55.68730,0.03368
55.44623,0.03312
55.20516,0.03578
54.96409,0.03838
54.72302,0.04028
54.48195,0.04248
54.24088,0.04487
53.99980,0.04581
53.75873,0.04371
53.51766,0.03936
53.27659,0.03689
53.03552,0.03959
52.79445,0.04569
52.55338,0.05126
52.31231,0.05540
52.07124,0.05830
51.83017,0.05811
51.58910,0.05373
51.34803,0.04792
51.10696,0.04510
50.86589,0.04676
50.62482,0.04992
50.38375,0.05033
50.14268,0.04707
49.90161,0.04339
49.66053,0.04274
49.41946,0.04464
49.17839,0.04524
48.93732,0.04190
48.69625,0.03525
48.45518,0.02712
48.21411,0.01933
47.97304,0.01510
47.73197,0.01754
47.49090,0.02475
47.24983,0.02993
47.00876,0.02796
46.76769,0.01955
46.52662,0.00924
46.28555,0.00088
46.04448,-0.00475
45.80341,-0.00949
45.56234,-0.01570
45.32126,-0.02269
45.08019,-0.02699
44.83912,-0.02819
44.59805,-0.03030
44.35698,-0.03428
44.11591,-0.03569
43.87484,-0.03271
43.63377,-0.02956
43.39270,-0.03072
43.15163,-0.03693
42.91056,-0.04406
42.66949,-0.04458
42.42842,-0.03499
42.18735,-0.02156
41.94628,-0.01548
41.70521,-0.02135
41.46414,-0.03281
41.22307,-0.04170
40.98199,-0.04634
40.74092,-0.04710
40.49985,-0.04000
40.25878,-0.02306
40.01771,-0.00519
39.77664,0.00173
39.53557,-0.00285
39.29450,-0.00769
39.05343,-0.00285
38.81236,0.00726
38.57129,0.00852
38.33022,-0.00436
38.08915,-0.01717
37.84808,-0.01086
37.60701,0.00823
37.36594,0.01355
37.12487,-0.00168
36.88380,-0.01691
36.64272,-0.01383
36.40165,0.00125
36.16058,0.00769
35.91951,-0.00127
35.67844,-0.00910
35.43737,-0.00259
35.19630,0.00525
34.95523,-0.00516
34.71416,-0.03195
34.47309,-0.05369
34.23202,-0.05581
33.99095,-0.04709
33.74988,-0.04366
33.50881,-0.05284
33.26774,-0.06557
33.02667,-0.05559
32.78560,-0.00971
32.54453,0.04534
32.30345,0.06622
32.06238,0.03966
31.82131,-0.00456
31.58024,-0.03512
31.33917,-0.04470
31.09810,-0.04019
30.85703,-0.02693
30.61596,-0.00368
30.37489,0.02693
30.13382,0.05267
29.89275,0.06916
29.65168,0.08956
29.41061,0.12192
29.16954,0.14956
28.92847,0.14461
28.68740,0.09834
28.44633,0.03132
28.20526,-0.02578
27.96418,-0.04719
27.72311,-0.02306
27.48204,0.02686
27.24097,0.07052
26.99990,0.09362
26.75883,0.10401
26.51776,0.10978
26.27669,0.10024
26.03562,0.06392
25.79455,0.01784
25.55348,0.00024
25.31241,0.01336
25.07134,0.02005
24.83027,0.02645
24.58920,0.05173
24.34813,0.13353
24.10706,0.18500
23.86599,0.15321
23.62491,0.08943
23.38384,0.06652
23.14277,0.08316
22.90170,0.15373
22.66063,0.26892
22.41956,0.34114
22.17849,0.34331
21.93742,0.29251
21.69635,0.25327
21.45528,0.27117
21.21421,0.30905
20.97314,0.37340
20.73207,0.49594
20.49100,0.61057
20.24993,0.65816
20.00886,0.63399
19.76779,0.61010
19.52672,0.61596
19.28564,0.63351
19.04457,0.67530
18.80350,0.84635
18.56243,1.07774
18.32136,0.82778
18.08029,0.64574
17.83922,0.61109
17.59815,0.61464
17.35708,0.64369
17.11601,0.69102
16.87494,0.79193
16.63387,0.93329
16.39280,1.00248
16.15173,0.90436
15.91066,0.76054
15.66959,0.71952
15.42852,0.81007
15.18745,0.95708
14.94637,0.98933
14.70530,0.92638
14.46423,0.82936
14.22316,0.68797
13.98209,0.64900
13.74102,0.71314
13.49995,0.80664
13.25888,0.98905
13.01781,1.13926
12.77674,0.95605
12.53567,0.88640
12.29460,0.97505
12.05353,0.83663
11.81246,0.70126
11.57139,0.67814
11.33032,0.78048
11.08925,0.73475
10.84818,0.67741
10.60710,0.62984
10.36603,0.68808
10.12496,0.83709
9.88389,0.84207
9.64282,0.75146
9.40175,0.72278
9.16068,0.59281
8.91961,0.51868
8.67854,0.53592
8.43747,0.65339
8.19640,0.79298
7.95533,0.83106
7.71426,0.82399
7.47319,0.91539
7.23212,1.11389
6.99105,1.04352
6.74998,0.74886
6.50891,0.61298
6.26783,0.65040
6.02676,0.68847
5.78569,0.64584
5.54462,0.59075
5.30355,0.49782
5.06248,0.46144
4.82141,0.53091
4.58034,0.63590
4.33927,0.72613
4.09820,0.88972
3.85713,0.76332
3.61606,0.54295
3.37499,0.47294
3.13392,0.55756
2.89285,0.68597
2.65178,0.75200
2.41071,0.83557
2.16964,0.91486
1.92856,0.96520
1.68749,0.90563
1.44642,0.81153
1.20535,0.80009
0.96428,0.75280
0.72321,0.70121
0.48214,0.67526
0.24107,0.80184
-0.00000,0.63891
