399.69498,1.56024
399.45391,1.55484
399.21284,1.56335
398.97177,1.57272
398.73070,1.56365
398.48963,1.53923
398.24856,1.51537
398.00749,1.49983
397.76642,1.48928
397.52535,1.47904
397.28428,1.47226
397.04321,1.47597
396.80214,1.49204
396.56107,1.51288
396.32000,1.52623
396.07892,1.52641
395.83785,1.51561
395.59678,1.49928
395.35571,1.48510
395.11464,1.48192
394.87357,1.49425
394.63250,1.51518
394.39143,1.52762
394.15036,1.51840
393.90929,1.49476
393.66822,1.47609
393.42715,1.47489
393.18608,1.48995
392.94501,1.50695
392.70394,1.51314
392.46287,1.50898
392.22180,1.49469
391.98073,1.47212
391.73965,1.45080
391.49858,1.44247
391.25751,1.45404
391.01644,1.47939
390.77537,1.50252
390.53430,1.51247
390.29323,1.51197
390.05216,1.50912
389.81109,1.50319
389.57002,1.49361
389.32895,1.48601
389.08788,1.48084
388.84681,1.48066
388.60574,1.49079
388.36467,1.50928
388.12360,1.52039
387.88253,1.50673
387.64146,1.47555
387.40038,1.45282
387.15931,1.45059
386.91824,1.45706
386.67717,1.45500
386.43610,1.44074
386.19503,1.42368
385.95396,1.40912
385.71289,1.39222
385.47182,1.37116
385.23075,1.35574
384.98968,1.35505
384.74861,1.36200
384.50754,1.35964
384.26647,1.34406
384.02540,1.32759
383.78433,1.31752
383.54326,1.30898
383.30219,1.29518
383.06111,1.27372
382.82004,1.24987
382.57897,1.23628
382.33790,1.24099
382.09683,1.25433
381.85576,1.25702
381.61469,1.24646
381.37362,1.23588
381.13255,1.23503
380.89148,1.24332
380.65041,1.25287
380.40934,1.25899
380.16827,1.26432
379.92720,1.27099
379.68613,1.27460
379.44506,1.27049
379.20399,1.26310
378.96292,1.26245
378.72184,1.27321
378.48077,1.28954
378.23970,1.30142
377.99863,1.30578
377.75756,1.30658
377.51649,1.30350
377.27542,1.29530
377.03435,1.29482
376.79328,1.31634
376.55221,1.35297
376.31114,1.37972
376.07007,1.38374
375.82900,1.37814
375.58793,1.37895
375.34686,1.39052
375.10579,1.41073
374.86472,1.42796
374.62365,1.42222
374.38257,1.39638
374.14150,1.37895
373.90043,1.38549
373.65936,1.40345
373.41829,1.41283
373.17722,1.41313
372.93615,1.41672
372.69508,1.42578
372.45401,1.43087
372.21294,1.42393
371.97187,1.40746
371.73080,1.38924
371.48973,1.37115
371.24866,1.35393
371.00759,1.34546
370.76652,1.35028
370.52545,1.35951
370.28437,1.36075
370.04330,1.35269
369.80223,1.34153
369.56116,1.33119
369.32009,1.32305
369.07902,1.31733
368.83795,1.31245
368.59688,1.30803
368.35581,1.30758
368.11474,1.31319
367.87367,1.31940
367.63260,1.31921
367.39153,1.31542
367.15046,1.31614
366.90939,1.32137
366.66832,1.32400
366.42725,1.31970
366.18618,1.31118
365.94510,1.30378
365.70403,1.30062
365.46296,1.30193
365.22189,1.30457
364.98082,1.30421
364.73975,1.29941
364.49868,1.29099
364.25761,1.28141
364.01654,1.27609
363.77547,1.27869
363.53440,1.28410
363.29333,1.28225
363.05226,1.26933
362.81119,1.25180
362.57012,1.24023
362.32905,1.24065
362.08798,1.25149
361.84691,1.26668
361.60583,1.27981
361.36476,1.28673
361.12369,1.28765
360.88262,1.28614
360.64155,1.28286
360.40048,1.27464
360.15941,1.26394
359.91834,1.25932
359.67727,1.26257
359.43620,1.26662
359.19513,1.26707
358.95406,1.26561
358.71299,1.26495
358.47192,1.26486
358.23085,1.26177
357.98978,1.25289
357.74871,1.24031
357.50764,1.22998
357.26656,1.22724
357.02549,1.23203
356.78442,1.23963
356.54335,1.24642
356.30228,1.25290
356.06121,1.26108
355.82014,1.26937
355.57907,1.27223
355.33800,1.26597
355.09693,1.25300
354.85586,1.24008
354.61479,1.23214
354.37372,1.22840
354.13265,1.22645
353.89158,1.22795
353.65051,1.23449
353.40944,1.24085
353.16837,1.24129
352.92729,1.23917
352.68622,1.23970
352.44515,1.23904
352.20408,1.23148
351.96301,1.22062
351.72194,1.21360
351.48087,1.21203
351.23980,1.21319
350.99873,1.21407
350.75766,1.21365
350.51659,1.21393
350.27552,1.21758
350.03445,1.22378
349.79338,1.22919
349.55231,1.23331
349.31124,1.23845
349.07017,1.24587
348.82910,1.25319
348.58802,1.25578
348.34695,1.25441
348.10588,1.25556
347.86481,1.26076
347.62374,1.26522
347.38267,1.26775
347.14160,1.27239
346.90053,1.27926
346.65946,1.28202
346.41839,1.27542
346.17732,1.26286
345.93625,1.25428
345.69518,1.25626
345.45411,1.26535
345.21304,1.27167
344.97197,1.27190
344.73090,1.27360
344.48983,1.28325
344.24875,1.29921
344.00768,1.31442
343.76661,1.32230
343.52554,1.31955
343.28447,1.30652
343.04340,1.28946
342.80233,1.27720
342.56126,1.27448
342.32019,1.28180
342.07912,1.29734
341.83805,1.31533
341.59698,1.32678
341.35591,1.32831
341.11484,1.32612
340.87377,1.32690
340.63270,1.33338
340.39163,1.34615
340.15056,1.36154
339.90948,1.37062
339.66841,1.36732
339.42734,1.35705
339.18627,1.35116
338.94520,1.35339
338.70413,1.35623
338.46306,1.35475
338.22199,1.35657
337.98092,1.36876
337.73985,1.38384
337.49878,1.38940
337.25771,1.38571
337.01664,1.38101
336.77557,1.37699
336.53450,1.37156
336.29343,1.36764
336.05236,1.36935
335.81129,1.37454
335.57021,1.37674
335.32914,1.37112
335.08807,1.35669
334.84700,1.33682
334.60593,1.31995
334.36486,1.31451
334.12379,1.32022
333.88272,1.32858
333.64165,1.32973
333.40058,1.31799
333.15951,1.29802
332.91844,1.28397
332.67737,1.28560
332.43630,1.29734
332.19523,1.30437
331.95416,1.29981
331.71309,1.29065
331.47202,1.28584
331.23094,1.28283
330.98987,1.27268
330.74880,1.25613
330.50773,1.24421
330.26666,1.24515
330.02559,1.25745
329.78452,1.27251
329.54345,1.28343
329.30238,1.29098
329.06131,1.29668
328.82024,1.29707
328.57917,1.28787
328.33810,1.26799
328.09703,1.24569
327.85596,1.23433
327.61489,1.24021
327.37382,1.25707
327.13275,1.26890
326.89167,1.26490
326.65060,1.25373
326.40953,1.25171
326.16846,1.25892
325.92739,1.26315
325.68632,1.26307
325.44525,1.26932
325.20418,1.28295
324.96311,1.29289
324.72204,1.29575
324.48097,1.29791
324.23990,1.29678
323.99883,1.28491
323.75776,1.26948
323.51669,1.26502
323.27562,1.26981
323.03455,1.26710
322.79348,1.25355
322.55240,1.24653
322.31133,1.25858
322.07026,1.28433
321.82919,1.31089
321.58812,1.32782
321.34705,1.32758
321.10598,1.30975
320.86491,1.28296
320.62384,1.25854
320.38277,1.24515
320.14170,1.24723
319.90063,1.26554
319.65956,1.29406
319.41849,1.31535
319.17742,1.31038
318.93635,1.28044
318.69528,1.24701
318.45421,1.22998
318.21313,1.23834
317.97206,1.26917
317.73099,1.30589
317.48992,1.32857
317.24885,1.32973
317.00778,1.31784
316.76671,1.31408
316.52564,1.33383
316.28457,1.36378
316.04350,1.36995
315.80243,1.34152
315.56136,1.30553
315.32029,1.29079
315.07922,1.30201
314.83815,1.32129
314.59708,1.32769
314.35601,1.31413
314.11494,1.28637
313.87386,1.25786
313.63279,1.24253
313.39172,1.24742
313.15065,1.27076
312.90958,1.30206
312.66851,1.32348
312.42744,1.32234
312.18637,1.30429
311.94530,1.28733
311.70423,1.28602
311.46316,1.30140
311.22209,1.32110
310.98102,1.32902
310.73995,1.32228
310.49888,1.31564
310.25781,1.32278
310.01674,1.34003
309.77567,1.35153
309.53459,1.34848
309.29352,1.33540
309.05245,1.32121
308.81138,1.31474
308.57031,1.32026
308.32924,1.33442
308.08817,1.35043
307.84710,1.36305
307.60603,1.36963
307.36496,1.37031
307.12389,1.36570
306.88282,1.35380
306.64175,1.33578
306.40068,1.32108
306.15961,1.31639
305.91854,1.32003
305.67747,1.32851
305.43640,1.33705
305.19532,1.33837
304.95425,1.33115
304.71318,1.32287
304.47211,1.32013
304.23104,1.32203
303.98997,1.32234
303.74890,1.31771
303.50783,1.31032
303.26676,1.30328
303.02569,1.29794
302.78462,1.29514
302.54355,1.29529
302.30248,1.29684
302.06141,1.29811
301.82034,1.29883
301.57927,1.29745
301.33820,1.29248
301.09713,1.28680
300.85605,1.28314
300.61498,1.27785
300.37391,1.26714
300.13284,1.25568
299.89177,1.25230
299.65070,1.25983
299.40963,1.27066
299.16856,1.27202
298.92749,1.26019
298.68642,1.24566
298.44535,1.23946
298.20428,1.24106
297.96321,1.24164
297.72214,1.23615
297.48107,1.22802
297.24000,1.22342
296.99893,1.22360
296.75786,1.22189
296.51678,1.21104
296.27571,1.19554
296.03464,1.18795
295.79357,1.19330
295.55250,1.20348
295.31143,1.20620
295.07036,1.19819
294.82929,1.18760
294.58822,1.18373
294.34715,1.18786
294.10608,1.19365
293.86501,1.19351
293.62394,1.18631
293.38287,1.17792
293.14180,1.17250
292.90073,1.16809
292.65966,1.16174
292.41859,1.15469
292.17751,1.15134
291.93644,1.15462
291.69537,1.16240
291.45430,1.16733
291.21323,1.16309
290.97216,1.15136
290.73109,1.13953
290.49002,1.13311
290.24895,1.13125
290.00788,1.12928
289.76681,1.12643
289.52574,1.12767
289.28467,1.13494
289.04360,1.14148
288.80253,1.14024
288.56146,1.13359
288.32039,1.12789
288.07932,1.12417
287.83824,1.12034
287.59717,1.11831
287.35610,1.12152
287.11503,1.12757
286.87396,1.13063
286.63289,1.12945
286.39182,1.12703
286.15075,1.12378
285.90968,1.11774
285.66861,1.11001
285.42754,1.10428
285.18647,1.10260
284.94540,1.10400
284.70433,1.10593
284.46326,1.10685
284.22219,1.10783
283.98112,1.11073
283.74005,1.11433
283.49897,1.11441
283.25790,1.10844
283.01683,1.09856
282.77576,1.08998
282.53469,1.08732
282.29362,1.09179
282.05255,1.10104
281.81148,1.11127
281.57041,1.11881
281.32934,1.12177
281.08827,1.12162
280.84720,1.12125
280.60613,1.12040
280.36506,1.11577
280.12399,1.10805
279.88292,1.10324
279.64185,1.10366
279.40078,1.10500
279.15970,1.10432
278.91863,1.10371
278.67756,1.10480
278.43649,1.10682
278.19542,1.11002
277.95435,1.11451
277.71328,1.11755
277.47221,1.11698
277.23114,1.11421
276.99007,1.11193
276.74900,1.11207
276.50793,1.11498
276.26686,1.11801
276.02579,1.11667
275.78472,1.11014
275.54365,1.10372
275.30258,1.10345
275.06151,1.11001
274.82043,1.11849
274.57936,1.12401
274.33829,1.12656
274.09722,1.12914
273.85615,1.13264
273.61508,1.13530
273.37401,1.13588
273.13294,1.13483
272.89187,1.13312
272.65080,1.13130
272.40973,1.13002
272.16866,1.13034
271.92759,1.13285
271.68652,1.13646
271.44545,1.13978
271.20438,1.14302
270.96331,1.14712
270.72224,1.15150
270.48116,1.15430
270.24009,1.15461
269.99902,1.15350
269.75795,1.15275
269.51688,1.15335
269.27581,1.15595
269.03474,1.16095
268.79367,1.16703
268.55260,1.17181
268.31153,1.17538
268.07046,1.17977
267.82939,1.18468
267.58832,1.18807
267.34725,1.19085
267.10618,1.19637
266.86511,1.20613
266.62404,1.21867
266.38297,1.22960
266.14189,1.23325
265.90082,1.22797
265.65975,1.21981
265.41868,1.21805
265.17761,1.22682
264.93654,1.24244
264.69547,1.25813
264.45440,1.27006
264.21333,1.27858
263.97226,1.28586
263.73119,1.29485
263.49012,1.30786
263.24905,1.32372
263.00798,1.33719
262.76691,1.34448
262.52584,1.34899
262.28477,1.35886
262.04370,1.37994
261.80262,1.40996
261.56155,1.43950
261.32048,1.45938
261.07941,1.46881
260.83834,1.47384
260.59727,1.47914
260.35620,1.48913
260.11513,1.50982
259.87406,1.54144
259.63299,1.57527
259.39192,1.60457
259.15085,1.63134
258.90978,1.65670
258.66871,1.67716
258.42764,1.69023
258.18657,1.69676
257.94550,1.70733
257.70443,1.73680
257.46335,1.78633
257.22228,1.84039
256.98121,1.87450
256.74014,1.86986
256.49907,1.83359
256.25800,1.79808
256.01693,1.78852
255.77586,1.79156
255.53479,1.77002
255.29372,1.72111
255.05265,1.67927
254.81158,1.66533
254.57051,1.66897
254.32944,1.66695
254.08837,1.64893
253.84730,1.62501
253.60623,1.60911
253.36516,1.60394
253.12408,1.60058
252.88301,1.58837
252.64194,1.57038
252.40087,1.56345
252.15980,1.57849
251.91873,1.60551
251.67766,1.62371
251.43659,1.62625
251.19552,1.62356
250.95445,1.62400
250.71338,1.62672
250.47231,1.62786
250.23124,1.62447
249.99017,1.61677
249.74910,1.60968
249.50803,1.60469
249.26696,1.59765
249.02589,1.58689
248.78481,1.57573
248.54374,1.56413
248.30267,1.54726
248.06160,1.52884
247.82053,1.51700
247.57946,1.51217
247.33839,1.51011
247.09732,1.51121
246.85625,1.52055
246.61518,1.53927
246.37411,1.56261
246.13304,1.58553
245.89197,1.60515
245.65090,1.62128
245.40983,1.63602
245.16876,1.65251
244.92769,1.67157
244.68661,1.68732
244.44554,1.69487
244.20447,1.70561
243.96340,1.74189
243.72233,1.81408
243.48126,1.90431
243.24019,1.96757
242.99912,1.96666
242.75805,1.91874
242.51698,1.86548
242.27591,1.80796
242.03484,1.72428
241.79377,1.62330
241.55270,1.53309
241.31163,1.46547
241.07056,1.41988
240.82949,1.38974
240.58842,1.36393
240.34734,1.33375
240.10627,1.29830
239.86520,1.26128
239.62413,1.22620
239.38306,1.19499
239.14199,1.16733
238.90092,1.14157
238.65985,1.11680
238.41878,1.09315
238.17771,1.07150
237.93664,1.05370
237.69557,1.04036
237.45450,1.02868
237.21343,1.01625
236.97236,1.00443
236.73129,0.99440
236.49022,0.98419
236.24915,0.97310
236.00807,0.96365
235.76700,0.95705
235.52593,0.95057
235.28486,0.94154
235.04379,0.93189
234.80272,0.92535
234.56165,0.92166
234.32058,0.91708
234.07951,0.91079
233.83844,0.90619
233.59737,0.90433
233.35630,0.90186
233.11523,0.89678
232.87416,0.89034
232.63309,0.88307
232.39202,0.87445
232.15095,0.86669
231.90988,0.86313
231.66880,0.86382
231.42773,0.86626
231.18666,0.86840
230.94559,0.86819
230.70452,0.86410
230.46345,0.85832
230.22238,0.85504
229.98131,0.85452
229.74024,0.85301
229.49917,0.84826
229.25810,0.84124
229.01703,0.83389
228.77596,0.82800
228.53489,0.82530
228.29382,0.82717
228.05275,0.83388
227.81168,0.84316
227.57061,0.84971
227.32953,0.84879
227.08846,0.84092
226.84739,0.83111
226.60632,0.82331
226.36525,0.81805
226.12418,0.81500
225.88311,0.81518
225.64204,0.81884
225.40097,0.82342
225.15990,0.82581
224.91883,0.82498
224.67776,0.82166
224.43669,0.81727
224.19562,0.81350
223.95455,0.81206
223.71348,0.81432
223.47241,0.82049
223.23134,0.82863
222.99026,0.83547
222.74919,0.83865
222.50812,0.83855
222.26705,0.83784
222.02598,0.83901
221.78491,0.84219
221.54384,0.84654
221.30277,0.85267
221.06170,0.86129
220.82063,0.87115
220.57956,0.88040
220.33849,0.88829
220.09742,0.89469
219.85635,0.90082
219.61528,0.90910
219.37421,0.91986
219.13314,0.93099
218.89207,0.94116
218.65099,0.94996
218.40992,0.95684
218.16885,0.96222
217.92778,0.96719
217.68671,0.97200
217.44564,0.97833
217.20457,0.99000
216.96350,1.00732
216.72243,1.02475
216.48136,1.03721
216.24029,1.04518
215.99922,1.05212
215.75815,1.06020
215.51708,1.06995
215.27601,1.08182
215.03494,1.09653
214.79387,1.11361
214.55280,1.13090
214.31172,1.14551
214.07065,1.15498
213.82958,1.15880
213.58851,1.16026
213.34744,1.16592
213.10637,1.17983
212.86530,1.19951
212.62423,1.21893
212.38316,1.23103
212.14209,1.22973
211.90102,1.21796
211.65995,1.20789
211.41888,1.20900
211.17781,1.22048
210.93674,1.23332
210.69567,1.23702
210.45460,1.22879
210.21353,1.21497
209.97245,1.20275
209.73138,1.19601
209.49031,1.19543
209.24924,1.19839
209.00817,1.20047
208.76710,1.19877
208.52603,1.19325
208.28496,1.18690
208.04389,1.18413
207.80282,1.18530
207.56175,1.18364
207.32068,1.17178
207.07961,1.15156
206.83854,1.13284
206.59747,1.12293
206.35640,1.12039
206.11533,1.11703
205.87426,1.10547
205.63318,1.08715
205.39211,1.07056
205.15104,1.06032
204.90997,1.05295
204.66890,1.04380
204.42783,1.03320
204.18676,1.02340
203.94569,1.01450
203.70462,1.00569
203.46355,0.99696
203.22248,0.98797
202.98141,0.97731
202.74034,0.96389
202.49927,0.94805
202.25820,0.93176
202.01713,0.91808
201.77606,0.90827
201.53499,0.89960
201.29391,0.88877
201.05284,0.87635
200.81177,0.86480
200.57070,0.85442
200.32963,0.84365
200.08856,0.83148
199.84749,0.81786
199.60642,0.80391
199.36535,0.79213
199.12428,0.78428
198.88321,0.77865
198.64214,0.77140
198.40107,0.76104
198.16000,0.74963
197.91893,0.73949
197.67786,0.73108
197.43679,0.72328
197.19572,0.71492
196.95464,0.70653
196.71357,0.69986
196.47250,0.69556
196.23143,0.69205
195.99036,0.68664
195.74929,0.67838
195.50822,0.66931
195.26715,0.66230
195.02608,0.65784
194.78501,0.65313
194.54394,0.64625
194.30287,0.63971
194.06180,0.63648
193.82073,0.63513
193.57966,0.63126
193.33859,0.62364
193.09752,0.61619
192.85645,0.61256
192.61537,0.61141
192.37430,0.60856
192.13323,0.60281
191.89216,0.59752
191.65109,0.59527
191.41002,0.59388
191.16895,0.58954
190.92788,0.58267
190.68681,0.57758
190.44574,0.57624
190.20467,0.57577
189.96360,0.57332
189.72253,0.57023
189.48146,0.56898
189.24039,0.56894
188.99932,0.56783
188.75825,0.56584
188.51718,0.56474
188.27610,0.56417
188.03503,0.56228
187.79396,0.55968
187.55289,0.55913
187.31182,0.56094
187.07075,0.56212
186.82968,0.56101
186.58861,0.55953
186.34754,0.55901
186.10647,0.55768
185.86540,0.55464
185.62433,0.55203
185.38326,0.55132
185.14219,0.55123
184.90112,0.55082
184.66005,0.55116
184.41898,0.55274
184.17791,0.55437
183.93683,0.55555
183.69576,0.55727
183.45469,0.55986
183.21362,0.56195
182.97255,0.56206
182.73148,0.56052
182.49041,0.55933
182.24934,0.56019
182.00827,0.56262
181.76720,0.56448
181.52613,0.56442
181.28506,0.56291
181.04399,0.56138
180.80292,0.56148
180.56185,0.56439
180.32078,0.56976
180.07971,0.57580
179.83864,0.58100
179.59756,0.58503
179.35649,0.58852
179.11542,0.59301
178.87435,0.59979
178.63328,0.60829
178.39221,0.61680
178.15114,0.62468
177.91007,0.63221
177.66900,0.63969
177.42793,0.64788
177.18686,0.65759
176.94579,0.66881
176.70472,0.68184
176.46365,0.69774
176.22258,0.71640
175.98151,0.73564
175.74044,0.75256
175.49937,0.76537
175.25829,0.77539
175.01722,0.78676
174.77615,0.80210
174.53508,0.81998
174.29401,0.83808
174.05294,0.85581
173.81187,0.87287
173.57080,0.88869
173.32973,0.90294
173.08866,0.91413
172.84759,0.91984
172.60652,0.92037
172.36545,0.91857
172.12438,0.91638
171.88331,0.91501
171.64224,0.91694
171.40117,0.92399
171.16010,0.93404
170.91902,0.94183
170.67795,0.94337
170.43688,0.93817
170.19581,0.92776
169.95474,0.91407
169.71367,0.89969
169.47260,0.88777
169.23153,0.88083
168.99046,0.87925
168.74939,0.88096
168.50832,0.88334
168.26725,0.88466
168.02618,0.88314
167.78511,0.87742
167.54404,0.86942
167.30297,0.86386
167.06190,0.86347
166.82083,0.86684
166.57975,0.87148
166.33868,0.87717
166.09761,0.88463
165.85654,0.89214
165.61547,0.89641
165.37440,0.89670
165.13333,0.89560
164.89226,0.89625
164.65119,0.90100
164.41012,0.91078
164.16905,0.92392
163.92798,0.93730
163.68691,0.94905
163.44584,0.95871
163.20477,0.96570
162.96370,0.97036
162.72263,0.97474
162.48156,0.98044
162.24048,0.98757
161.99941,0.99572
161.75834,1.00359
161.51727,1.00836
161.27620,1.00789
161.03513,1.00229
160.79406,0.99219
160.55299,0.98006
160.31192,0.97289
160.07085,0.97653
159.82978,0.98685
159.58871,0.99192
159.34764,0.98470
159.10657,0.97009
158.86550,0.95786
158.62443,0.95418
158.38336,0.95905
158.14229,0.96675
157.90121,0.96888
157.66014,0.96104
157.41907,0.94699
157.17800,0.93435
156.93693,0.92806
156.69586,0.92734
156.45479,0.92671
156.21372,0.92176
155.97265,0.91343
155.73158,0.90469
155.49051,0.89693
155.24944,0.89002
155.00837,0.88212
154.76730,0.87096
154.52623,0.85717
154.28516,0.84383
154.04409,0.83254
153.80302,0.82212
153.56194,0.81057
153.32087,0.79709
153.07980,0.78238
152.83873,0.76738
152.59766,0.75244
152.35659,0.73756
152.11552,0.72295
151.87445,0.70865
151.63338,0.69400
151.39231,0.67864
151.15124,0.66431
150.91017,0.65356
150.66910,0.64579
150.42803,0.63668
150.18696,0.62336
149.94589,0.60816
149.70482,0.59530
149.46375,0.58637
149.22267,0.57993
148.98160,0.57366
148.74053,0.56648
148.49946,0.55920
148.25839,0.55334
148.01732,0.54952
147.77625,0.54650
147.53518,0.54226
147.29411,0.53718
147.05304,0.53471
146.81197,0.53729
146.57090,0.54266
146.32983,0.54609
146.08876,0.54629
145.84769,0.54662
145.60662,0.55034
145.36555,0.55645
145.12448,0.56095
144.88340,0.56196
144.64233,0.56273
144.40126,0.56752
144.16019,0.57555
143.91912,0.58165
143.67805,0.58342
143.43698,0.58338
143.19591,0.58297
142.95484,0.57936
142.71377,0.57017
142.47270,0.55770
142.23163,0.54607
141.99056,0.53676
141.74949,0.52874
141.50842,0.52109
141.26735,0.51401
141.02628,0.50789
140.78521,0.50291
140.54413,0.49963
140.30306,0.49839
140.06199,0.49846
139.82092,0.49934
139.57985,0.50194
139.33878,0.50635
139.09771,0.51020
138.85664,0.51189
138.61557,0.51362
138.37450,0.51837
138.13343,0.52623
137.89236,0.53604
137.65129,0.54775
137.41022,0.56095
137.16915,0.57410
136.92808,0.58752
136.68701,0.60393
136.44594,0.62410
136.20486,0.64473
135.96379,0.66308
135.72272,0.68109
135.48165,0.70245
135.24058,0.72761
134.99951,0.75360
134.75844,0.77849
134.51737,0.80434
134.27630,0.83463
134.03523,0.86915
133.79416,0.90345
133.55309,0.93399
133.31202,0.96255
133.07095,0.99378
132.82988,1.02847
132.58881,1.06089
132.34774,1.08504
132.10667,1.10083
131.86559,1.11030
131.62452,1.11344
131.38345,1.11142
131.14238,1.10701
130.90131,1.10070
130.66024,1.09242
130.41917,1.08274
130.17810,1.06922
129.93703,1.04866
129.69596,1.02254
129.45489,0.99414
129.21382,0.96343
128.97275,0.92928
128.73168,0.89304
128.49061,0.85695
128.24954,0.82144
128.00847,0.78595
127.76740,0.75184
127.52632,0.72259
127.28525,0.70001
127.04418,0.68132
126.80311,0.66195
126.56204,0.64046
126.32097,0.61866
126.07990,0.59818
125.83883,0.57968
125.59776,0.56375
125.35669,0.55033
125.11562,0.53808
124.87455,0.52569
124.63348,0.51324
124.39241,0.50186
124.15134,0.49236
123.91027,0.48435
123.66920,0.47703
123.42812,0.47037
123.18705,0.46469
122.94598,0.45938
122.70491,0.45399
122.46384,0.44990
122.22277,0.44870
121.98170,0.44936
121.74063,0.44942
121.49956,0.44864
121.25849,0.44933
121.01742,0.45311
120.77635,0.45898
120.53528,0.46473
120.29421,0.46950
120.05314,0.47460
119.81207,0.48218
119.57100,0.49374
119.32993,0.50981
119.08885,0.53046
118.84778,0.55594
118.60671,0.58687
118.36564,0.62309
118.12457,0.66179
117.88350,0.69749
117.64243,0.72538
117.40136,0.74517
117.16029,0.76007
116.91922,0.77156
116.67815,0.77750
116.43708,0.77706
116.19601,0.77354
115.95494,0.76946
115.71387,0.76309
115.47280,0.75256
115.23173,0.73924
114.99066,0.72569
114.74958,0.71311
114.50851,0.70125
114.26744,0.68918
114.02637,0.67629
113.78530,0.66326
113.54423,0.65233
113.30316,0.64691
113.06209,0.65035
112.82102,0.66309
112.57995,0.68011
112.33888,0.69268
112.09781,0.69429
111.85674,0.68569
111.61567,0.67425
111.37460,0.66846
111.13353,0.67114
110.89246,0.67735
110.65139,0.68089
110.41031,0.68176
110.16924,0.68309
109.92817,0.68334
109.68710,0.67697
109.44603,0.66176
109.20496,0.64080
108.96389,0.61763
108.72282,0.59482
108.48175,0.57664
108.24068,0.56738
107.99961,0.56527
107.75854,0.56075
107.51747,0.54455
107.27640,0.51819
107.03533,0.49180
106.79426,0.47396
106.55319,0.46690
106.31212,0.46637
106.07104,0.46336
105.82997,0.45082
105.58890,0.43070
105.34783,0.41130
105.10676,0.39896
104.86569,0.39417
104.62462,0.39256
104.38355,0.38817
104.14248,0.37762
103.90141,0.36301
103.66034,0.34981
103.41927,0.34221
103.17820,0.34012
102.93713,0.33927
102.69606,0.33494
102.45499,0.32628
102.21392,0.31696
101.97285,0.31146
101.73177,0.31086
101.49070,0.31141
101.24963,0.30801
101.00856,0.29996
100.76749,0.29132
100.52642,0.28615
100.28535,0.28517
100.04428,0.28588
99.80321,0.28482
99.56214,0.28072
99.32107,0.27568
99.08000,0.27279
98.83893,0.27256
98.59786,0.27184
98.35679,0.26717
98.11572,0.26033
97.87465,0.25758
97.63358,0.26228
97.39250,0.26966
97.15143,0.27117
96.91036,0.26618
96.66929,0.26323
96.42822,0.26856
96.18715,0.27925
95.94608,0.28733
95.70501,0.28996
95.46394,0.29264
95.22287,0.30018
94.98180,0.30954
94.74073,0.31498
94.49966,0.31827
94.25859,0.32437
94.01752,0.33051
93.77645,0.33049
93.53538,0.32732
93.29431,0.32855
93.05323,0.33221
92.81216,0.33087
92.57109,0.32625
92.33002,0.32549
92.08895,0.32775
91.84788,0.32829
91.60681,0.32954
91.36574,0.33623
91.12467,0.34654
90.88360,0.35762
90.64253,0.37226
90.40146,0.39339
90.16039,0.42012
89.91932,0.45250
89.67825,0.49173
89.43718,0.53649
89.19611,0.58460
88.95504,0.63297
88.71396,0.67432
88.47289,0.70248
88.23182,0.71567
87.99075,0.71115
87.74968,0.68875
87.50861,0.65510
87.26754,0.61650
87.02647,0.57597
86.78540,0.53626
86.54433,0.49941
86.30326,0.46603
86.06219,0.43648
85.82112,0.40988
85.58005,0.38410
85.33898,0.35899
85.09791,0.33630
84.85684,0.31663
84.61577,0.29969
84.37469,0.28575
84.13362,0.27429
83.89255,0.26390
83.65148,0.25449
83.41041,0.24726
83.16934,0.24263
82.92827,0.23938
82.68720,0.23576
82.44613,0.23086
82.20506,0.22545
81.96399,0.22104
81.72292,0.21821
81.48185,0.21622
81.24078,0.21416
80.99971,0.21200
80.75864,0.21024
80.51757,0.20907
80.27650,0.20841
80.03542,0.20831
79.79435,0.20831
79.55328,0.20733
79.31221,0.20513
79.07114,0.20288
78.83007,0.20167
78.58900,0.20108
78.34793,0.19983
78.10686,0.19713
77.86579,0.19303
77.62472,0.18769
77.38365,0.18151
77.14258,0.17584
76.90151,0.17217
76.66044,0.17063
76.41937,0.17057
76.17830,0.17154
75.93723,0.17233
75.69615,0.17083
75.45508,0.16639
75.21401,0.16085
74.97294,0.15660
74.73187,0.15498
74.49080,0.15615
74.24973,0.15914
74.00866,0.16220
73.76759,0.16391
73.52652,0.16392
73.28545,0.16289
73.04438,0.16218
72.80331,0.16366
72.56224,0.16808
72.32117,0.17302
72.08010,0.17452
71.83903,0.17170
71.59796,0.16750
71.35688,0.16452
71.11581,0.16311
70.87474,0.16370
70.63367,0.16807
70.39260,0.17830
70.15153,0.19549
69.91046,0.21831
69.66939,0.24195
69.42832,0.26024
69.18725,0.26934
68.94618,0.26818
68.70511,0.25711
68.46404,0.23850
68.22297,0.21737
67.98190,0.19905
67.74083,0.18609
67.49976,0.17760
67.25869,0.17138
67.01761,0.16635
66.77654,0.16237
66.53547,0.15855
66.29440,0.15323
66.05333,0.14640
65.81226,0.14098
65.57119,0.14044
65.33012,0.14527
65.08905,0.15328
64.84798,0.16290
64.60691,0.17413
64.36584,0.18606
64.12477,0.19556
63.88370,0.19955
63.64263,0.19785
63.40156,0.19303
63.16049,0.18769
62.91942,0.18292
62.67834,0.17927
62.43727,0.17794
62.19620,0.17935
61.95513,0.18117
61.71406,0.17931
61.47299,0.17166
61.23192,0.16017
60.99085,0.14816
60.74978,0.13696
60.50871,0.12644
60.26764,0.11719
60.02657,0.11006
59.78550,0.10526
59.54443,0.10347
59.30336,0.10655
59.06229,0.11585
58.82122,0.13115
58.58015,0.15164
58.33907,0.17594
58.09800,0.19994
57.85693,0.21483
57.61586,0.21163
57.37479,0.19140
57.13372,0.16423
56.89265,0.13959
56.65158,0.12255
56.41051,0.11510
56.16944,0.11841
55.92837,0.13345
55.68730,0.15804
55.44623,0.18212
55.20516,0.18912
54.96409,0.17219
54.72302,0.14351
54.48195,0.11895
54.24088,0.10951
53.99980,0.12277
53.75873,0.16022
53.51766,0.20772
53.27659,0.22726
53.03552,0.19728
52.79445,0.15272
52.55338,0.12516
52.31231,0.12425
52.07124,0.15041
51.83017,0.18987
51.58910,0.20382
51.34803,0.17106
51.10696,0.12834
50.86589,0.10814
50.62482,0.11915
50.38375,0.15168
50.14268,0.17036
49.90161,0.14848
49.66053,0.11884
49.41946,0.11816
49.17839,0.15185
48.93732,0.18850
48.69625,0.17609
48.45518,0.13514
48.21411,0.12368
47.97304,0.16027
47.73197,0.20536
47.49090,0.18325
47.24983,0.13564
47.00876,0.12857
46.76769,0.14964
46.52662,0.14377
46.28555,0.11370
46.04448,0.10574
45.80341,0.11704
45.56234,0.11886
45.32126,0.11803
45.08019,0.13068
44.83912,0.14090
44.59805,0.13442
44.35698,0.12700
44.11591,0.13007
43.87484,0.13737
43.63377,0.14278
43.39270,0.14510
43.15163,0.14543
42.91056,0.14886
42.66949,0.15468
42.42842,0.15574
42.18735,0.15287
41.94628,0.14925
41.70521,0.14301
41.46414,0.13791
41.22307,0.13984
40.98199,0.14430
40.74092,0.14489
40.49985,0.14383
40.25878,0.14480
40.01771,0.14742
39.77664,0.14989
39.53557,0.15077
39.29450,0.15295
39.05343,0.16216
38.81236,0.17887
38.57129,0.19842
38.33022,0.21935
38.08915,0.24204
37.84808,0.25977
37.60701,0.26185
37.36594,0.24501
37.12487,0.21753
36.88380,0.19473
36.64272,0.18769
36.40165,0.19491
36.16058,0.20570
35.91951,0.20867
35.67844,0.19906
35.43737,0.18304
35.19630,0.17203
34.95523,0.17123
34.71416,0.17473
34.47309,0.17123
34.23202,0.15931
33.99095,0.15079
33.74988,0.15100
33.50881,0.15502
33.26774,0.16437
33.02667,0.18307
32.78560,0.20207
32.54453,0.20645
32.30345,0.19090
32.06238,0.15991
31.82131,0.12273
31.58024,0.08603
31.33917,0.05225
31.09810,0.02499
30.85703,0.00575
30.61596,-0.00911
30.37489,-0.02095
30.13382,-0.02652
29.89275,-0.02526
29.65168,-0.01887
29.41061,-0.01169
29.16954,-0.01128
28.92847,-0.01909
28.68740,-0.02845
28.44633,-0.03664
28.20526,-0.05434
27.96418,-0.09429
27.72311,-0.15140
27.48204,-0.20043
27.24097,-0.21922
26.99990,-0.21205
26.75883,-0.20372
26.51776,-0.20959
26.27669,-0.22951
26.03562,-0.25757
25.79455,-0.26896
25.55348,-0.24398
25.31241,-0.21909
25.07134,-0.22286
24.83027,-0.24744
24.58920,-0.26598
24.34813,-0.26501
24.10706,-0.26048
23.86599,-0.27283
23.62491,-0.30295
23.38384,-0.33711
23.14277,-0.36109
22.90170,-0.36856
22.66063,-0.36325
22.41956,-0.35344
22.17849,-0.34544
21.93742,-0.33990
21.69635,-0.34047
21.45528,-0.34235
21.21421,-0.33272
20.97314,-0.32407
20.73207,-0.32314
20.49100,-0.33144
20.24993,-0.34921
20.00886,-0.37256
19.76779,-0.39435
19.52672,-0.40301
19.28564,-0.38694
19.04457,-0.35788
18.80350,-0.34498
18.56243,-0.36236
18.32136,-0.39342
18.08029,-0.40431
17.83922,-0.38807
17.59815,-0.36448
17.35708,-0.35016
17.11601,-0.34771
16.87494,-0.34691
16.63387,-0.34495
16.39280,-0.35096
16.15173,-0.37099
15.91066,-0.40337
15.66959,-0.43790
15.42852,-0.45471
15.18745,-0.44051
14.94637,-0.40702
14.70530,-0.37654
14.46423,-0.36186
14.22316,-0.37201
13.98209,-0.40154
13.74102,-0.42022
13.49995,-0.41138
13.25888,-0.39073
13.01781,-0.37457
12.77674,-0.36215
12.53567,-0.34629
12.29460,-0.33833
12.05353,-0.33837
11.81246,-0.33201
11.57139,-0.32236
11.33032,-0.32199
11.08925,-0.33253
10.84818,-0.34201
10.60710,-0.34131
10.36603,-0.33587
10.12496,-0.33478
9.88389,-0.34487
9.64282,-0.36467
9.40175,-0.38223
9.16068,-0.39072
8.91961,-0.39302
8.67854,-0.38909
8.43747,-0.38447
8.19640,-0.39284
7.95533,-0.40593
7.71426,-0.40515
7.47319,-0.39272
7.23212,-0.37827
6.99105,-0.36862
6.74998,-0.36518
6.50891,-0.36420
6.26783,-0.36565
6.02676,-0.37621
5.78569,-0.38916
5.54462,-0.38457
5.30355,-0.37132
5.06248,-0.37315
4.82141,-0.39324
4.58034,-0.41623
4.33927,-0.42353
4.09820,-0.40701
3.85713,-0.39051
3.61606,-0.40059
3.37499,-0.42109
3.13392,-0.42599
2.89285,-0.41546
2.65178,-0.40429
2.41071,-0.40887
2.16964,-0.43092
1.92856,-0.44960
1.68749,-0.45699
1.44642,-0.46916
1.20535,-0.47331
0.96428,-0.44917
0.72321,-0.43519
0.48214,-0.49966
0.24107,-0.53902
-0.00000,-0.08201
