399.69498,1.75574
399.45391,1.76260
399.21284,1.79248
398.97177,1.85035
398.73070,1.89899
398.48963,1.87422
398.24856,1.84765
398.00749,1.82232
397.76642,1.78864
397.52535,1.78767
397.28428,1.79819
397.04321,1.81328
396.80214,1.84183
396.56107,1.85878
396.32000,1.85588
396.07892,1.84071
395.83785,1.83250
395.59678,1.84747
395.35571,1.83040
395.11464,1.76289
394.87357,1.72458
394.63250,1.72662
394.39143,1.73615
394.15036,1.71944
393.90929,1.69072
393.66822,1.66990
393.42715,1.67724
393.18608,1.71969
392.94501,1.77957
392.70394,1.83443
392.46287,1.85156
392.22180,1.82185
391.98073,1.77549
391.73965,1.74149
391.49858,1.73332
391.25751,1.74139
391.01644,1.76891
390.77537,1.78183
390.53430,1.75401
390.29323,1.73706
390.05216,1.72509
389.81109,1.69089
389.57002,1.67061
389.32895,1.65755
389.08788,1.64117
388.84681,1.63804
388.60574,1.63905
388.36467,1.61708
388.12360,1.57384
387.88253,1.53356
387.64146,1.51718
387.40038,1.53151
387.15931,1.55780
386.91824,1.57568
386.67717,1.59744
386.43610,1.61067
386.19503,1.60245
385.95396,1.58848
385.71289,1.55017
385.47182,1.51031
385.23075,1.51230
384.98968,1.56112
384.74861,1.60785
384.50754,1.60132
384.26647,1.53383
384.02540,1.47097
383.78433,1.44882
383.54326,1.44251
383.30219,1.42626
383.06111,1.41208
382.82004,1.41220
382.57897,1.42957
382.33790,1.46733
382.09683,1.51245
381.85576,1.51446
381.61469,1.52659
381.37362,1.54720
381.13255,1.55516
380.89148,1.54006
380.65041,1.53536
380.40934,1.54350
380.16827,1.53581
379.92720,1.51166
379.68613,1.49458
379.44506,1.50845
379.20399,1.51989
378.96292,1.51287
378.72184,1.51325
378.48077,1.53844
378.23970,1.57027
377.99863,1.59004
377.75756,1.60244
377.51649,1.60339
377.27542,1.58092
377.03435,1.57404
376.79328,1.58919
376.55221,1.60501
376.31114,1.59844
376.07007,1.57190
375.82900,1.56873
375.58793,1.58646
375.34686,1.61415
375.10579,1.65590
374.86472,1.71217
374.62365,1.72618
374.38257,1.67641
374.14150,1.64539
373.90043,1.60973
373.65936,1.57322
373.41829,1.56387
373.17722,1.56840
372.93615,1.57494
372.69508,1.58784
372.45401,1.60321
372.21294,1.60142
371.97187,1.57574
371.73080,1.57309
371.48973,1.60121
371.24866,1.61501
371.00759,1.59499
370.76652,1.58199
370.52545,1.60211
370.28437,1.62711
370.04330,1.65310
369.80223,1.65987
369.56116,1.61661
369.32009,1.55057
369.07902,1.50703
368.83795,1.50203
368.59688,1.52522
368.35581,1.54842
368.11474,1.55949
367.87367,1.57656
367.63260,1.58528
367.39153,1.56386
367.15046,1.53167
366.90939,1.51549
366.66832,1.53121
366.42725,1.56031
366.18618,1.56912
365.94510,1.55444
365.70403,1.53527
365.46296,1.52521
365.22189,1.52729
364.98082,1.53599
364.73975,1.53782
364.49868,1.52982
364.25761,1.52895
364.01654,1.54144
363.77547,1.54606
363.53440,1.52284
363.29333,1.48551
363.05226,1.46360
362.81119,1.45881
362.57012,1.46899
362.32905,1.50123
362.08798,1.54367
361.84691,1.56572
361.60583,1.55386
361.36476,1.53322
361.12369,1.51927
360.88262,1.50604
360.64155,1.49034
360.40048,1.47401
360.15941,1.45797
359.91834,1.44370
359.67727,1.43673
359.43620,1.43607
359.19513,1.43025
358.95406,1.41758
358.71299,1.41341
358.47192,1.42724
358.23085,1.44896
357.98978,1.46007
357.74871,1.45342
357.50764,1.43762
357.26656,1.43158
357.02549,1.45023
356.78442,1.48776
356.54335,1.51770
356.30228,1.51473
356.06121,1.47888
355.82014,1.43190
355.57907,1.39750
355.33800,1.38619
355.09693,1.39208
354.85586,1.40393
354.61479,1.41473
354.37372,1.41824
354.13265,1.41384
353.89158,1.41377
353.65051,1.43033
353.40944,1.45456
353.16837,1.46214
352.92729,1.44851
352.68622,1.42442
352.44515,1.39985
352.20408,1.38363
351.96301,1.38432
351.72194,1.40544
351.48087,1.43407
351.23980,1.44823
350.99873,1.44284
350.75766,1.43614
350.51659,1.44844
350.27552,1.47390
350.03445,1.47460
349.79338,1.44617
349.55231,1.41817
349.31124,1.40610
349.07017,1.40682
348.82910,1.41641
348.58802,1.43274
348.34695,1.45703
348.10588,1.49278
347.86481,1.52399
347.62374,1.52628
347.38267,1.49495
347.14160,1.46834
346.90053,1.47183
346.65946,1.48267
346.41839,1.47629
346.17732,1.45987
345.93625,1.43994
345.69518,1.41069
345.45411,1.38124
345.21304,1.37396
344.97197,1.39751
344.73090,1.43900
344.48983,1.48515
344.24875,1.53973
344.00768,1.60444
343.76661,1.65139
343.52554,1.63641
343.28447,1.62600
343.04340,1.62425
342.80233,1.59417
342.56126,1.52808
342.32019,1.47599
342.07912,1.45488
341.83805,1.45546
341.59698,1.46442
341.35591,1.47025
341.11484,1.48436
340.87377,1.50516
340.63270,1.52107
340.39163,1.53768
340.15056,1.57239
339.90948,1.62283
339.66841,1.65873
339.42734,1.66710
339.18627,1.66360
338.94520,1.65085
338.70413,1.62505
338.46306,1.58481
338.22199,1.54514
337.98092,1.53140
337.73985,1.55501
337.49878,1.60517
337.25771,1.65853
337.01664,1.70170
336.77557,1.70706
336.53450,1.63978
336.29343,1.58790
336.05236,1.58496
335.81129,1.61433
335.57021,1.64229
335.32914,1.66464
335.08807,1.68369
334.84700,1.68628
334.60593,1.67401
334.36486,1.69174
334.12379,1.66336
333.88272,1.58242
333.64165,1.51278
333.40058,1.47091
333.15951,1.45152
332.91844,1.44277
332.67737,1.43408
332.43630,1.43259
332.19523,1.44383
331.95416,1.45931
331.71309,1.48646
331.47202,1.50463
331.23094,1.49767
330.98987,1.50734
330.74880,1.51980
330.50773,1.51943
330.26666,1.51092
330.02559,1.49921
329.78452,1.49542
329.54345,1.49717
329.30238,1.50060
329.06131,1.51047
328.82024,1.51602
328.57917,1.52241
328.33810,1.52140
328.09703,1.48618
327.85596,1.44133
327.61489,1.44669
327.37382,1.52248
327.13275,1.61235
326.89167,1.60524
326.65060,1.58822
326.40953,1.57159
326.16846,1.54810
325.92739,1.52663
325.68632,1.49532
325.44525,1.46336
325.20418,1.44892
324.96311,1.45213
324.72204,1.46116
324.48097,1.46603
324.23990,1.47094
323.99883,1.49520
323.75776,1.53515
323.51669,1.55388
323.27562,1.52648
323.03455,1.50193
322.79348,1.51568
322.55240,1.50822
322.31133,1.49272
322.07026,1.51823
321.82919,1.53990
321.58812,1.49855
321.34705,1.44204
321.10598,1.42077
320.86491,1.42152
320.62384,1.43281
320.38277,1.46930
320.14170,1.54329
319.90063,1.58122
319.65956,1.49097
319.41849,1.41352
319.17742,1.37927
318.93635,1.39625
318.69528,1.46869
318.45421,1.55434
318.21313,1.60018
317.97206,1.60684
317.73099,1.56644
317.48992,1.51686
317.24885,1.46492
317.00778,1.43610
316.76671,1.45709
316.52564,1.52501
316.28457,1.61935
316.04350,1.69513
315.80243,1.65310
315.56136,1.55098
315.32029,1.52087
315.07922,1.51091
314.83815,1.51684
314.59708,1.57002
314.35601,1.65289
314.11494,1.70971
313.87386,1.67005
313.63279,1.63288
313.39172,1.63788
313.15065,1.68167
312.90958,1.72653
312.66851,1.67787
312.42744,1.62264
312.18637,1.61638
311.94530,1.63011
311.70423,1.59892
311.46316,1.55300
311.22209,1.52394
310.98102,1.50460
310.73995,1.51494
310.49888,1.56263
310.25781,1.62893
310.01674,1.65697
309.77567,1.61151
309.53459,1.55455
309.29352,1.51379
309.05245,1.50210
308.81138,1.52486
308.57031,1.57188
308.32924,1.61257
308.08817,1.63470
307.84710,1.63914
307.60603,1.58442
307.36496,1.54490
307.12389,1.55592
306.88282,1.59735
306.64175,1.64838
306.40068,1.68879
306.15961,1.69443
305.91854,1.66581
305.67747,1.62103
305.43640,1.59129
305.19532,1.58631
304.95425,1.59142
304.71318,1.62501
304.47211,1.67851
304.23104,1.64360
303.98997,1.56575
303.74890,1.53223
303.50783,1.54833
303.26676,1.59155
303.02569,1.65382
302.78462,1.70040
302.54355,1.64849
302.30248,1.55705
302.06141,1.48860
301.82034,1.46551
301.57927,1.49870
301.33820,1.55706
301.09713,1.55778
300.85605,1.49020
300.61498,1.43908
300.37391,1.43790
300.13284,1.47921
299.89177,1.54129
299.65070,1.57219
299.40963,1.52990
299.16856,1.47654
298.92749,1.45338
298.68642,1.45265
298.44535,1.44980
298.20428,1.42362
297.96321,1.37956
297.72214,1.35251
297.48107,1.36362
297.24000,1.40344
296.99893,1.43843
296.75786,1.44098
296.51678,1.42190
296.27571,1.40344
296.03464,1.39613
295.79357,1.40049
295.55250,1.40815
295.31143,1.40427
295.07036,1.38623
294.82929,1.36724
294.58822,1.36079
294.34715,1.37082
294.10608,1.38469
293.86501,1.38366
293.62394,1.36839
293.38287,1.35681
293.14180,1.35752
292.90073,1.35973
292.65966,1.35226
292.41859,1.33949
292.17751,1.33153
291.93644,1.33416
291.69537,1.34410
291.45430,1.35225
291.21323,1.35091
290.97216,1.34014
290.73109,1.33085
290.49002,1.33095
290.24895,1.33848
290.00788,1.34482
289.76681,1.33942
289.52574,1.32209
289.28467,1.30476
289.04360,1.29593
288.80253,1.29333
288.56146,1.29365
288.32039,1.29758
288.07932,1.30231
287.83824,1.30174
287.59717,1.29385
287.35610,1.28319
287.11503,1.27850
286.87396,1.28706
286.63289,1.30620
286.39182,1.31740
286.15075,1.30142
285.90968,1.26668
285.66861,1.23993
285.42754,1.23505
285.18647,1.24198
284.94540,1.23948
284.70433,1.22257
284.46326,1.20959
284.22219,1.21810
283.98112,1.24465
283.74005,1.26972
283.49897,1.28086
283.25790,1.28009
283.01683,1.27385
282.77576,1.26733
282.53469,1.26335
282.29362,1.26223
282.05255,1.26118
281.81148,1.25863
281.57041,1.25772
281.32934,1.26301
281.08827,1.27759
280.84720,1.29817
280.60613,1.31199
280.36506,1.30795
280.12399,1.28814
279.88292,1.26397
279.64185,1.24478
279.40078,1.23454
279.15970,1.23453
278.91863,1.24343
278.67756,1.25827
278.43649,1.27665
278.19542,1.29474
277.95435,1.30401
277.71328,1.29963
277.47221,1.28581
277.23114,1.26728
276.99007,1.24864
276.74900,1.23983
276.50793,1.24420
276.26686,1.24926
276.02579,1.24307
275.78472,1.23234
275.54365,1.22836
275.30258,1.22845
275.06151,1.22354
274.82043,1.21530
274.57936,1.21355
274.33829,1.21884
274.09722,1.22124
273.85615,1.21704
273.61508,1.21401
273.37401,1.21850
273.13294,1.22987
272.89187,1.24568
272.65080,1.26278
272.40973,1.27464
272.16866,1.27654
271.92759,1.27247
271.68652,1.27067
271.44545,1.27463
271.20438,1.27953
270.96331,1.27871
270.72224,1.27574
270.48116,1.28036
270.24009,1.29318
269.99902,1.30346
269.75795,1.30313
269.51688,1.29624
269.27581,1.29246
269.03474,1.29670
268.79367,1.30614
268.55260,1.31626
268.31153,1.32676
268.07046,1.33681
267.82939,1.34081
267.58832,1.33497
267.34725,1.32345
267.10618,1.31118
266.86511,1.29894
266.62404,1.28908
266.38297,1.28726
266.14189,1.29667
265.90082,1.31505
265.65975,1.33759
265.41868,1.35854
265.17761,1.37127
264.93654,1.37473
264.69547,1.37672
264.45440,1.38440
264.21333,1.39756
263.97226,1.41338
263.73119,1.42982
263.49012,1.44287
263.24905,1.44992
263.00798,1.45670
262.76691,1.47437
262.52584,1.50859
262.28477,1.55410
262.04370,1.59933
261.80262,1.63339
261.56155,1.65619
261.32048,1.67682
261.07941,1.69874
260.83834,1.71962
260.59727,1.73649
260.35620,1.74480
260.11513,1.73576
259.87406,1.71373
259.63299,1.71197
259.39192,1.76118
259.15085,1.85562
258.90978,1.93812
258.66871,1.94443
258.42764,1.88711
258.18657,1.82748
257.94550,1.80355
257.70443,1.81593
257.46335,1.83896
257.22228,1.84809
256.98121,1.85100
256.74014,1.86529
256.49907,1.89130
256.25800,1.92037
256.01693,1.93744
255.77586,1.93473
255.53479,1.93018
255.29372,1.93857
255.05265,1.94231
254.81158,1.91631
254.57051,1.86869
254.32944,1.81505
254.08837,1.75691
253.84730,1.70597
253.60623,1.68634
253.36516,1.70517
253.12408,1.74798
252.88301,1.80104
252.64194,1.85330
252.40087,1.87644
252.15980,1.86102
251.91873,1.83622
251.67766,1.84409
251.43659,1.87413
251.19552,1.82034
250.95445,1.71576
250.71338,1.66002
250.47231,1.65655
250.23124,1.68351
249.99017,1.72447
249.74910,1.75697
249.50803,1.75646
249.26696,1.73505
249.02589,1.73027
248.78481,1.75164
248.54374,1.77194
248.30267,1.77783
248.06160,1.76804
247.82053,1.72225
247.57946,1.69481
247.33839,1.70365
247.09732,1.73516
246.85625,1.79305
246.61518,1.86919
246.37411,1.87988
246.13304,1.84234
245.89197,1.83098
245.65090,1.85741
245.40983,1.87090
245.16876,1.84834
244.92769,1.82904
244.68661,1.82501
244.44554,1.84235
244.20447,1.89439
243.96340,1.94522
243.72233,1.93312
243.48126,1.85975
243.24019,1.79739
242.99912,1.78280
242.75805,1.80171
242.51698,1.82110
242.27591,1.80974
242.03484,1.74788
241.79377,1.65315
241.55270,1.55750
241.31163,1.48032
241.07056,1.42750
240.82949,1.39848
240.58842,1.38749
240.34734,1.37840
240.10627,1.35305
239.86520,1.31049
239.62413,1.26656
239.38306,1.23770
239.14199,1.22531
238.90092,1.21751
238.65985,1.20543
238.41878,1.19154
238.17771,1.18172
237.93664,1.17122
237.69557,1.15042
237.45450,1.12366
237.21343,1.10369
236.97236,1.09506
236.73129,1.08904
236.49022,1.07471
236.24915,1.05249
236.00807,1.03027
235.76700,1.01464
235.52593,1.00784
235.28486,1.00643
235.04379,1.00611
234.80272,1.00796
234.56165,1.01508
234.32058,1.02190
234.07951,1.01817
233.83844,1.00533
233.59737,0.99232
233.35630,0.98185
233.11523,0.96992
232.87416,0.95566
232.63309,0.94450
232.39202,0.93949
232.15095,0.93749
231.90988,0.93493
231.66880,0.93631
231.42773,0.94906
231.18666,0.96676
230.94559,0.97249
230.70452,0.96405
230.46345,0.95450
230.22238,0.94721
229.98131,0.93476
229.74024,0.91976
229.49917,0.91308
229.25810,0.91378
229.01703,0.90942
228.77596,0.89844
228.53489,0.89166
228.29382,0.89177
228.05275,0.89231
227.81168,0.89382
227.57061,0.90235
227.32953,0.91533
227.08846,0.92440
226.84739,0.92702
226.60632,0.92570
226.36525,0.92235
226.12418,0.91702
225.88311,0.90647
225.64204,0.88786
225.40097,0.86603
225.15990,0.85002
224.91883,0.84417
224.67776,0.84766
224.43669,0.85906
224.19562,0.87662
223.95455,0.89521
223.71348,0.90710
223.47241,0.90873
223.23134,0.90485
222.99026,0.90127
222.74919,0.89835
222.50812,0.89560
222.26705,0.89745
222.02598,0.90877
221.78491,0.92764
221.54384,0.94749
221.30277,0.96502
221.06170,0.97945
220.82063,0.98667
220.57956,0.98257
220.33849,0.97032
220.09742,0.95839
219.85635,0.95279
219.61528,0.95444
219.37421,0.96263
219.13314,0.97738
218.89207,0.99866
218.65099,1.02418
218.40992,1.04786
218.16885,1.06172
217.92778,1.06182
217.68671,1.05411
217.44564,1.05104
217.20457,1.05988
216.96350,1.07886
216.72243,1.10135
216.48136,1.12059
216.24029,1.13253
215.99922,1.13610
215.75815,1.13711
215.51708,1.14421
215.27601,1.15742
215.03494,1.17339
214.79387,1.19568
214.55280,1.22909
214.31172,1.26514
214.07065,1.28278
213.82958,1.27134
213.58851,1.24317
213.34744,1.22259
213.10637,1.22564
212.86530,1.25028
212.62423,1.28158
212.38316,1.30013
212.14209,1.29159
211.90102,1.26248
211.65995,1.23701
211.41888,1.22944
211.17781,1.23647
210.93674,1.25033
210.69567,1.26703
210.45460,1.28466
210.21353,1.30018
209.97245,1.30706
209.73138,1.29476
209.49031,1.26043
209.24924,1.21956
209.00817,1.19430
208.76710,1.19691
208.52603,1.22432
208.28496,1.26151
208.04389,1.28939
207.80282,1.29135
207.56175,1.26161
207.32068,1.21908
207.07961,1.19124
206.83854,1.18807
206.59747,1.20235
206.35640,1.22209
206.11533,1.23208
205.87426,1.21564
205.63318,1.17809
205.39211,1.14250
205.15104,1.12094
204.90997,1.11182
204.66890,1.10906
204.42783,1.10639
204.18676,1.09753
203.94569,1.07638
203.70462,1.04555
203.46355,1.01904
203.22248,1.00988
202.98141,1.02066
202.74034,1.04289
202.49927,1.05266
202.25820,1.02453
202.01713,0.97196
201.77606,0.92791
201.53499,0.91133
201.29391,0.92371
201.05284,0.94701
200.81177,0.95105
200.57070,0.92710
200.32963,0.89609
200.08856,0.87823
199.84749,0.87934
199.60642,0.89001
199.36535,0.88906
199.12428,0.86571
198.88321,0.83693
198.64214,0.82321
198.40107,0.82769
198.16000,0.83662
197.91893,0.83328
197.67786,0.81656
197.43679,0.79804
197.19572,0.78581
196.95464,0.77905
196.71357,0.77184
196.47250,0.75973
196.23143,0.74494
195.99036,0.73378
195.74929,0.73045
195.50822,0.73352
195.26715,0.73538
195.02608,0.72807
194.78501,0.71329
194.54394,0.70208
194.30287,0.70301
194.06180,0.71179
193.82073,0.71443
193.57966,0.70386
193.33859,0.68784
193.09752,0.67716
192.85645,0.67391
192.61537,0.67170
192.37430,0.66550
192.13323,0.65875
191.89216,0.65684
191.65109,0.65827
191.41002,0.65505
191.16895,0.64456
190.92788,0.63592
190.68681,0.63704
190.44574,0.64487
190.20467,0.64891
189.96360,0.64426
189.72253,0.63837
189.48146,0.63948
189.24039,0.64561
188.99932,0.64651
188.75825,0.63757
188.51718,0.62862
188.27610,0.63027
188.03503,0.63868
187.79396,0.63946
187.55289,0.62823
187.31182,0.61750
187.07075,0.61838
186.82968,0.62750
186.58861,0.63109
186.34754,0.62255
186.10647,0.61126
185.86540,0.60636
185.62433,0.60352
185.38326,0.59608
185.14219,0.58988
184.90112,0.59330
184.66005,0.60234
184.41898,0.60784
184.17791,0.61225
183.93683,0.62200
183.69576,0.63076
183.45469,0.62961
183.21362,0.62576
182.97255,0.62859
182.73148,0.63197
182.49041,0.62837
182.24934,0.62474
182.00827,0.62729
181.76720,0.63007
181.52613,0.62621
181.28506,0.61867
181.04399,0.61372
180.80292,0.61372
180.56185,0.61738
180.32078,0.62150
180.07971,0.62515
179.83864,0.63129
179.59756,0.64068
179.35649,0.64939
179.11542,0.65439
178.87435,0.65660
178.63328,0.65868
178.39221,0.66433
178.15114,0.67698
177.91007,0.69600
177.66900,0.71640
177.42793,0.73245
177.18686,0.74141
176.94579,0.74660
176.70472,0.75529
176.46365,0.76946
176.22258,0.78302
175.98151,0.79106
175.74044,0.79615
175.49937,0.80325
175.25829,0.81434
175.01722,0.82916
174.77615,0.84749
174.53508,0.86936
174.29401,0.89391
174.05294,0.91722
173.81187,0.93232
173.57080,0.93680
173.32973,0.93850
173.08866,0.94519
172.84759,0.95477
172.60652,0.96103
172.36545,0.96169
172.12438,0.95819
171.88331,0.95312
171.64224,0.94726
171.40117,0.93918
171.16010,0.93177
170.91902,0.93390
170.67795,0.94988
170.43688,0.97229
170.19581,0.99075
169.95474,1.00191
169.71367,1.00330
169.47260,0.98972
169.23153,0.96437
168.99046,0.93786
168.74939,0.91669
168.50832,0.90276
168.26725,0.89934
168.02618,0.90998
167.78511,0.93211
167.54404,0.95549
167.30297,0.97115
167.06190,0.97905
166.82083,0.97966
166.57975,0.96760
166.33868,0.94418
166.09761,0.92156
165.85654,0.90921
165.61547,0.90882
165.37440,0.92048
165.13333,0.94402
164.89226,0.97432
164.65119,1.00191
164.41012,1.01813
164.16905,1.01678
163.92798,0.99653
163.68691,0.96650
163.44584,0.94313
163.20477,0.93794
162.96370,0.95190
162.72263,0.98155
162.48156,1.02231
162.24048,1.06047
161.99941,1.07351
161.75834,1.05567
161.51727,1.02749
161.27620,1.00881
161.03513,1.00548
160.79406,1.01486
160.55299,1.03165
160.31192,1.04961
160.07085,1.06071
159.82978,1.05652
159.58871,1.03574
159.34764,1.00919
159.10657,0.99257
158.86550,0.99368
158.62443,1.00701
158.38336,1.02093
158.14229,1.02976
157.90121,1.03432
157.66014,1.03125
157.41907,1.01236
157.17800,0.97908
156.93693,0.94754
156.69586,0.93442
156.45479,0.94510
156.21372,0.97107
155.97265,0.99092
155.73158,0.98534
155.49051,0.95790
155.24944,0.92730
155.00837,0.90856
154.76730,0.90581
154.52623,0.91438
154.28516,0.92526
154.04409,0.92598
153.80302,0.90432
153.56194,0.86232
153.32087,0.81825
153.07980,0.78973
152.83873,0.78316
152.59766,0.79287
152.35659,0.80259
152.11552,0.79456
151.87445,0.76786
151.63338,0.73853
151.39231,0.71925
151.15124,0.71243
150.91017,0.71329
150.66910,0.71053
150.42803,0.69445
150.18696,0.66901
149.94589,0.64721
149.70482,0.63846
149.46375,0.64040
149.22267,0.64053
148.98160,0.63007
148.74053,0.61452
148.49946,0.60373
148.25839,0.60095
148.01732,0.60287
147.77625,0.60239
147.53518,0.59474
147.29411,0.58395
147.05304,0.57914
146.81197,0.58424
146.57090,0.59402
146.32983,0.60014
146.08876,0.60055
145.84769,0.60073
145.60662,0.60600
145.36555,0.61508
145.12448,0.62125
144.88340,0.62152
144.64233,0.62125
144.40126,0.62417
144.16019,0.62608
143.91912,0.62220
143.67805,0.61539
143.43698,0.61231
143.19591,0.61390
142.95484,0.61471
142.71377,0.60934
142.47270,0.59811
142.23163,0.58690
141.99056,0.58056
141.74949,0.57669
141.50842,0.56810
141.26735,0.55312
141.02628,0.53911
140.78521,0.53300
140.54413,0.53350
140.30306,0.53485
140.06199,0.53572
139.82092,0.53979
139.57985,0.54719
139.33878,0.55179
139.09771,0.54980
138.85664,0.54614
138.61557,0.54743
138.37450,0.55378
138.13343,0.56174
137.89236,0.57197
137.65129,0.58651
137.41022,0.60090
137.16915,0.60944
136.92808,0.61551
136.68701,0.62589
136.44594,0.64132
136.20486,0.65941
135.96379,0.67983
135.72272,0.70237
135.48165,0.72631
135.24058,0.75327
134.99951,0.78549
134.75844,0.82149
134.51737,0.85591
134.27630,0.88465
134.03523,0.90990
133.79416,0.93668
133.55309,0.96302
133.31202,0.98057
133.07095,0.98876
132.82988,0.99748
132.58881,1.01301
132.34774,1.03170
132.10667,1.04767
131.86559,1.06034
131.62452,1.07449
131.38345,1.09392
131.14238,1.11592
130.90131,1.13317
130.66024,1.13922
130.41917,1.12874
130.17810,1.09970
129.93703,1.05992
129.69596,1.02072
129.45489,0.98652
129.21382,0.95565
128.97275,0.92445
128.73168,0.89046
128.49061,0.85543
128.24954,0.82320
128.00847,0.79524
127.76740,0.76956
127.52632,0.74434
127.28525,0.72005
127.04418,0.69641
126.80311,0.67167
126.56204,0.64637
126.32097,0.62470
126.07990,0.61097
125.83883,0.60614
125.59776,0.60632
125.35669,0.60425
125.11562,0.59557
124.87455,0.58300
124.63348,0.57107
124.39241,0.56024
124.15134,0.54969
123.91027,0.54023
123.66920,0.53128
123.42812,0.52043
123.18705,0.50785
122.94598,0.49663
122.70491,0.48872
122.46384,0.48339
122.22277,0.47922
121.98170,0.47648
121.74063,0.47670
121.49956,0.47925
121.25849,0.48064
121.01742,0.47980
120.77635,0.48138
120.53528,0.49119
120.29421,0.50973
120.05314,0.53182
119.81207,0.55179
119.57100,0.56893
119.32993,0.58806
119.08885,0.61471
118.84778,0.64943
118.60671,0.68502
118.36564,0.71078
118.12457,0.72248
117.88350,0.72449
117.64243,0.72223
117.40136,0.71934
117.16029,0.71963
116.91922,0.72606
116.67815,0.73744
116.43708,0.74858
116.19601,0.75441
115.95494,0.75391
115.71387,0.75144
115.47280,0.75398
115.23173,0.76483
114.99066,0.77939
114.74958,0.78980
114.50851,0.78972
114.26744,0.77576
114.02637,0.75114
113.78530,0.72111
113.54423,0.68731
113.30316,0.65128
113.06209,0.62007
112.82102,0.60410
112.57995,0.60807
112.33888,0.62772
112.09781,0.65889
111.85674,0.70525
111.61567,0.76796
111.37460,0.82300
111.13353,0.82480
110.89246,0.77605
110.65139,0.72167
110.41031,0.68458
110.16924,0.66930
109.92817,0.67464
109.68710,0.69681
109.44603,0.73001
109.20496,0.75862
108.96389,0.75232
108.72282,0.70384
108.48175,0.64441
108.24068,0.59780
107.99961,0.56819
107.75854,0.55215
107.51747,0.54891
107.27640,0.55943
107.03533,0.57656
106.79426,0.58095
106.55319,0.55781
106.31212,0.51770
106.07104,0.47970
105.82997,0.45244
105.58890,0.43648
105.34783,0.43059
105.10676,0.43220
104.86569,0.43354
104.62462,0.42461
104.38355,0.40451
104.14248,0.38124
103.90141,0.36155
103.66034,0.34942
103.41927,0.34925
103.17820,0.36302
102.93713,0.38182
102.69606,0.38332
102.45499,0.35609
102.21392,0.31906
101.97285,0.29544
101.73177,0.29526
101.49070,0.31676
101.24963,0.34563
101.00856,0.35663
100.76749,0.33842
100.52642,0.30888
100.28535,0.28882
100.04428,0.28792
99.80321,0.30290
99.56214,0.31591
99.32107,0.30895
99.08000,0.28717
98.83893,0.27048
98.59786,0.27130
98.35679,0.28809
98.11572,0.30408
97.87465,0.29966
97.63358,0.28141
97.39250,0.27179
97.15143,0.28060
96.91036,0.29763
96.66929,0.30198
96.42822,0.29069
96.18715,0.28545
95.94608,0.30164
95.70501,0.32936
95.46394,0.34118
95.22287,0.32840
94.98180,0.31541
94.74073,0.32449
94.49966,0.35064
94.25859,0.36495
94.01752,0.35485
93.77645,0.34562
93.53538,0.35604
93.29431,0.37278
93.05323,0.36443
92.81216,0.34023
92.57109,0.33952
92.33002,0.36595
92.08895,0.38255
91.84788,0.37122
91.60681,0.36393
91.36574,0.37459
91.12467,0.38377
90.88360,0.38496
90.64253,0.39812
90.40146,0.42552
90.16039,0.45158
89.91932,0.47771
89.67825,0.51179
89.43718,0.54845
89.19611,0.58220
88.95504,0.61642
88.71396,0.65216
88.47289,0.68399
88.23182,0.70109
87.99075,0.69788
87.74968,0.68587
87.50861,0.67587
87.26754,0.66414
87.02647,0.64160
86.78540,0.60678
86.54433,0.56570
86.30326,0.52554
86.06219,0.49137
85.82112,0.46303
85.58005,0.43656
85.33898,0.40927
85.09791,0.38132
84.85684,0.35381
84.61577,0.32725
84.37469,0.30264
84.13362,0.28205
83.89255,0.26708
83.65148,0.25803
83.41041,0.25373
83.16934,0.25150
82.92827,0.24910
82.68720,0.24675
82.44613,0.24548
82.20506,0.24524
81.96399,0.24616
81.72292,0.24830
81.48185,0.24903
81.24078,0.24532
80.99971,0.23852
80.75864,0.23306
80.51757,0.23116
80.27650,0.23122
80.03542,0.23085
79.79435,0.22980
79.55328,0.22904
79.31221,0.22719
79.07114,0.22137
78.83007,0.21344
78.58900,0.20950
78.34793,0.21097
78.10686,0.21128
77.86579,0.20434
77.62472,0.19251
77.38365,0.18210
77.14258,0.17496
76.90151,0.16904
76.66044,0.16475
76.41937,0.16555
76.17830,0.17256
75.93723,0.18241
75.69615,0.18938
75.45508,0.18845
75.21401,0.17996
74.97294,0.17097
74.73187,0.16839
74.49080,0.17286
74.24973,0.17985
74.00866,0.18456
73.76759,0.18560
73.52652,0.18457
73.28545,0.18327
73.04438,0.18329
72.80331,0.18751
72.56224,0.19931
72.32117,0.21811
72.08010,0.23531
71.83903,0.23602
71.59796,0.21427
71.35688,0.18288
71.11581,0.15777
70.87474,0.14581
70.63367,0.14668
70.39260,0.15949
70.15153,0.18473
69.91046,0.22042
69.66939,0.26137
69.42832,0.30179
69.18725,0.33306
68.94618,0.34495
68.70511,0.33254
68.46404,0.29993
68.22297,0.25913
67.98190,0.22095
67.74083,0.18888
67.49976,0.16386
67.25869,0.14720
67.01761,0.13726
66.77654,0.12950
66.53547,0.12054
66.29440,0.11045
66.05333,0.10314
65.81226,0.10475
65.57119,0.11934
65.33012,0.14528
65.08905,0.17663
64.84798,0.20728
64.60691,0.23308
64.36584,0.25215
64.12477,0.26469
63.88370,0.27066
63.64263,0.26985
63.40156,0.26467
63.16049,0.25887
62.91942,0.25250
62.67834,0.24086
62.43727,0.22040
62.19620,0.19574
61.95513,0.17512
61.71406,0.15989
61.47299,0.14523
61.23192,0.12925
60.99085,0.11615
60.74978,0.10897
60.50871,0.10427
60.26764,0.09778
60.02657,0.09193
59.78550,0.09296
59.54443,0.10234
59.30336,0.11593
59.06229,0.13161
58.82122,0.15367
58.58015,0.18835
58.33907,0.23913
58.09800,0.31121
57.85693,0.37643
57.61586,0.31471
57.37479,0.22207
57.13372,0.14809
56.89265,0.09407
56.65158,0.05975
56.41051,0.04385
56.16944,0.04477
55.92837,0.06294
55.68730,0.10213
55.44623,0.16880
55.20516,0.27767
54.96409,0.38270
54.72302,0.27168
54.48195,0.16943
54.24088,0.10427
53.99980,0.06482
53.75873,0.05156
53.51766,0.06383
53.27659,0.10294
53.03552,0.17898
52.79445,0.29737
52.55338,0.34166
52.31231,0.19811
52.07124,0.07934
51.83017,0.01510
51.58910,-0.00017
51.34803,0.03694
51.10696,0.14306
50.86589,0.29448
50.62482,0.22870
50.38375,0.08602
50.14268,0.01104
49.90161,0.00785
49.66053,0.09516
49.41946,0.27147
49.17839,0.28028
48.93732,0.11933
48.69625,0.04580
48.45518,0.05731
48.21411,0.14449
47.97304,0.25507
47.73197,0.17728
47.49090,0.07135
47.24983,0.06222
47.00876,0.15546
46.76769,0.23145
46.52662,0.11592
46.28555,0.05895
46.04448,0.11819
45.80341,0.19202
45.56234,0.12935
45.32126,0.07226
45.08019,0.09142
44.83912,0.12897
44.59805,0.11731
44.35698,0.09563
44.11591,0.10040
43.87484,0.11134
43.63377,0.11411
43.39270,0.11440
43.15163,0.11750
42.91056,0.13002
42.66949,0.15085
42.42842,0.17062
42.18735,0.18657
41.94628,0.19185
41.70521,0.17222
41.46414,0.14207
41.22307,0.12857
40.98199,0.13646
40.74092,0.15186
40.49985,0.15435
40.25878,0.13802
40.01771,0.12115
39.77664,0.12284
39.53557,0.14326
39.29450,0.16731
39.05343,0.18393
38.81236,0.19342
38.57129,0.20194
38.33022,0.21259
38.08915,0.22305
37.84808,0.23164
37.60701,0.23962
37.36594,0.24735
37.12487,0.25299
36.88380,0.25668
36.64272,0.26168
36.40165,0.26987
36.16058,0.27714
35.91951,0.27710
35.67844,0.27348
35.43737,0.27316
35.19630,0.26982
34.95523,0.25781
34.71416,0.24772
34.47309,0.24121
34.23202,0.22608
33.99095,0.20476
33.74988,0.19519
33.50881,0.21515
33.26774,0.26720
33.02667,0.32320
32.78560,0.32783
32.54453,0.26775
32.30345,0.19150
32.06238,0.13868
31.82131,0.12582
31.58024,0.13829
31.33917,0.15207
31.09810,0.16214
30.85703,0.16682
30.61596,0.14977
30.37489,0.10696
30.13382,0.05495
29.89275,0.00855
29.65168,-0.01631
29.41061,-0.01420
29.16954,0.00495
28.92847,0.03828
28.68740,0.09051
28.44633,0.14823
28.20526,0.18184
27.96418,0.18304
27.72311,0.17155
27.48204,0.16135
27.24097,0.15053
26.99990,0.13711
26.75883,0.12593
26.51776,0.12102
26.27669,0.11807
26.03562,0.11002
25.79455,0.09451
25.55348,0.07043
25.31241,0.03928
25.07134,0.00825
24.83027,-0.00820
24.58920,0.01011
24.34813,0.06321
24.10706,0.10690
23.86599,0.09960
23.62491,0.06327
23.38384,0.03410
23.14277,0.01631
22.90170,0.04548
22.66063,0.10628
22.41956,0.13364
22.17849,0.11064
21.93742,0.08254
21.69635,0.08175
21.45528,0.08604
21.21421,0.06930
20.97314,0.03755
20.73207,-0.00068
20.49100,-0.06298
20.24993,-0.15344
20.00886,-0.21484
19.76779,-0.17844
19.52672,-0.10211
19.28564,-0.04611
19.04457,-0.00110
18.80350,0.04340
18.56243,0.08167
18.32136,0.08884
18.08029,0.04989
17.83922,-0.02014
17.59815,-0.10023
17.35708,-0.17007
17.11601,-0.19772
16.87494,-0.16466
16.63387,-0.08686
16.39280,-0.05211
16.15173,-0.07330
15.91066,-0.10553
15.66959,-0.10386
15.42852,-0.08041
15.18745,-0.08444
14.94637,-0.10845
14.70530,-0.12929
14.46423,-0.13502
14.22316,-0.08793
13.98209,-0.04043
13.74102,-0.04138
13.49995,-0.06218
13.25888,-0.04969
13.01781,-0.00898
12.77674,0.02311
12.53567,0.03462
12.29460,0.03519
12.05353,0.01967
11.81246,-0.00732
11.57139,-0.01749
11.33032,-0.03196
11.08925,-0.07534
10.84818,-0.10253
10.60710,-0.05455
10.36603,0.00140
10.12496,0.02350
9.88389,0.02230
9.64282,0.03118
9.40175,0.05211
9.16068,0.05300
8.91961,0.01618
8.67854,-0.02836
8.43747,-0.02737
8.19640,0.00450
7.95533,0.02523
7.71426,0.04430
7.47319,0.07056
7.23212,0.08840
6.99105,0.08497
6.74998,0.07187
6.50891,0.05594
6.26783,0.05212
6.02676,0.04259
5.78569,0.02681
5.54462,0.01339
5.30355,-0.00428
5.06248,-0.03053
4.82141,-0.03443
4.58034,-0.00614
4.33927,0.01975
4.09820,0.02875
3.85713,0.02314
3.61606,0.01543
3.37499,0.01586
3.13392,0.00617
2.89285,-0.01712
2.65178,-0.02674
2.41071,-0.02183
2.16964,-0.03046
1.92856,-0.06620
1.68749,-0.10892
1.44642,-0.13232
1.20535,-0.12802
0.96428,-0.10820
0.72321,-0.09658
0.48214,-0.08537
0.24107,-0.05479
-0.00000,0.00121
