399.69498,1.61665
399.45391,1.62451
399.21284,1.62667
398.97177,1.62887
398.73070,1.63514
398.48963,1.63322
398.24856,1.61440
398.00749,1.59188
397.76642,1.58535
397.52535,1.60469
397.28428,1.64221
397.04321,1.67355
396.80214,1.67943
396.56107,1.66495
396.32000,1.64702
396.07892,1.63319
395.83785,1.62165
395.59678,1.61208
395.35571,1.60762
395.11464,1.60881
394.87357,1.61089
394.63250,1.60976
394.39143,1.60628
394.15036,1.60359
393.90929,1.60082
393.66822,1.59427
393.42715,1.58705
393.18608,1.58833
392.94501,1.59932
392.70394,1.60800
392.46287,1.60159
392.22180,1.58076
391.98073,1.56196
391.73965,1.56036
391.49858,1.57129
391.25751,1.57757
391.01644,1.57439
390.77537,1.57240
390.53430,1.57259
390.29323,1.56160
390.05216,1.54192
389.81109,1.53770
389.57002,1.55983
389.32895,1.58600
389.08788,1.58333
388.84681,1.54841
388.60574,1.50622
388.36467,1.48040
388.12360,1.47862
387.88253,1.49653
387.64146,1.52739
387.40038,1.56074
387.15931,1.58344
386.91824,1.59247
386.67717,1.58757
386.43610,1.56799
386.19503,1.53915
385.95396,1.50985
385.71289,1.49532
385.47182,1.51195
385.23075,1.55835
384.98968,1.60022
384.74861,1.59450
384.50754,1.54159
384.26647,1.47702
384.02540,1.42932
383.78433,1.40474
383.54326,1.39598
383.30219,1.39591
383.06111,1.40210
382.82004,1.41641
382.57897,1.42823
382.33790,1.41329
382.09683,1.37097
381.85576,1.33058
381.61469,1.30964
381.37362,1.30396
381.13255,1.30815
380.89148,1.32351
380.65041,1.34745
380.40934,1.36496
380.16827,1.36265
379.92720,1.34917
379.68613,1.34088
379.44506,1.33544
379.20399,1.32211
378.96292,1.30745
378.72184,1.30641
378.48077,1.32206
378.23970,1.34570
377.99863,1.37236
377.75756,1.40162
377.51649,1.42908
377.27542,1.44680
377.03435,1.44555
376.79328,1.42502
376.55221,1.40040
376.31114,1.38817
376.07007,1.39306
375.82900,1.41139
375.58793,1.43672
375.34686,1.46149
375.10579,1.48143
374.86472,1.50214
374.62365,1.52848
374.38257,1.54339
374.14150,1.52525
373.90043,1.48631
373.65936,1.45675
373.41829,1.44589
373.17722,1.44065
372.93615,1.42979
372.69508,1.41667
372.45401,1.41588
372.21294,1.43949
371.97187,1.48084
371.73080,1.51633
371.48973,1.52748
371.24866,1.51731
371.00759,1.49796
370.76652,1.47759
370.52545,1.46289
370.28437,1.45649
370.04330,1.45265
369.80223,1.44282
369.56116,1.42733
369.32009,1.41816
369.07902,1.42565
368.83795,1.44825
368.59688,1.47364
368.35581,1.48380
368.11474,1.46827
367.87367,1.43768
367.63260,1.41359
367.39153,1.40851
367.15046,1.42058
366.90939,1.43998
366.66832,1.45615
366.42725,1.46040
366.18618,1.44827
365.94510,1.42593
365.70403,1.40849
365.46296,1.40396
365.22189,1.40512
364.98082,1.40190
364.73975,1.39653
364.49868,1.39810
364.25761,1.40699
364.01654,1.41395
363.77547,1.41200
363.53440,1.40376
363.29333,1.39814
363.05226,1.39966
362.81119,1.40132
362.57012,1.39320
362.32905,1.37563
362.08798,1.35653
361.84691,1.34116
361.60583,1.33209
361.36476,1.33306
361.12369,1.34505
360.88262,1.36108
360.64155,1.37194
360.40048,1.37679
360.15941,1.38246
359.91834,1.39242
359.67727,1.40119
359.43620,1.40333
359.19513,1.40153
358.95406,1.39831
358.71299,1.38757
358.47192,1.36481
358.23085,1.33809
357.98978,1.31972
357.74871,1.31558
357.50764,1.32481
357.26656,1.34083
357.02549,1.35072
356.78442,1.34538
356.54335,1.33262
356.30228,1.32648
356.06121,1.32893
355.82014,1.33203
355.57907,1.33232
355.33800,1.33276
355.09693,1.33445
354.85586,1.33700
354.61479,1.34106
354.37372,1.34406
354.13265,1.34421
353.89158,1.34577
353.65051,1.35038
353.40944,1.35306
353.16837,1.35118
352.92729,1.34924
352.68622,1.35213
352.44515,1.35747
352.20408,1.35833
351.96301,1.35238
351.72194,1.34404
351.48087,1.33741
351.23980,1.33080
350.99873,1.32249
350.75766,1.31808
350.51659,1.32508
350.27552,1.34117
350.03445,1.35422
349.79338,1.35427
349.55231,1.34262
349.31124,1.32943
349.07017,1.32600
348.82910,1.33692
348.58802,1.35433
348.34695,1.36391
348.10588,1.36179
347.86481,1.35821
347.62374,1.36094
347.38267,1.36445
347.14160,1.35939
346.90053,1.34839
346.65946,1.34299
346.41839,1.34804
346.17732,1.35843
345.93625,1.36999
345.69518,1.38335
345.45411,1.39532
345.21304,1.39756
344.97197,1.38765
344.73090,1.37451
344.48983,1.37023
344.24875,1.38130
344.00768,1.40707
343.76661,1.43815
343.52554,1.45562
343.28447,1.44769
343.04340,1.42648
342.80233,1.41337
342.56126,1.41595
342.32019,1.42530
342.07912,1.42959
341.83805,1.42502
341.59698,1.41593
341.35591,1.41012
341.11484,1.41115
340.87377,1.41278
340.63270,1.40682
340.39163,1.39626
340.15056,1.39586
339.90948,1.41807
339.66841,1.45787
339.42734,1.49564
339.18627,1.51364
338.94520,1.51064
338.70413,1.50227
338.46306,1.50207
338.22199,1.51124
337.98092,1.52124
337.73985,1.52355
337.49878,1.51702
337.25771,1.50637
337.01664,1.49881
336.77557,1.49711
336.53450,1.49634
336.29343,1.48717
336.05236,1.46668
335.81129,1.44425
335.57021,1.43375
335.32914,1.44410
335.08807,1.47053
334.84700,1.49218
334.60593,1.49250
334.36486,1.47746
334.12379,1.46180
333.88272,1.44871
333.64165,1.42987
333.40058,1.40243
333.15951,1.37458
332.91844,1.35573
332.67737,1.34970
332.43630,1.35667
332.19523,1.37602
331.95416,1.40206
331.71309,1.42002
331.47202,1.41746
331.23094,1.40115
330.98987,1.38744
330.74880,1.38262
330.50773,1.38352
330.26666,1.38667
330.02559,1.38699
329.78452,1.37766
329.54345,1.36419
329.30238,1.36358
329.06131,1.37773
328.82024,1.38561
328.57917,1.37700
328.33810,1.36918
328.09703,1.37653
327.85596,1.39064
327.61489,1.39451
327.37382,1.38638
327.13275,1.37787
326.89167,1.37810
326.65060,1.38357
326.40953,1.38660
326.16846,1.38793
325.92739,1.38955
325.68632,1.38290
325.44525,1.36086
325.20418,1.33459
324.96311,1.32365
324.72204,1.33505
324.48097,1.35932
324.23990,1.38607
323.99883,1.41400
323.75776,1.43961
323.51669,1.44824
323.27562,1.43553
323.03455,1.41606
322.79348,1.39758
322.55240,1.38309
322.31133,1.37557
322.07026,1.37689
321.82919,1.38182
321.58812,1.38018
321.34705,1.37515
321.10598,1.38295
320.86491,1.40776
320.62384,1.42711
320.38277,1.41833
320.14170,1.39035
319.90063,1.36611
319.65956,1.35622
319.41849,1.35793
319.17742,1.36237
318.93635,1.36409
318.69528,1.37131
318.45421,1.39175
318.21313,1.41731
317.97206,1.43077
317.73099,1.42060
317.48992,1.39640
317.24885,1.37782
317.00778,1.37323
316.76671,1.37494
316.52564,1.37776
316.28457,1.39092
316.04350,1.42133
315.80243,1.45559
315.56136,1.46533
315.32029,1.43750
315.07922,1.39298
314.83815,1.36055
314.59708,1.35326
314.35601,1.36815
314.11494,1.39126
313.87386,1.40744
313.63279,1.41278
313.39172,1.41380
313.15065,1.41256
312.90958,1.40522
312.66851,1.39619
312.42744,1.39873
312.18637,1.42090
311.94530,1.45704
311.70423,1.49423
311.46316,1.52132
311.22209,1.52349
310.98102,1.49136
310.73995,1.44776
310.49888,1.42430
310.25781,1.43498
310.01674,1.47039
309.77567,1.49967
309.53459,1.49542
309.29352,1.46874
309.05245,1.44513
308.81138,1.43103
308.57031,1.42804
308.32924,1.43938
308.08817,1.45479
307.84710,1.45754
307.60603,1.45071
307.36496,1.44930
307.12389,1.45314
306.88282,1.45536
306.64175,1.45611
306.40068,1.45995
306.15961,1.46838
305.91854,1.47695
305.67747,1.48009
305.43640,1.47859
305.19532,1.47819
304.95425,1.47899
304.71318,1.47377
304.47211,1.46031
304.23104,1.44426
303.98997,1.42973
303.74890,1.41536
303.50783,1.40028
303.26676,1.38856
303.02569,1.38487
302.78462,1.38846
302.54355,1.39212
302.30248,1.38908
302.06141,1.38048
301.82034,1.37360
301.57927,1.37423
301.33820,1.38320
301.09713,1.39952
300.85605,1.41974
300.61498,1.43291
300.37391,1.42751
300.13284,1.40541
299.89177,1.38076
299.65070,1.36746
299.40963,1.36815
299.16856,1.37202
298.92749,1.36745
298.68642,1.35586
298.44535,1.34620
298.20428,1.34435
297.96321,1.34898
297.72214,1.35174
297.48107,1.34643
297.24000,1.33640
296.99893,1.32720
296.75786,1.32044
296.51678,1.31642
296.27571,1.31608
296.03464,1.31977
295.79357,1.32475
295.55250,1.32433
295.31143,1.31371
295.07036,1.29715
294.82929,1.28347
294.58822,1.27669
294.34715,1.27478
294.10608,1.27392
293.86501,1.27161
293.62394,1.26762
293.38287,1.26459
293.14180,1.26660
292.90073,1.27487
292.65966,1.28265
292.41859,1.27932
292.17751,1.26427
291.93644,1.24877
291.69537,1.24263
291.45430,1.24536
291.21323,1.24998
290.97216,1.25089
290.73109,1.24564
290.49002,1.23690
290.24895,1.23181
290.00788,1.23238
289.76681,1.23379
289.52574,1.23329
289.28467,1.23348
289.04360,1.23685
288.80253,1.24235
288.56146,1.24844
288.32039,1.25386
288.07932,1.25371
287.83824,1.24228
287.59717,1.22163
287.35610,1.20222
287.11503,1.19472
286.87396,1.20182
286.63289,1.21533
286.39182,1.22244
286.15075,1.21872
285.90968,1.21159
285.66861,1.20843
285.42754,1.20924
285.18647,1.21165
284.94540,1.21485
284.70433,1.21880
284.46326,1.22344
284.22219,1.22636
283.98112,1.22250
283.74005,1.21140
283.49897,1.20090
283.25790,1.19867
283.01683,1.20419
282.77576,1.21096
282.53469,1.21344
282.29362,1.21070
282.05255,1.20589
281.81148,1.20354
281.57041,1.20595
281.32934,1.21092
281.08827,1.21326
280.84720,1.20990
280.60613,1.20299
280.36506,1.19632
280.12399,1.19108
279.88292,1.18783
279.64185,1.18875
279.40078,1.19423
279.15970,1.20044
278.91863,1.20364
278.67756,1.20464
278.43649,1.20624
278.19542,1.20868
277.95435,1.21017
277.71328,1.20966
277.47221,1.20727
277.23114,1.20386
276.99007,1.20082
276.74900,1.19953
276.50793,1.20098
276.26686,1.20488
276.02579,1.20857
275.78472,1.20939
275.54365,1.20861
275.30258,1.20906
275.06151,1.21038
274.82043,1.21103
274.57936,1.21110
274.33829,1.21066
274.09722,1.21027
273.85615,1.21186
273.61508,1.21479
273.37401,1.21430
273.13294,1.20860
272.89187,1.20330
272.65080,1.20580
272.40973,1.21850
272.16866,1.23619
271.92759,1.24882
271.68652,1.25073
271.44545,1.24567
271.20438,1.24058
270.96331,1.23907
270.72224,1.24169
270.48116,1.24698
270.24009,1.25097
269.99902,1.25096
269.75795,1.24934
269.51688,1.25037
269.27581,1.25416
269.03474,1.25725
268.79367,1.25924
268.55260,1.26351
268.31153,1.26975
268.07046,1.27174
267.82939,1.26678
267.58832,1.26153
267.34725,1.26367
267.10618,1.27233
266.86511,1.28111
266.62404,1.28802
266.38297,1.29727
266.14189,1.31259
265.90082,1.33259
265.65975,1.35367
265.41868,1.37489
265.17761,1.39597
264.93654,1.41284
264.69547,1.42075
264.45440,1.42084
264.21333,1.41951
263.97226,1.42058
263.73119,1.42236
263.49012,1.42530
263.24905,1.43663
263.00798,1.46066
262.76691,1.48897
262.52584,1.50852
262.28477,1.51534
262.04370,1.51341
261.80262,1.50967
261.56155,1.51105
261.32048,1.52067
261.07941,1.53737
260.83834,1.55687
260.59727,1.57726
260.35620,1.60116
260.11513,1.62676
259.87406,1.64554
259.63299,1.65378
259.39192,1.65715
259.15085,1.66409
258.90978,1.68772
258.66871,1.74387
258.42764,1.83118
258.18657,1.91105
257.94550,1.92272
257.70443,1.88301
257.46335,1.85424
257.22228,1.84224
256.98121,1.83685
256.74014,1.84743
256.49907,1.88623
256.25800,1.94154
256.01693,1.97522
255.77586,1.96338
255.53479,1.92652
255.29372,1.90363
255.05265,1.90434
254.81158,1.90735
254.57051,1.89590
254.32944,1.87150
254.08837,1.84109
253.84730,1.81797
253.60623,1.80963
253.36516,1.80618
253.12408,1.79806
252.88301,1.78769
252.64194,1.77369
252.40087,1.74746
252.15980,1.71101
251.91873,1.67850
251.67766,1.65909
251.43659,1.64787
251.19552,1.63367
250.95445,1.61437
250.71338,1.59938
250.47231,1.59881
250.23124,1.61628
249.99017,1.64680
249.74910,1.67795
249.50803,1.69894
249.26696,1.70714
249.02589,1.70343
248.78481,1.68922
248.54374,1.67179
248.30267,1.65677
248.06160,1.63790
247.82053,1.61799
247.57946,1.61263
247.33839,1.62731
247.09732,1.64809
246.85625,1.65660
246.61518,1.65203
246.37411,1.64913
246.13304,1.65529
245.89197,1.66447
245.65090,1.66970
245.40983,1.67111
245.16876,1.67335
244.92769,1.68381
244.68661,1.71286
244.44554,1.76820
244.20447,1.84423
243.96340,1.91102
243.72233,1.92905
243.48126,1.90222
243.24019,1.87453
242.99912,1.88396
242.75805,1.93561
242.51698,1.95160
242.27591,1.86061
242.03484,1.75642
241.79377,1.68108
241.55270,1.63000
241.31163,1.59233
241.07056,1.56029
240.82949,1.52890
240.58842,1.49393
240.34734,1.45098
240.10627,1.40176
239.86520,1.35604
239.62413,1.31961
239.38306,1.28897
239.14199,1.25954
238.90092,1.23171
238.65985,1.20768
238.41878,1.18780
238.17771,1.17167
237.93664,1.15840
237.69557,1.14442
237.45450,1.12594
237.21343,1.10516
236.97236,1.08848
236.73129,1.07695
236.49022,1.06448
236.24915,1.04710
236.00807,1.02947
235.76700,1.01891
235.52593,1.01580
235.28486,1.01319
235.04379,1.00551
234.80272,0.99484
234.56165,0.98612
234.32058,0.98003
234.07951,0.97353
233.83844,0.96603
233.59737,0.96117
233.35630,0.96110
233.11523,0.96229
232.87416,0.95966
232.63309,0.95310
232.39202,0.94583
232.15095,0.93829
231.90988,0.92926
231.66880,0.92136
231.42773,0.91871
231.18666,0.92018
230.94559,0.92105
230.70452,0.91991
230.46345,0.91907
230.22238,0.91887
229.98131,0.91705
229.74024,0.91398
229.49917,0.91279
229.25810,0.91241
229.01703,0.90827
228.77596,0.90232
228.53489,0.90275
228.29382,0.91089
228.05275,0.91688
227.81168,0.91232
227.57061,0.90101
227.32953,0.89095
227.08846,0.88513
226.84739,0.88281
226.60632,0.88265
226.36525,0.88272
226.12418,0.88117
225.88311,0.87786
225.64204,0.87321
225.40097,0.86671
225.15990,0.85878
224.91883,0.85298
224.67776,0.85383
224.43669,0.86203
224.19562,0.87329
223.95455,0.88250
223.71348,0.88781
223.47241,0.88968
223.23134,0.88928
222.99026,0.88910
222.74919,0.89114
222.50812,0.89361
222.26705,0.89375
222.02598,0.89287
221.78491,0.89383
221.54384,0.89659
221.30277,0.90091
221.06170,0.90869
220.82063,0.91978
220.57956,0.93117
220.33849,0.94206
220.09742,0.95307
219.85635,0.96201
219.61528,0.96687
219.37421,0.96945
219.13314,0.97273
218.89207,0.97866
218.65099,0.98798
218.40992,0.99981
218.16885,1.01296
217.92778,1.02732
217.68671,1.04125
217.44564,1.05083
217.20457,1.05634
216.96350,1.06296
216.72243,1.07267
216.48136,1.08272
216.24029,1.09176
215.99922,1.10101
215.75815,1.11088
215.51708,1.12219
215.27601,1.13882
215.03494,1.16338
214.79387,1.19022
214.55280,1.20797
214.31172,1.21352
214.07065,1.21346
213.82958,1.21058
213.58851,1.20446
213.34744,1.20129
213.10637,1.21107
212.86530,1.23590
212.62423,1.26665
212.38316,1.29159
212.14209,1.30625
211.90102,1.31211
211.65995,1.31013
211.41888,1.30209
211.17781,1.29201
210.93674,1.28257
210.69567,1.27451
210.45460,1.27103
210.21353,1.27742
209.97245,1.29197
209.73138,1.30307
209.49031,1.30009
209.24924,1.28362
209.00817,1.26378
208.76710,1.25125
208.52603,1.25104
208.28496,1.26136
208.04389,1.27459
207.80282,1.28094
207.56175,1.27335
207.32068,1.25302
207.07961,1.22722
206.83854,1.20204
206.59747,1.18237
206.35640,1.17268
206.11533,1.17193
205.87426,1.17229
205.63318,1.16731
205.39211,1.15733
205.15104,1.14474
204.90997,1.13084
204.66890,1.11815
204.42783,1.10942
204.18676,1.10308
203.94569,1.09330
203.70462,1.07654
203.46355,1.05484
203.22248,1.03275
202.98141,1.01530
202.74034,1.00685
202.49927,1.00670
202.25820,1.00569
202.01713,0.99367
201.77606,0.97146
201.53499,0.94777
201.29391,0.92976
201.05284,0.91946
200.81177,0.91317
200.57070,0.90471
200.32963,0.89168
200.08856,0.87684
199.84749,0.86372
199.60642,0.85306
199.36535,0.84395
199.12428,0.83616
198.88321,0.82999
198.64214,0.82468
198.40107,0.81839
198.16000,0.81000
197.91893,0.80036
197.67786,0.79140
197.43679,0.78394
197.19572,0.77588
196.95464,0.76444
196.71357,0.75117
196.47250,0.74111
196.23143,0.73635
195.99036,0.73304
195.74929,0.72524
195.50822,0.71128
195.26715,0.69620
195.02608,0.68733
194.78501,0.68769
194.54394,0.69248
194.30287,0.69203
194.06180,0.68198
193.82073,0.66879
193.57966,0.66116
193.33859,0.66062
193.09752,0.66186
192.85645,0.65916
192.61537,0.65209
192.37430,0.64457
192.13323,0.63996
191.89216,0.63819
191.65109,0.63686
191.41002,0.63433
191.16895,0.63098
190.92788,0.62712
190.68681,0.62164
190.44574,0.61477
190.20467,0.61020
189.96360,0.61115
189.72253,0.61506
189.48146,0.61554
189.24039,0.61083
188.99932,0.60555
188.75825,0.60342
188.51718,0.60265
188.27610,0.59963
188.03503,0.59451
187.79396,0.59120
187.55289,0.59203
187.31182,0.59459
187.07075,0.59468
186.82968,0.59195
186.58861,0.58937
186.34754,0.58830
186.10647,0.58776
185.86540,0.58748
185.62433,0.58840
185.38326,0.58975
185.14219,0.58937
184.90112,0.58802
184.66005,0.58957
184.41898,0.59490
184.17791,0.59980
183.93683,0.60078
183.69576,0.59994
183.45469,0.60053
183.21362,0.60197
182.97255,0.60207
182.73148,0.60104
182.49041,0.60022
182.24934,0.59945
182.00827,0.59850
181.76720,0.59876
181.52613,0.60080
181.28506,0.60277
181.04399,0.60353
180.80292,0.60470
180.56185,0.60774
180.32078,0.61189
180.07971,0.61596
179.83864,0.61981
179.59756,0.62317
179.35649,0.62568
179.11542,0.62850
178.87435,0.63326
178.63328,0.63953
178.39221,0.64608
178.15114,0.65423
177.91007,0.66599
177.66900,0.67926
177.42793,0.68996
177.18686,0.69843
176.94579,0.70785
176.70472,0.71846
176.46365,0.72981
176.22258,0.74408
175.98151,0.76232
175.74044,0.78147
175.49937,0.79781
175.25829,0.81059
175.01722,0.82268
174.77615,0.83815
174.53508,0.85619
174.29401,0.87105
174.05294,0.88218
173.81187,0.89697
173.57080,0.91853
173.32973,0.93952
173.08866,0.95207
172.84759,0.95687
172.60652,0.95891
172.36545,0.96175
172.12438,0.96759
171.88331,0.97699
171.64224,0.98761
171.40117,0.99549
171.16010,0.99799
170.91902,0.99488
170.67795,0.98733
170.43688,0.97659
170.19581,0.96308
169.95474,0.94774
169.71367,0.93375
169.47260,0.92443
169.23153,0.91949
168.99046,0.91602
168.74939,0.91247
168.50832,0.90905
168.26725,0.90671
168.02618,0.90747
167.78511,0.91306
167.54404,0.92200
167.30297,0.92952
167.06190,0.93114
166.82083,0.92651
166.57975,0.91937
166.33868,0.91352
166.09761,0.91006
165.85654,0.90942
165.61547,0.91312
165.37440,0.92136
165.13333,0.93133
164.89226,0.94034
164.65119,0.94869
164.41012,0.95815
164.16905,0.96894
163.92798,0.97969
163.68691,0.98895
163.44584,0.99586
163.20477,0.99991
162.96370,1.00227
162.72263,1.00605
162.48156,1.01307
162.24048,1.02213
161.99941,1.03072
161.75834,1.03709
161.51727,1.04117
161.27620,1.04378
161.03513,1.04430
160.79406,1.04099
160.55299,1.03414
160.31192,1.02613
160.07085,1.01925
159.82978,1.01603
159.58871,1.01884
159.34764,1.02631
159.10657,1.03213
158.86550,1.02970
158.62443,1.01754
158.38336,0.99930
158.14229,0.98035
157.90121,0.96621
157.66014,0.96182
157.41907,0.96823
157.17800,0.97948
156.93693,0.98529
156.69586,0.97925
156.45479,0.96320
156.21372,0.94384
155.97265,0.92785
155.73158,0.91896
155.49051,0.91662
155.24944,0.91764
155.00837,0.91849
154.76730,0.91488
154.52623,0.90223
154.28516,0.88088
154.04409,0.85735
153.80302,0.83767
153.56194,0.82307
153.32087,0.81238
153.07980,0.80389
152.83873,0.79441
152.59766,0.78035
152.35659,0.76181
152.11552,0.74432
151.87445,0.73342
151.63338,0.72776
151.39231,0.72038
151.15124,0.70691
150.91017,0.68969
150.66910,0.67319
150.42803,0.65894
150.18696,0.64649
149.94589,0.63605
149.70482,0.62790
149.46375,0.62046
149.22267,0.61126
148.98160,0.60008
148.74053,0.58970
148.49946,0.58322
148.25839,0.58115
148.01732,0.58073
147.77625,0.57803
147.53518,0.57200
147.29411,0.56562
147.05304,0.56222
146.81197,0.56206
146.57090,0.56339
146.32983,0.56475
146.08876,0.56596
145.84769,0.56808
145.60662,0.57231
145.36555,0.57844
145.12448,0.58424
144.88340,0.58776
144.64233,0.59027
144.40126,0.59471
144.16019,0.60166
143.91912,0.60813
143.67805,0.61036
143.43698,0.60688
143.19591,0.59879
142.95484,0.58826
142.71377,0.57750
142.47270,0.56838
142.23163,0.56170
141.99056,0.55656
141.74949,0.55144
141.50842,0.54605
141.26735,0.54129
141.02628,0.53711
140.78521,0.53193
140.54413,0.52490
140.30306,0.51794
140.06199,0.51441
139.82092,0.51580
139.57985,0.52037
139.33878,0.52526
139.09771,0.52965
138.85664,0.53467
138.61557,0.54023
138.37450,0.54447
138.13343,0.54728
137.89236,0.55196
137.65129,0.56149
137.41022,0.57516
137.16915,0.59001
136.92808,0.60437
136.68701,0.61887
136.44594,0.63521
136.20486,0.65454
135.96379,0.67651
135.72272,0.69955
135.48165,0.72265
135.24058,0.74679
134.99951,0.77368
134.75844,0.80341
134.51737,0.83476
134.27630,0.86666
134.03523,0.89798
133.79416,0.92730
133.55309,0.95444
133.31202,0.98099
133.07095,1.00776
132.82988,1.03418
132.58881,1.05946
132.34774,1.08092
132.10667,1.09523
131.86559,1.10489
131.62452,1.11700
131.38345,1.13171
131.14238,1.14106
130.90131,1.14117
130.66024,1.13529
130.41917,1.12632
130.17810,1.11420
129.93703,1.09724
129.69596,1.07261
129.45489,1.03889
129.21382,0.99883
128.97275,0.95726
128.73168,0.91701
128.49061,0.87846
128.24954,0.84176
128.00847,0.80838
127.76740,0.77985
127.52632,0.75560
127.28525,0.73255
127.04418,0.70735
126.80311,0.68002
126.56204,0.65452
126.32097,0.63445
126.07990,0.61945
125.83883,0.60668
125.59776,0.59395
125.35669,0.58065
125.11562,0.56719
124.87455,0.55411
124.63348,0.54127
124.39241,0.52820
124.15134,0.51544
123.91027,0.50403
123.66920,0.49430
123.42812,0.48622
123.18705,0.47984
122.94598,0.47461
122.70491,0.46957
122.46384,0.46479
122.22277,0.46131
121.98170,0.45957
121.74063,0.45888
121.49956,0.45853
121.25849,0.45893
121.01742,0.46144
120.77635,0.46739
120.53528,0.47731
120.29421,0.49036
120.05314,0.50421
119.81207,0.51685
119.57100,0.52902
119.32993,0.54377
119.08885,0.56349
118.84778,0.58841
118.60671,0.61748
118.36564,0.64894
118.12457,0.68021
117.88350,0.70872
117.64243,0.73301
117.40136,0.75286
117.16029,0.76838
116.91922,0.77945
116.67815,0.78596
116.43708,0.78779
116.19601,0.78434
115.95494,0.77542
115.71387,0.76276
115.47280,0.74961
115.23173,0.73798
114.99066,0.72683
114.74958,0.71442
114.50851,0.70227
114.26744,0.69492
114.02637,0.69487
113.78530,0.69972
113.54423,0.70497
113.30316,0.70845
113.06209,0.71012
112.82102,0.70879
112.57995,0.70352
112.33888,0.69587
112.09781,0.68787
111.85674,0.68104
111.61567,0.67752
111.37460,0.67828
111.13353,0.68035
110.89246,0.68048
110.65139,0.68124
110.41031,0.68877
110.16924,0.70391
109.92817,0.71876
109.68710,0.72251
109.44603,0.71072
109.20496,0.68751
108.96389,0.65939
108.72282,0.62978
108.48175,0.60055
108.24068,0.57485
107.99961,0.55602
107.75854,0.54510
107.51747,0.54027
107.27640,0.53735
107.03533,0.53143
106.79426,0.51913
106.55319,0.49999
106.31212,0.47647
106.07104,0.45276
105.82997,0.43305
105.58890,0.42033
105.34783,0.41607
105.10676,0.41924
104.86569,0.42499
104.62462,0.42580
104.38355,0.41581
104.14248,0.39503
103.90141,0.36992
103.66034,0.34963
103.41927,0.34095
103.17820,0.34388
102.93713,0.35087
102.69606,0.35235
102.45499,0.34526
102.21392,0.33404
101.97285,0.32379
101.73177,0.31632
101.49070,0.31157
101.24963,0.30903
101.00856,0.30768
100.76749,0.30535
100.52642,0.29897
100.28535,0.28778
100.04428,0.27618
99.80321,0.27052
99.56214,0.27281
99.32107,0.27842
99.08000,0.27927
98.83893,0.27167
98.59786,0.26101
98.35679,0.25575
98.11572,0.25940
97.87465,0.26747
97.63358,0.27057
97.39250,0.26479
97.15143,0.25796
96.91036,0.26034
96.66929,0.27281
96.42822,0.28566
96.18715,0.28902
95.94608,0.28529
95.70501,0.28557
95.46394,0.29562
95.22287,0.31012
94.98180,0.31898
94.74073,0.31976
94.49966,0.31935
94.25859,0.32192
94.01752,0.32382
93.77645,0.32248
93.53538,0.32295
93.29431,0.32879
93.05323,0.33389
92.81216,0.33118
92.57109,0.32562
92.33002,0.32684
92.08895,0.33431
91.84788,0.33882
91.60681,0.33733
91.36574,0.33739
91.12467,0.34478
90.88360,0.35706
90.64253,0.37119
90.40146,0.39052
90.16039,0.41831
89.91932,0.45275
89.67825,0.49417
89.43718,0.54526
89.19611,0.59786
88.95504,0.63884
88.71396,0.67164
88.47289,0.70316
88.23182,0.72130
87.99075,0.71287
87.74968,0.68434
87.50861,0.64611
87.26754,0.60506
87.02647,0.56897
86.78540,0.53975
86.54433,0.51190
86.30326,0.48237
86.06219,0.45290
85.82112,0.42454
85.58005,0.39817
85.33898,0.37600
85.09791,0.35848
84.85684,0.34339
84.61577,0.32852
84.37469,0.31275
84.13362,0.29624
83.89255,0.28090
83.65148,0.26896
83.41041,0.26044
83.16934,0.25325
82.92827,0.24601
82.68720,0.23914
82.44613,0.23302
82.20506,0.22681
81.96399,0.22025
81.72292,0.21466
81.48185,0.21082
81.24078,0.20762
80.99971,0.20391
80.75864,0.19994
80.51757,0.19683
80.27650,0.19547
80.03542,0.19583
79.79435,0.19678
79.55328,0.19702
79.31221,0.19564
79.07114,0.19229
78.83007,0.18810
78.58900,0.18544
78.34793,0.18525
78.10686,0.18536
77.86579,0.18268
77.62472,0.17651
77.38365,0.16957
77.14258,0.16587
76.90151,0.16689
76.66044,0.16993
76.41937,0.17100
76.17830,0.16892
75.93723,0.16538
75.69615,0.16197
75.45508,0.15976
75.21401,0.16049
74.97294,0.16500
74.73187,0.17087
74.49080,0.17399
74.24973,0.17282
74.00866,0.17004
73.76759,0.16932
73.52652,0.17123
73.28545,0.17236
73.04438,0.16837
72.80331,0.15910
72.56224,0.14915
72.32117,0.14389
72.08010,0.14604
71.83903,0.15432
71.59796,0.16464
71.35688,0.17323
71.11581,0.17811
70.87474,0.17801
70.63367,0.17329
70.39260,0.16854
70.15153,0.17080
69.91046,0.18370
69.66939,0.20436
69.42832,0.22657
69.18725,0.24494
68.94618,0.25536
68.70511,0.25488
68.46404,0.24446
68.22297,0.22874
67.98190,0.21167
67.74083,0.19502
67.49976,0.18007
67.25869,0.16751
67.01761,0.15629
66.77654,0.14519
66.53547,0.13560
66.29440,0.13035
66.05333,0.13038
65.81226,0.13448
65.57119,0.14154
65.33012,0.15102
65.08905,0.16216
64.84798,0.17421
64.60691,0.18714
64.36584,0.20092
64.12477,0.21398
63.88370,0.22286
63.64263,0.22429
63.40156,0.21767
63.16049,0.20599
62.91942,0.19403
62.67834,0.18445
62.43727,0.17587
62.19620,0.16566
61.95513,0.15368
61.71406,0.14177
61.47299,0.13114
61.23192,0.12224
60.99085,0.11589
60.74978,0.11296
60.50871,0.11298
60.26764,0.11407
60.02657,0.11443
59.78550,0.11397
59.54443,0.11398
59.30336,0.11580
59.06229,0.12050
58.82122,0.12858
58.58015,0.13932
58.33907,0.15159
58.09800,0.16555
57.85693,0.18222
57.61586,0.20025
57.37479,0.21335
57.13372,0.21386
56.89265,0.20092
56.65158,0.17989
56.41051,0.15526
56.16944,0.13039
55.92837,0.10943
55.68730,0.09492
55.44623,0.08702
55.20516,0.08648
54.96409,0.09552
54.72302,0.11521
54.48195,0.14517
54.24088,0.18423
53.99980,0.22205
53.75873,0.22982
53.51766,0.19394
53.27659,0.14392
53.03552,0.10715
52.79445,0.09158
52.55338,0.09714
52.31231,0.12326
52.07124,0.16548
51.83017,0.20486
51.58910,0.20875
51.34803,0.16873
51.10696,0.11552
50.86589,0.07847
50.62482,0.07056
50.38375,0.09532
50.14268,0.15072
49.90161,0.20700
49.66053,0.19340
49.41946,0.12642
49.17839,0.08274
48.93732,0.09023
48.69625,0.14555
48.45518,0.20200
48.21411,0.17609
47.97304,0.11632
47.73197,0.09682
47.49090,0.12987
47.24983,0.17625
47.00876,0.16365
46.76769,0.11885
46.52662,0.10517
46.28555,0.11905
46.04448,0.12003
45.80341,0.10485
45.56234,0.10767
45.32126,0.12637
45.08019,0.12187
44.83912,0.10243
44.59805,0.10858
44.35698,0.13406
44.11591,0.13971
43.87484,0.12492
43.63377,0.11917
43.39270,0.12459
43.15163,0.13278
42.91056,0.14628
42.66949,0.15939
42.42842,0.15930
42.18735,0.15127
41.94628,0.14185
41.70521,0.12870
41.46414,0.11448
41.22307,0.10646
40.98199,0.10781
40.74092,0.11765
40.49985,0.13106
40.25878,0.13869
40.01771,0.13502
39.77664,0.12610
39.53557,0.12402
39.29450,0.13477
39.05343,0.15370
38.81236,0.17195
38.57129,0.18481
38.33022,0.19192
38.08915,0.19553
37.84808,0.20160
37.60701,0.21346
37.36594,0.22346
37.12487,0.22167
36.88380,0.20964
36.64272,0.19855
36.40165,0.19952
36.16058,0.21239
35.91951,0.22590
35.67844,0.23126
35.43737,0.22918
35.19630,0.22530
34.95523,0.22492
34.71416,0.22743
34.47309,0.22728
34.23202,0.22438
33.99095,0.22312
33.74988,0.21773
33.50881,0.19657
33.26774,0.16372
33.02667,0.13803
32.78560,0.13063
32.54453,0.14011
32.30345,0.16324
32.06238,0.18736
31.82131,0.19327
31.58024,0.17936
31.33917,0.15821
31.09810,0.13774
30.85703,0.11793
30.61596,0.09676
30.37489,0.07494
30.13382,0.05846
29.89275,0.06066
29.65168,0.08683
29.41061,0.11607
29.16954,0.12159
28.92847,0.10220
28.68740,0.07692
28.44633,0.05719
28.20526,0.04191
27.96418,0.02698
27.72311,0.01014
27.48204,-0.00591
27.24097,-0.01437
26.99990,-0.01067
26.75883,-0.00293
26.51776,-0.00901
26.27669,-0.03183
26.03562,-0.05286
25.79455,-0.05474
25.55348,-0.04006
25.31241,-0.02223
25.07134,-0.01231
24.83027,-0.01360
24.58920,-0.01990
24.34813,-0.03080
24.10706,-0.05261
23.86599,-0.08037
23.62491,-0.10200
23.38384,-0.11990
23.14277,-0.15058
22.90170,-0.19391
22.66063,-0.22666
22.41956,-0.23690
22.17849,-0.23903
21.93742,-0.24518
21.69635,-0.25204
21.45528,-0.25436
21.21421,-0.24912
20.97314,-0.23555
20.73207,-0.22334
20.49100,-0.22668
20.24993,-0.25092
20.00886,-0.28729
19.76779,-0.32648
19.52672,-0.36317
19.28564,-0.37060
19.04457,-0.33371
18.80350,-0.29354
18.56243,-0.29338
18.32136,-0.33556
18.08029,-0.39183
17.83922,-0.43403
17.59815,-0.44274
17.35708,-0.41571
17.11601,-0.37524
16.87494,-0.34668
16.63387,-0.33754
16.39280,-0.34803
16.15173,-0.37094
15.91066,-0.38415
15.66959,-0.37195
15.42852,-0.35360
15.18745,-0.35509
14.94637,-0.38490
14.70530,-0.42454
14.46423,-0.44993
14.22316,-0.45160
13.98209,-0.43804
13.74102,-0.43661
13.49995,-0.46279
13.25888,-0.48974
13.01781,-0.48031
12.77674,-0.44756
12.53567,-0.43754
12.29460,-0.47627
12.05353,-0.53033
11.81246,-0.47595
11.57139,-0.40494
11.33032,-0.37727
11.08925,-0.38073
10.84818,-0.39899
10.60710,-0.40602
10.36603,-0.38219
10.12496,-0.36087
9.88389,-0.34858
9.64282,-0.34966
9.40175,-0.37265
9.16068,-0.40468
8.91961,-0.40184
8.67854,-0.36527
8.43747,-0.36052
8.19640,-0.40208
7.95533,-0.43231
7.71426,-0.44008
7.47319,-0.42363
7.23212,-0.38909
6.99105,-0.36672
6.74998,-0.38718
6.50891,-0.42801
6.26783,-0.39592
6.02676,-0.35366
5.78569,-0.35125
5.54462,-0.36848
5.30355,-0.36388
5.06248,-0.34942
4.82141,-0.35069
4.58034,-0.36406
4.33927,-0.39110
4.09820,-0.41219
3.85713,-0.39723
3.61606,-0.37423
3.37499,-0.38585
3.13392,-0.42387
2.89285,-0.44470
2.65178,-0.38833
2.41071,-0.34343
2.16964,-0.35015
1.92856,-0.36501
1.68749,-0.36103
1.44642,-0.36123
1.20535,-0.37767
0.96428,-0.40948
0.72321,-0.44715
0.48214,-0.47821
0.24107,-0.45950
-0.00000,-0.07089
