399.69498,1.88150
399.45391,1.86473
399.21284,1.82130
398.97177,1.78295
398.73070,1.75930
398.48963,1.76088
398.24856,1.75884
398.00749,1.74363
397.76642,1.73633
397.52535,1.72579
397.28428,1.70782
397.04321,1.71101
396.80214,1.75404
396.56107,1.82051
396.32000,1.83992
396.07892,1.79418
395.83785,1.76730
395.59678,1.78580
395.35571,1.79984
395.11464,1.77385
394.87357,1.73046
394.63250,1.71274
394.39143,1.73966
394.15036,1.78727
393.90929,1.80115
393.66822,1.76996
393.42715,1.75742
393.18608,1.77566
392.94501,1.75805
392.70394,1.75257
392.46287,1.77257
392.22180,1.78964
391.98073,1.74570
391.73965,1.74802
391.49858,1.80384
391.25751,1.84095
391.01644,1.79988
390.77537,1.74350
390.53430,1.70385
390.29323,1.68343
390.05216,1.67452
389.81109,1.66622
389.57002,1.63859
389.32895,1.58349
389.08788,1.55737
388.84681,1.59646
388.60574,1.67243
388.36467,1.70689
388.12360,1.65016
387.88253,1.56123
387.64146,1.50867
387.40038,1.51069
387.15931,1.54236
386.91824,1.57055
386.67717,1.59507
386.43610,1.58988
386.19503,1.59742
385.95396,1.62947
385.71289,1.60856
385.47182,1.56337
385.23075,1.53139
384.98968,1.50695
384.74861,1.48212
384.50754,1.46806
384.26647,1.48169
384.02540,1.51374
383.78433,1.54831
383.54326,1.58985
383.30219,1.62314
383.06111,1.57325
382.82004,1.55279
382.57897,1.57190
382.33790,1.60044
382.09683,1.59685
381.85576,1.55650
381.61469,1.49399
381.37362,1.46016
381.13255,1.47481
380.89148,1.51277
380.65041,1.53799
380.40934,1.51052
380.16827,1.48397
379.92720,1.47893
379.68613,1.46388
379.44506,1.44071
379.20399,1.43709
378.96292,1.45595
378.72184,1.48306
378.48077,1.54430
378.23970,1.63345
377.99863,1.66178
377.75756,1.57430
377.51649,1.51890
377.27542,1.52183
377.03435,1.54354
376.79328,1.54541
376.55221,1.54869
376.31114,1.58138
376.07007,1.63234
375.82900,1.64070
375.58793,1.62903
375.34686,1.66442
375.10579,1.73198
374.86472,1.74336
374.62365,1.70778
374.38257,1.68893
374.14150,1.67804
373.90043,1.66442
373.65936,1.65457
373.41829,1.64514
373.17722,1.63211
372.93615,1.62994
372.69508,1.64514
372.45401,1.66953
372.21294,1.69421
371.97187,1.70385
371.73080,1.67234
371.48973,1.61756
371.24866,1.58330
371.00759,1.58306
370.76652,1.59293
370.52545,1.58619
370.28437,1.56930
370.04330,1.57598
369.80223,1.61172
369.56116,1.64137
369.32009,1.64296
369.07902,1.64152
368.83795,1.65557
368.59688,1.66973
368.35581,1.65758
368.11474,1.61156
367.87367,1.55464
367.63260,1.52163
367.39153,1.52771
367.15046,1.55600
366.90939,1.57381
366.66832,1.56310
366.42725,1.53680
366.18618,1.52837
365.94510,1.55524
365.70403,1.59270
365.46296,1.59361
365.22189,1.56956
364.98082,1.56085
364.73975,1.58174
364.49868,1.60357
364.25761,1.58753
364.01654,1.54100
363.77547,1.50257
363.53440,1.48605
363.29333,1.48008
363.05226,1.48321
362.81119,1.50272
362.57012,1.53222
362.32905,1.54792
362.08798,1.52739
361.84691,1.48493
361.60583,1.45229
361.36476,1.43745
361.12369,1.44844
360.88262,1.48017
360.64155,1.49987
360.40048,1.49361
360.15941,1.48054
359.91834,1.47181
359.67727,1.46279
359.43620,1.45775
359.19513,1.46807
358.95406,1.48236
358.71299,1.48199
358.47192,1.47339
358.23085,1.46758
357.98978,1.47306
357.74871,1.49293
357.50764,1.51695
357.26656,1.52523
357.02549,1.50880
356.78442,1.48353
356.54335,1.46805
356.30228,1.46568
356.06121,1.46503
355.82014,1.45645
355.57907,1.44658
355.33800,1.43751
355.09693,1.42477
354.85586,1.40600
354.61479,1.38363
354.37372,1.37045
354.13265,1.37236
353.89158,1.38293
353.65051,1.39918
353.40944,1.42773
353.16837,1.47490
352.92729,1.52581
352.68622,1.54479
352.44515,1.51252
352.20408,1.45116
351.96301,1.39829
351.72194,1.37593
351.48087,1.38666
351.23980,1.42078
350.99873,1.45895
350.75766,1.47690
350.51659,1.46646
350.27552,1.45378
350.03445,1.46395
349.79338,1.49005
349.55231,1.51458
349.31124,1.51964
349.07017,1.48872
348.82910,1.44539
348.58802,1.41934
348.34695,1.41723
348.10588,1.43145
347.86481,1.45308
347.62374,1.47298
347.38267,1.47822
347.14160,1.46537
346.90053,1.44848
346.65946,1.43875
346.41839,1.44473
346.17732,1.46702
345.93625,1.48344
345.69518,1.47624
345.45411,1.46649
345.21304,1.48364
344.97197,1.52300
344.73090,1.55695
344.48983,1.57412
344.24875,1.57553
344.00768,1.56334
343.76661,1.54949
343.52554,1.54437
343.28447,1.56618
343.04340,1.59489
342.80233,1.58148
342.56126,1.55036
342.32019,1.52640
342.07912,1.52460
341.83805,1.57092
341.59698,1.65073
341.35591,1.69253
341.11484,1.65747
340.87377,1.59485
340.63270,1.54021
340.39163,1.49429
340.15056,1.47167
339.90948,1.49755
339.66841,1.56068
339.42734,1.61098
339.18627,1.62093
338.94520,1.59843
338.70413,1.56426
338.46306,1.53878
338.22199,1.53703
337.98092,1.55905
337.73985,1.60118
337.49878,1.65887
337.25771,1.69241
337.01664,1.66669
336.77557,1.61392
336.53450,1.59200
336.29343,1.62438
336.05236,1.65811
335.81129,1.63884
335.57021,1.62968
335.32914,1.64663
335.08807,1.62777
334.84700,1.63830
334.60593,1.68875
334.36486,1.66315
334.12379,1.65560
333.88272,1.67205
333.64165,1.65387
333.40058,1.60897
333.15951,1.59458
332.91844,1.61361
332.67737,1.63254
332.43630,1.61856
332.19523,1.55044
331.95416,1.48265
331.71309,1.44280
331.47202,1.42740
331.23094,1.42971
330.98987,1.44717
330.74880,1.48062
330.50773,1.53476
330.26666,1.59067
330.02559,1.61087
329.78452,1.64985
329.54345,1.66008
329.30238,1.58324
329.06131,1.52877
328.82024,1.50988
328.57917,1.50913
328.33810,1.51556
328.09703,1.50951
327.85596,1.47293
327.61489,1.43909
327.37382,1.44240
327.13275,1.47265
326.89167,1.50188
326.65060,1.51437
326.40953,1.51898
326.16846,1.48323
325.92739,1.42895
325.68632,1.40678
325.44525,1.41928
325.20418,1.44812
324.96311,1.47113
324.72204,1.48327
324.48097,1.48985
324.23990,1.50034
323.99883,1.54309
323.75776,1.59349
323.51669,1.57117
323.27562,1.53157
323.03455,1.49121
322.79348,1.46070
322.55240,1.44366
322.31133,1.45655
322.07026,1.45268
321.82919,1.40720
321.58812,1.36614
321.34705,1.35030
321.10598,1.35819
320.86491,1.39489
320.62384,1.46981
320.38277,1.56811
320.14170,1.63799
319.90063,1.67487
319.65956,1.65886
319.41849,1.63920
319.17742,1.66529
318.93635,1.68498
318.69528,1.60911
318.45421,1.53424
318.21313,1.53142
317.97206,1.58604
317.73099,1.62105
317.48992,1.59699
317.24885,1.55720
317.00778,1.49794
316.76671,1.44639
316.52564,1.40685
316.28457,1.42280
316.04350,1.52840
315.80243,1.68459
315.56136,1.74701
315.32029,1.70903
315.07922,1.63731
314.83815,1.56862
314.59708,1.51152
314.35601,1.49664
314.11494,1.53476
313.87386,1.59947
313.63279,1.57599
313.39172,1.54729
313.15065,1.54515
312.90958,1.55556
312.66851,1.58413
312.42744,1.59961
312.18637,1.57529
311.94530,1.52675
311.70423,1.49895
311.46316,1.53119
311.22209,1.60885
310.98102,1.65844
310.73995,1.64175
310.49888,1.59547
310.25781,1.55357
310.01674,1.55040
309.77567,1.55923
309.53459,1.56136
309.29352,1.59507
309.05245,1.69566
308.81138,1.81589
308.57031,1.83876
308.32924,1.72923
308.08817,1.61473
307.84710,1.55865
307.60603,1.54822
307.36496,1.56928
307.12389,1.61206
306.88282,1.65146
306.64175,1.66155
306.40068,1.64795
306.15961,1.63268
305.91854,1.62316
305.67747,1.61829
305.43640,1.62927
305.19532,1.64949
304.95425,1.63734
304.71318,1.57140
304.47211,1.50256
304.23104,1.49412
303.98997,1.56661
303.74890,1.68444
303.50783,1.73330
303.26676,1.64325
303.02569,1.55760
302.78462,1.50984
302.54355,1.49441
302.30248,1.50438
302.06141,1.52464
301.82034,1.53896
301.57927,1.53304
301.33820,1.50729
301.09713,1.47532
300.85605,1.44937
300.61498,1.44534
300.37391,1.47176
300.13284,1.51817
299.89177,1.55996
299.65070,1.56417
299.40963,1.52294
299.16856,1.47108
298.92749,1.43662
298.68642,1.42873
298.44535,1.44429
298.20428,1.47162
297.96321,1.48617
297.72214,1.46733
297.48107,1.42781
297.24000,1.39933
296.99893,1.40199
296.75786,1.42936
296.51678,1.44992
296.27571,1.42735
296.03464,1.37900
295.79357,1.35342
295.55250,1.35944
295.31143,1.37978
295.07036,1.39235
294.82929,1.38353
294.58822,1.36670
294.34715,1.36532
294.10608,1.38572
293.86501,1.41169
293.62394,1.42052
293.38287,1.40298
293.14180,1.37271
292.90073,1.35034
292.65966,1.34238
292.41859,1.35096
292.17751,1.37327
291.93644,1.38081
291.69537,1.34925
291.45430,1.30676
291.21323,1.29140
290.97216,1.31512
290.73109,1.35868
290.49002,1.38025
290.24895,1.36323
290.00788,1.33450
289.76681,1.31909
289.52574,1.31892
289.28467,1.32011
289.04360,1.31682
288.80253,1.32230
288.56146,1.34618
288.32039,1.37750
288.07932,1.38880
287.83824,1.36759
287.59717,1.33662
287.35610,1.32113
287.11503,1.32638
286.87396,1.33783
286.63289,1.33498
286.39182,1.31802
286.15075,1.30687
285.90968,1.31063
285.66861,1.31766
285.42754,1.31480
285.18647,1.30312
284.94540,1.29229
284.70433,1.28722
284.46326,1.28407
284.22219,1.27666
283.98112,1.26466
283.74005,1.25323
283.49897,1.24731
283.25790,1.24836
283.01683,1.25491
282.77576,1.26533
282.53469,1.27833
282.29362,1.29123
282.05255,1.29979
281.81148,1.30260
281.57041,1.30376
281.32934,1.30444
281.08827,1.29919
280.84720,1.28487
280.60613,1.26771
280.36506,1.25810
280.12399,1.26003
279.88292,1.27020
279.64185,1.28576
279.40078,1.30574
279.15970,1.32330
278.91863,1.32782
278.67756,1.31948
278.43649,1.30789
278.19542,1.29691
277.95435,1.28346
277.71328,1.26719
277.47221,1.25470
277.23114,1.25355
276.99007,1.26333
276.74900,1.27305
276.50793,1.27130
276.26686,1.26059
276.02579,1.25142
275.78472,1.24636
275.54365,1.24306
275.30258,1.24188
275.06151,1.24208
274.82043,1.24166
274.57936,1.24401
274.33829,1.25737
274.09722,1.28271
273.85615,1.30555
273.61508,1.30857
273.37401,1.29545
273.13294,1.28636
272.89187,1.28904
272.65080,1.29360
272.40973,1.29420
272.16866,1.29611
271.92759,1.29871
271.68652,1.29347
271.44545,1.28276
271.20438,1.27832
270.96331,1.28179
270.72224,1.28649
270.48116,1.29119
270.24009,1.29815
269.99902,1.30496
269.75795,1.30746
269.51688,1.31076
269.27581,1.32242
269.03474,1.33491
268.79367,1.33341
268.55260,1.31769
268.31153,1.30267
268.07046,1.30230
267.82939,1.31829
267.58832,1.33971
267.34725,1.35261
267.10618,1.35198
266.86511,1.34394
266.62404,1.33887
266.38297,1.34302
266.14189,1.35331
265.90082,1.36059
265.65975,1.36131
265.41868,1.36226
265.17761,1.36996
264.93654,1.38225
264.69547,1.39574
264.45440,1.41735
264.21333,1.45796
263.97226,1.51462
263.73119,1.56509
263.49012,1.58533
263.24905,1.57625
263.00798,1.56327
262.76691,1.57262
262.52584,1.60524
262.28477,1.63339
262.04370,1.63257
261.80262,1.61129
261.56155,1.59618
261.32048,1.60388
261.07941,1.63540
260.83834,1.68319
260.59727,1.73363
260.35620,1.77582
260.11513,1.79828
259.87406,1.78831
259.63299,1.76915
259.39192,1.76317
259.15085,1.77592
258.90978,1.81432
258.66871,1.87105
258.42764,1.93029
258.18657,1.99469
257.94550,2.05280
257.70443,2.07560
257.46335,2.08556
257.22228,2.11704
256.98121,2.13918
256.74014,2.10532
256.49907,2.03533
256.25800,1.98033
256.01693,1.94359
255.77586,1.88949
255.53479,1.83735
255.29372,1.81005
255.05265,1.80715
254.81158,1.82062
254.57051,1.83445
254.32944,1.83591
254.08837,1.82384
253.84730,1.80706
253.60623,1.80335
253.36516,1.83094
253.12408,1.88809
252.88301,1.93144
252.64194,1.90234
252.40087,1.85786
252.15980,1.84072
251.91873,1.85377
251.67766,1.89307
251.43659,1.83549
251.19552,1.74120
250.95445,1.70003
250.71338,1.72088
250.47231,1.77155
250.23124,1.81124
249.99017,1.82384
249.74910,1.82029
249.50803,1.80178
249.26696,1.77156
249.02589,1.73998
248.78481,1.70432
248.54374,1.67563
248.30267,1.66738
248.06160,1.68134
247.82053,1.70409
247.57946,1.71310
247.33839,1.71757
247.09732,1.73632
246.85625,1.76869
246.61518,1.78954
246.37411,1.79674
246.13304,1.80953
245.89197,1.84023
245.65090,1.85947
245.40983,1.83400
245.16876,1.80722
244.92769,1.80136
244.68661,1.77756
244.44554,1.73050
244.20447,1.70213
243.96340,1.71703
243.72233,1.76735
243.48126,1.82587
243.24019,1.85396
242.99912,1.82080
242.75805,1.76324
242.51698,1.75065
242.27591,1.80469
242.03484,1.84865
241.79377,1.75701
241.55270,1.62887
241.31163,1.52696
241.07056,1.46841
240.82949,1.44956
240.58842,1.44283
240.34734,1.41598
240.10627,1.36893
239.86520,1.32461
239.62413,1.29269
239.38306,1.26317
239.14199,1.23072
238.90092,1.20733
238.65985,1.20242
238.41878,1.20859
238.17771,1.20716
237.93664,1.18882
237.69557,1.16503
237.45450,1.14860
237.21343,1.13736
236.97236,1.12077
236.73129,1.09796
236.49022,1.07961
236.24915,1.07033
236.00807,1.06291
235.76700,1.05062
235.52593,1.03557
235.28486,1.02405
235.04379,1.01927
234.80272,1.01771
234.56165,1.01455
234.32058,1.01064
234.07951,1.00828
233.83844,1.00492
233.59737,0.99766
233.35630,0.98926
233.11523,0.98354
232.87416,0.97926
232.63309,0.97193
232.39202,0.96404
232.15095,0.96447
231.90988,0.97325
231.66880,0.97540
231.42773,0.95683
231.18666,0.92670
230.94559,0.90625
230.70452,0.90133
230.46345,0.89949
230.22238,0.89079
229.98131,0.88309
229.74024,0.89075
229.49917,0.91405
229.25810,0.93681
229.01703,0.94734
228.77596,0.94982
228.53489,0.95161
228.29382,0.95230
228.05275,0.95021
227.81168,0.94954
227.57061,0.94967
227.32953,0.94277
227.08846,0.93012
226.84739,0.92189
226.60632,0.91835
226.36525,0.91150
226.12418,0.90121
225.88311,0.89493
225.64204,0.89388
225.40097,0.89369
225.15990,0.89505
224.91883,0.90067
224.67776,0.90531
224.43669,0.90312
224.19562,0.90192
223.95455,0.91432
223.71348,0.93453
223.47241,0.94326
223.23134,0.93507
222.99026,0.91879
222.74919,0.90262
222.50812,0.89398
222.26705,0.89623
222.02598,0.90356
221.78491,0.91015
221.54384,0.91960
221.30277,0.93501
221.06170,0.94989
220.82063,0.95973
220.57956,0.96963
220.33849,0.98281
220.09742,0.99484
219.85635,1.00074
219.61528,0.99972
219.37421,0.99437
219.13314,0.98883
218.89207,0.98869
218.65099,1.00098
218.40992,1.03099
218.16885,1.07657
217.92778,1.12229
217.68671,1.14211
217.44564,1.12607
217.20457,1.09679
216.96350,1.08080
216.72243,1.08571
216.48136,1.10350
216.24029,1.12487
215.99922,1.14633
215.75815,1.16488
215.51708,1.17819
215.27601,1.19003
215.03494,1.20462
214.79387,1.21754
214.55280,1.22294
214.31172,1.22196
214.07065,1.21773
213.82958,1.21370
213.58851,1.21301
213.34744,1.21612
213.10637,1.22180
212.86530,1.22973
212.62423,1.23901
212.38316,1.24554
212.14209,1.25159
211.90102,1.26382
211.65995,1.27571
211.41888,1.27084
211.17781,1.24916
210.93674,1.22435
210.69567,1.21025
210.45460,1.21814
210.21353,1.25030
209.97245,1.29482
209.73138,1.33129
209.49031,1.34011
209.24924,1.31036
209.00817,1.26067
208.76710,1.22720
208.52603,1.22460
208.28496,1.24237
208.04389,1.26787
207.80282,1.29773
207.56175,1.32235
207.32068,1.31892
207.07961,1.27884
206.83854,1.22194
206.59747,1.16997
206.35640,1.13595
206.11533,1.12903
205.87426,1.15004
205.63318,1.18582
205.39211,1.20824
205.15104,1.19095
204.90997,1.14841
204.66890,1.10968
204.42783,1.08393
204.18676,1.07186
203.94569,1.07389
203.70462,1.08478
203.46355,1.09079
203.22248,1.08012
202.98141,1.05745
202.74034,1.03980
202.49927,1.03546
202.25820,1.03386
202.01713,1.01972
201.77606,0.99230
201.53499,0.96341
201.29391,0.94167
201.05284,0.92634
200.81177,0.91344
200.57070,0.90418
200.32963,0.90269
200.08856,0.90297
199.84749,0.88874
199.60642,0.85718
199.36535,0.82608
199.12428,0.81388
198.88321,0.82711
198.64214,0.85789
198.40107,0.88347
198.16000,0.88095
197.91893,0.85452
197.67786,0.82465
197.43679,0.80449
197.19572,0.79887
196.95464,0.80431
196.71357,0.80551
196.47250,0.79000
196.23143,0.76615
195.99036,0.74921
195.74929,0.74653
195.50822,0.75419
195.26715,0.75773
195.02608,0.74519
194.78501,0.72406
194.54394,0.71229
194.30287,0.71782
194.06180,0.73042
193.82073,0.72947
193.57966,0.71127
193.33859,0.69427
193.09752,0.69231
192.85645,0.70236
192.61537,0.70732
192.37430,0.69429
192.13323,0.67394
191.89216,0.66432
191.65109,0.66848
191.41002,0.67403
191.16895,0.66996
190.92788,0.66106
190.68681,0.65695
190.44574,0.65710
190.20467,0.65355
189.96360,0.64429
189.72253,0.63731
189.48146,0.63964
189.24039,0.64804
188.99932,0.65106
188.75825,0.64280
188.51718,0.63165
188.27610,0.62775
188.03503,0.62953
187.79396,0.62913
187.55289,0.62559
187.31182,0.62484
187.07075,0.62930
186.82968,0.63465
186.58861,0.63633
186.34754,0.63566
186.10647,0.63552
185.86540,0.63378
185.62433,0.62788
185.38326,0.62316
185.14219,0.62734
184.90112,0.63704
184.66005,0.64065
184.41898,0.63746
184.17791,0.63850
183.93683,0.64695
183.69576,0.65269
183.45469,0.64856
183.21362,0.64357
182.97255,0.64713
182.73148,0.65172
182.49041,0.64530
182.24934,0.63307
182.00827,0.62792
181.76720,0.63064
181.52613,0.63209
181.28506,0.63030
181.04399,0.63147
180.80292,0.63712
180.56185,0.64258
180.32078,0.64675
180.07971,0.65243
179.83864,0.65663
179.59756,0.65507
179.35649,0.65295
179.11542,0.65740
178.87435,0.66663
178.63328,0.67642
178.39221,0.68794
178.15114,0.70074
177.91007,0.71109
177.66900,0.72165
177.42793,0.73681
177.18686,0.75228
176.94579,0.76275
176.70472,0.77059
176.46365,0.78028
176.22258,0.79453
175.98151,0.81492
175.74044,0.83690
175.49937,0.85043
175.25829,0.85284
175.01722,0.85354
174.77615,0.86210
174.53508,0.87763
174.29401,0.89099
174.05294,0.89754
173.81187,0.90441
173.57080,0.91967
173.32973,0.94087
173.08866,0.96124
172.84759,0.98202
172.60652,1.00811
172.36545,1.03500
172.12438,1.04937
171.88331,1.04529
171.64224,1.03523
171.40117,1.03163
171.16010,1.02800
170.91902,1.01217
170.67795,0.98840
170.43688,0.96737
170.19581,0.94835
169.95474,0.92644
169.71367,0.90593
169.47260,0.89622
169.23153,0.90137
168.99046,0.91803
168.74939,0.93894
168.50832,0.95649
168.26725,0.96603
168.02618,0.96823
167.78511,0.96793
167.54404,0.96941
167.30297,0.96983
167.06190,0.96098
166.82083,0.94176
166.57975,0.92241
166.33868,0.91250
166.09761,0.91308
165.85654,0.92141
165.61547,0.93583
165.37440,0.95565
165.13333,0.97979
164.89226,1.00471
164.65119,1.02249
164.41012,1.02567
164.16905,1.01787
163.92798,1.00828
163.68691,0.99901
163.44584,0.99109
163.20477,0.99159
162.96370,1.00496
162.72263,1.02695
162.48156,1.05057
162.24048,1.06974
161.99941,1.07929
161.75834,1.07761
161.51727,1.06642
161.27620,1.04864
161.03513,1.03090
160.79406,1.02089
160.55299,1.01854
160.31192,1.01561
160.07085,1.00661
159.82978,0.99729
159.58871,0.99921
159.34764,1.01819
159.10657,1.04719
158.86550,1.06713
158.62443,1.06132
158.38336,1.03729
158.14229,1.01231
157.90121,0.99183
157.66014,0.97575
157.41907,0.96603
157.17800,0.96665
156.93693,0.98032
156.69586,1.00098
156.45479,1.00760
156.21372,0.98804
155.97265,0.95855
155.73158,0.93646
155.49051,0.92625
155.24944,0.92400
155.00837,0.92569
154.76730,0.93142
154.52623,0.93714
154.28516,0.93005
154.04409,0.90647
153.80302,0.87743
153.56194,0.85326
153.32087,0.83867
153.07980,0.83366
152.83873,0.83342
152.59766,0.83133
152.35659,0.82301
152.11552,0.80769
151.87445,0.78793
151.63338,0.76815
151.39231,0.75130
151.15124,0.73754
150.91017,0.72644
150.66910,0.71692
150.42803,0.70620
150.18696,0.69348
149.94589,0.68250
149.70482,0.67766
149.46375,0.67673
149.22267,0.66952
148.98160,0.65012
148.74053,0.62632
148.49946,0.60936
148.25839,0.60399
148.01732,0.60878
147.77625,0.61731
147.53518,0.61834
147.29411,0.60469
147.05304,0.58447
146.81197,0.57318
146.57090,0.57825
146.32983,0.59422
146.08876,0.60777
145.84769,0.61127
145.60662,0.61180
145.36555,0.61842
145.12448,0.62946
144.88340,0.63440
144.64233,0.62661
144.40126,0.61468
144.16019,0.61286
143.91912,0.62501
143.67805,0.64188
143.43698,0.65012
143.19591,0.64548
142.95484,0.63487
142.71377,0.62539
142.47270,0.61726
142.23163,0.60737
141.99056,0.59652
141.74949,0.58806
141.50842,0.58179
141.26735,0.57468
141.02628,0.56695
140.78521,0.56246
140.54413,0.56248
140.30306,0.56308
140.06199,0.56015
139.82092,0.55486
139.57985,0.55204
139.33878,0.55361
139.09771,0.55639
138.85664,0.55743
138.61557,0.55906
138.37450,0.56550
138.13343,0.57703
137.89236,0.59086
137.65129,0.60542
137.41022,0.61962
137.16915,0.63055
136.92808,0.63808
136.68701,0.64850
136.44594,0.66677
136.20486,0.68895
135.96379,0.70819
135.72272,0.72701
135.48165,0.75236
135.24058,0.78227
134.99951,0.81164
134.75844,0.84330
134.51737,0.87860
134.27630,0.91101
134.03523,0.93879
133.79416,0.96654
133.55309,0.99125
133.31202,1.00710
133.07095,1.01806
132.82988,1.02904
132.58881,1.03638
132.34774,1.03890
132.10667,1.04165
131.86559,1.04573
131.62452,1.04868
131.38345,1.05027
131.14238,1.05405
130.90131,1.06587
130.66024,1.08538
130.41917,1.10156
130.17810,1.10494
129.93703,1.09514
129.69596,1.07083
129.45489,1.03170
129.21382,0.98536
128.97275,0.94026
128.73168,0.90048
128.49061,0.86762
128.24954,0.84235
128.00847,0.82325
127.76740,0.80619
127.52632,0.78628
127.28525,0.76193
127.04418,0.73680
126.80311,0.71441
126.56204,0.69349
126.32097,0.67241
126.07990,0.65393
125.83883,0.64130
125.59776,0.63203
125.35669,0.61956
125.11562,0.60112
124.87455,0.58016
124.63348,0.56155
124.39241,0.54717
124.15134,0.53624
123.91027,0.52763
123.66920,0.52073
123.42812,0.51478
123.18705,0.50896
122.94598,0.50331
122.70491,0.49863
122.46384,0.49473
122.22277,0.49014
121.98170,0.48434
121.74063,0.47939
121.49956,0.47833
121.25849,0.48283
121.01742,0.49164
120.77635,0.50125
120.53528,0.51011
120.29421,0.52057
120.05314,0.53454
119.81207,0.55012
119.57100,0.56564
119.32993,0.58333
119.08885,0.60656
118.84778,0.63645
118.60671,0.67069
118.36564,0.70316
118.12457,0.72892
117.88350,0.75101
117.64243,0.77425
117.40136,0.79595
117.16029,0.80856
116.91922,0.80937
116.67815,0.80176
116.43708,0.78976
116.19601,0.77608
115.95494,0.76387
115.71387,0.75690
115.47280,0.75636
115.23173,0.75881
114.99066,0.75880
114.74958,0.75382
114.50851,0.74701
114.26744,0.74620
114.02637,0.75757
113.78530,0.77647
113.54423,0.78929
113.30316,0.78850
113.06209,0.77861
112.82102,0.76543
112.57995,0.74728
112.33888,0.71975
112.09781,0.68652
111.85674,0.65871
111.61567,0.64274
111.37460,0.63720
111.13353,0.64193
110.89246,0.66073
110.65139,0.69457
110.41031,0.73750
110.16924,0.77631
109.92817,0.79392
109.68710,0.78621
109.44603,0.76555
109.20496,0.73718
108.96389,0.69746
108.72282,0.65111
108.48175,0.61281
108.24068,0.59290
107.99961,0.58902
107.75854,0.59201
107.51747,0.59661
107.27640,0.60218
107.03533,0.60323
106.79426,0.58733
106.55319,0.55129
106.31212,0.50687
106.07104,0.46530
105.82997,0.43255
105.58890,0.41426
105.34783,0.41608
105.10676,0.43806
104.86569,0.47035
104.62462,0.49348
104.38355,0.48682
104.14248,0.45126
103.90141,0.40798
103.66034,0.37235
103.41927,0.35122
103.17820,0.34843
102.93713,0.36258
102.69606,0.38387
102.45499,0.39552
102.21392,0.38430
101.97285,0.35444
101.73177,0.32152
101.49070,0.29995
101.24963,0.29779
101.00856,0.31382
100.76749,0.33535
100.52642,0.34312
100.28535,0.32937
100.04428,0.30604
99.80321,0.28870
99.56214,0.28579
99.32107,0.29733
99.08000,0.31089
98.83893,0.30531
98.59786,0.27822
98.35679,0.25309
98.11572,0.25081
97.87465,0.27667
97.63358,0.31540
97.39250,0.32881
97.15143,0.30407
96.91036,0.27739
96.66929,0.27551
96.42822,0.29995
96.18715,0.33156
95.94608,0.34179
95.70501,0.33310
95.46394,0.33535
95.22287,0.35822
94.98180,0.37975
94.74073,0.37326
94.49966,0.35114
94.25859,0.34401
94.01752,0.36057
93.77645,0.38052
93.53538,0.37926
93.29431,0.36718
93.05323,0.36721
92.81216,0.37641
92.57109,0.37212
92.33002,0.35581
92.08895,0.35297
91.84788,0.36937
91.60681,0.38234
91.36574,0.38053
91.12467,0.38550
90.88360,0.40586
90.64253,0.42032
90.40146,0.42726
90.16039,0.45669
89.91932,0.50881
89.67825,0.54122
89.43718,0.55545
89.19611,0.59445
88.95504,0.65047
88.71396,0.68707
88.47289,0.70780
88.23182,0.72510
87.99075,0.73046
87.74968,0.72240
87.50861,0.70092
87.26754,0.66180
87.02647,0.61603
86.78540,0.57885
86.54433,0.55122
86.30326,0.52652
86.06219,0.50207
85.82112,0.47819
85.58005,0.45499
85.33898,0.43295
85.09791,0.41258
84.85684,0.39381
84.61577,0.37625
84.37469,0.35930
84.13362,0.34328
83.89255,0.32929
83.65148,0.31591
83.41041,0.29894
83.16934,0.27908
82.92827,0.26325
82.68720,0.25489
82.44613,0.24985
82.20506,0.24322
81.96399,0.23522
81.72292,0.22911
81.48185,0.22568
81.24078,0.22263
80.99971,0.21854
80.75864,0.21465
80.51757,0.21219
80.27650,0.21051
80.03542,0.20922
79.79435,0.21003
79.55328,0.21369
79.31221,0.21678
79.07114,0.21448
78.83007,0.20692
78.58900,0.20021
78.34793,0.20013
78.10686,0.20637
77.86579,0.21276
77.62472,0.21413
77.38365,0.21168
77.14258,0.20867
76.90151,0.20543
76.66044,0.20297
76.41937,0.20455
76.17830,0.20959
75.93723,0.21261
75.69615,0.21059
75.45508,0.20597
75.21401,0.20155
74.97294,0.19752
74.73187,0.19263
74.49080,0.18652
74.24973,0.18266
74.00866,0.18768
73.76759,0.20550
73.52652,0.22955
73.28545,0.23694
73.04438,0.21033
72.80331,0.16897
72.56224,0.13785
72.32117,0.12740
72.08010,0.13995
71.83903,0.17080
71.59796,0.20513
71.35688,0.22340
71.11581,0.21959
70.87474,0.20693
70.63367,0.19630
70.39260,0.18933
70.15153,0.18638
69.91046,0.18893
69.66939,0.19905
69.42832,0.21861
69.18725,0.24620
68.94618,0.27529
68.70511,0.29853
68.46404,0.31170
68.22297,0.30976
67.98190,0.28765
67.74083,0.25080
67.49976,0.21093
67.25869,0.17567
67.01761,0.14779
66.77654,0.12819
66.53547,0.11922
66.29440,0.12346
66.05333,0.13782
65.81226,0.15308
65.57119,0.16348
65.33012,0.17390
65.08905,0.19390
64.84798,0.22700
64.60691,0.26717
64.36584,0.30385
64.12477,0.32713
63.88370,0.33027
63.64263,0.31232
63.40156,0.27971
63.16049,0.24407
62.91942,0.21577
62.67834,0.19822
62.43727,0.18708
62.19620,0.17531
61.95513,0.15942
61.71406,0.14034
61.47299,0.12032
61.23192,0.10167
60.99085,0.08765
60.74978,0.08165
60.50871,0.08411
60.26764,0.09038
60.02657,0.09436
59.78550,0.09509
59.54443,0.09590
59.30336,0.09775
59.06229,0.09996
58.82122,0.10680
58.58015,0.12690
58.33907,0.16555
58.09800,0.22089
57.85693,0.28880
57.61586,0.35764
57.37479,0.36696
57.13372,0.29591
56.89265,0.22351
56.65158,0.16573
56.41051,0.12193
56.16944,0.09339
55.92837,0.07745
55.68730,0.06872
55.44623,0.06472
55.20516,0.06687
54.96409,0.07805
54.72302,0.10392
54.48195,0.15447
54.24088,0.24763
53.99980,0.36067
53.75873,0.30545
53.51766,0.18328
53.27659,0.09847
53.03552,0.04672
52.79445,0.01903
52.55338,0.01753
52.31231,0.04859
52.07124,0.12010
51.83017,0.25021
51.58910,0.36942
51.34803,0.21181
51.10696,0.07332
50.86589,-0.00168
50.62482,-0.03316
50.38375,-0.02179
50.14268,0.04060
49.90161,0.19198
49.66053,0.36537
49.41946,0.15398
49.17839,0.01634
48.93732,-0.01321
48.69625,0.04334
48.45518,0.19554
48.21411,0.26155
47.97304,0.06090
47.73197,-0.04212
47.49090,-0.02212
47.24983,0.10589
47.00876,0.23743
46.76769,0.11223
46.52662,0.02600
46.28555,0.04639
46.04448,0.09187
45.80341,0.06120
45.56234,0.03668
45.32126,0.09133
45.08019,0.16921
44.83912,0.13191
44.59805,0.08232
44.35698,0.09729
44.11591,0.09888
43.87484,0.06570
43.63377,0.06688
43.39270,0.10380
43.15163,0.12571
42.91056,0.12044
42.66949,0.11368
42.42842,0.10722
42.18735,0.09675
41.94628,0.08591
41.70521,0.07675
41.46414,0.07545
41.22307,0.08688
40.98199,0.10417
40.74092,0.11288
40.49985,0.10330
40.25878,0.07980
40.01771,0.05837
39.77664,0.05208
39.53557,0.06182
39.29450,0.08379
39.05343,0.11402
38.81236,0.14101
38.57129,0.15549
38.33022,0.16124
38.08915,0.16671
37.84808,0.17994
37.60701,0.20278
37.36594,0.22456
37.12487,0.23835
36.88380,0.24772
36.64272,0.24663
36.40165,0.22317
36.16058,0.19149
35.91951,0.17898
35.67844,0.19171
35.43737,0.21735
35.19630,0.24534
34.95523,0.26597
34.71416,0.25518
34.47309,0.21091
34.23202,0.16964
33.99095,0.14774
33.74988,0.13338
33.50881,0.11826
33.26774,0.11606
33.02667,0.13721
32.78560,0.16581
32.54453,0.17691
32.30345,0.16798
32.06238,0.16000
31.82131,0.16826
31.58024,0.18070
31.33917,0.16115
31.09810,0.11413
30.85703,0.09364
30.61596,0.11281
30.37489,0.14429
30.13382,0.16058
29.89275,0.16313
29.65168,0.16929
29.41061,0.18075
29.16954,0.18228
28.92847,0.16034
28.68740,0.12340
28.44633,0.08777
28.20526,0.06808
27.96418,0.07592
27.72311,0.10757
27.48204,0.14036
27.24097,0.15602
26.99990,0.15191
26.75883,0.12632
26.51776,0.09046
26.27669,0.06696
26.03562,0.06707
25.79455,0.09560
25.55348,0.14832
25.31241,0.19793
25.07134,0.20863
24.83027,0.17007
24.58920,0.10004
24.34813,0.03330
24.10706,-0.00697
23.86599,-0.01587
23.62491,0.00023
23.38384,0.02767
23.14277,0.05008
22.90170,0.05971
22.66063,0.06300
22.41956,0.06216
22.17849,0.04239
21.93742,-0.00138
21.69635,-0.03791
21.45528,-0.03250
21.21421,0.00705
20.97314,0.04239
20.73207,0.05268
20.49100,0.03583
20.24993,-0.00457
20.00886,-0.04495
19.76779,-0.05707
19.52672,-0.04977
19.28564,-0.04605
19.04457,-0.03202
18.80350,0.01147
18.56243,0.05324
18.32136,0.05451
18.08029,0.03830
17.83922,0.02183
17.59815,0.00787
17.35708,0.00301
17.11601,0.00411
16.87494,0.00853
16.63387,0.01854
16.39280,0.03183
16.15173,0.04577
15.91066,0.06110
15.66959,0.07033
15.42852,0.05305
15.18745,0.02327
14.94637,0.01213
14.70530,0.00976
14.46423,-0.01085
14.22316,-0.05116
13.98209,-0.07411
13.74102,-0.06101
13.49995,-0.02977
13.25888,0.00045
13.01781,0.02110
12.77674,0.03186
12.53567,0.03170
12.29460,0.01833
12.05353,0.00254
11.81246,-0.00099
11.57139,0.00577
11.33032,0.00890
11.08925,-0.00847
10.84818,-0.04956
10.60710,-0.08277
10.36603,-0.07169
10.12496,-0.03225
9.88389,-0.01138
9.64282,-0.02073
9.40175,-0.03770
9.16068,-0.03853
8.91961,-0.01398
8.67854,0.01293
8.43747,0.01859
8.19640,0.02199
7.95533,0.05103
7.71426,0.08871
7.47319,0.09311
7.23212,0.04000
6.99105,-0.01683
6.74998,-0.01984
6.50891,0.02106
6.26783,0.05036
6.02676,0.03511
5.78569,-0.03876
5.54462,-0.14586
5.30355,-0.20263
5.06248,-0.17962
4.82141,-0.12608
4.58034,-0.08279
4.33927,-0.05758
4.09820,-0.03657
3.85713,-0.01256
3.61606,0.02191
3.37499,0.05888
3.13392,0.07632
2.89285,0.06935
2.65178,0.05109
2.41071,0.03470
2.16964,0.01519
1.92856,-0.01594
1.68749,-0.04625
1.44642,-0.06473
1.20535,-0.08388
0.96428,-0.10931
0.72321,-0.10686
0.48214,-0.09963
0.24107,-0.09992
-0.00000,-0.09975
