399.69498,1.46999
399.45391,1.47438
399.21284,1.48556
398.97177,1.49893
398.73070,1.50869
398.48963,1.51224
398.24856,1.51125
398.00749,1.50743
397.76642,1.50012
397.52535,1.49188
397.28428,1.48851
397.04321,1.49211
396.80214,1.50061
396.56107,1.51334
396.32000,1.53017
396.07892,1.54433
395.83785,1.54438
395.59678,1.52906
395.35571,1.50995
395.11464,1.49638
394.87357,1.48975
394.63250,1.48710
394.39143,1.48516
394.15036,1.48446
393.90929,1.48753
393.66822,1.49143
393.42715,1.48912
393.18608,1.48005
392.94501,1.47259
392.70394,1.47274
392.46287,1.47783
392.22180,1.48513
391.98073,1.49748
391.73965,1.51571
391.49858,1.53026
391.25751,1.52872
391.01644,1.51269
390.77537,1.49662
390.53430,1.49209
390.29323,1.49857
390.05216,1.50458
389.81109,1.49899
389.57002,1.48367
389.32895,1.46879
389.08788,1.45957
388.84681,1.45319
388.60574,1.44688
388.36467,1.44321
388.12360,1.44302
387.88253,1.44039
387.64146,1.43039
387.40038,1.41714
387.15931,1.40819
386.91824,1.40535
386.67717,1.40616
386.43610,1.41121
386.19503,1.42173
385.95396,1.42907
385.71289,1.41666
385.47182,1.38051
385.23075,1.33825
384.98968,1.31139
384.74861,1.30909
384.50754,1.32301
384.26647,1.33159
384.02540,1.31942
383.78433,1.29314
383.54326,1.27063
383.30219,1.26286
383.06111,1.26802
382.82004,1.27411
382.57897,1.27000
382.33790,1.25812
382.09683,1.25029
381.85576,1.25152
381.61469,1.25639
381.37362,1.26118
381.13255,1.26549
380.89148,1.26708
380.65041,1.26329
380.40934,1.25551
380.16827,1.25149
379.92720,1.25534
379.68613,1.26224
379.44506,1.26555
379.20399,1.26394
378.96292,1.26139
378.72184,1.26102
378.48077,1.26109
378.23970,1.25960
377.99863,1.26024
377.75756,1.26857
377.51649,1.28473
377.27542,1.30460
377.03435,1.32608
376.79328,1.34750
376.55221,1.36550
376.31114,1.38001
376.07007,1.39524
375.82900,1.41351
375.58793,1.42975
375.34686,1.43605
375.10579,1.42839
374.86472,1.40942
374.62365,1.39029
374.38257,1.38384
374.14150,1.39072
373.90043,1.39770
373.65936,1.39595
373.41829,1.39027
373.17722,1.38510
372.93615,1.37805
372.69508,1.36953
372.45401,1.36570
372.21294,1.37049
371.97187,1.38168
371.73080,1.39179
371.48973,1.39195
371.24866,1.37906
371.00759,1.35866
370.76652,1.34012
370.52545,1.32744
370.28437,1.31751
370.04330,1.30737
369.80223,1.29826
369.56116,1.29270
369.32009,1.29197
369.07902,1.29504
368.83795,1.29738
368.59688,1.29476
368.35581,1.28940
368.11474,1.28734
367.87367,1.28816
367.63260,1.28444
367.39153,1.27294
367.15046,1.25957
366.90939,1.25172
366.66832,1.25105
366.42725,1.25462
366.18618,1.25929
365.94510,1.26339
365.70403,1.26483
365.46296,1.26120
365.22189,1.25435
364.98082,1.25105
364.73975,1.25564
364.49868,1.26489
364.25761,1.27229
364.01654,1.27547
363.77547,1.27709
363.53440,1.27837
363.29333,1.27553
363.05226,1.26457
362.81119,1.24835
362.57012,1.23655
362.32905,1.23499
362.08798,1.23939
361.84691,1.24313
361.60583,1.24630
361.36476,1.25038
361.12369,1.25055
360.88262,1.24287
360.64155,1.23254
360.40048,1.22714
360.15941,1.22743
359.91834,1.22816
359.67727,1.22490
359.43620,1.22012
359.19513,1.22073
358.95406,1.22753
358.71299,1.23132
358.47192,1.22488
358.23085,1.21409
357.98978,1.20928
357.74871,1.21248
357.50764,1.21922
357.26656,1.22611
357.02549,1.23154
356.78442,1.23258
356.54335,1.22728
356.30228,1.21918
356.06121,1.21428
355.82014,1.21403
355.57907,1.21451
355.33800,1.21158
355.09693,1.20540
354.85586,1.20024
354.61479,1.19940
354.37372,1.20221
354.13265,1.20696
353.89158,1.21264
353.65051,1.21532
353.40944,1.20979
353.16837,1.19857
352.92729,1.19157
352.68622,1.19405
352.44515,1.20200
352.20408,1.20991
351.96301,1.21629
351.72194,1.21969
351.48087,1.21648
351.23980,1.20688
350.99873,1.19811
350.75766,1.19615
350.51659,1.19822
350.27552,1.19785
350.03445,1.19465
349.79338,1.19371
349.55231,1.19706
349.31124,1.20154
349.07017,1.20429
348.82910,1.20724
348.58802,1.21485
348.34695,1.22784
348.10588,1.24102
347.86481,1.24832
347.62374,1.24881
347.38267,1.24615
347.14160,1.24366
346.90053,1.24106
346.65946,1.23589
346.41839,1.22847
346.17732,1.22454
345.93625,1.22867
345.69518,1.23676
345.45411,1.24158
345.21304,1.24366
344.97197,1.24837
344.73090,1.25596
344.48983,1.26238
344.24875,1.26666
344.00768,1.27070
343.76661,1.27415
343.52554,1.27475
343.28447,1.27171
343.04340,1.26579
342.80233,1.26052
342.56126,1.26170
342.32019,1.27095
342.07912,1.28226
341.83805,1.28930
341.59698,1.29283
341.35591,1.29613
341.11484,1.29897
340.87377,1.30109
340.63270,1.30566
340.39163,1.31363
340.15056,1.31929
339.90948,1.31729
339.66841,1.31102
339.42734,1.30903
339.18627,1.31545
338.94520,1.32643
338.70413,1.33510
338.46306,1.33895
338.22199,1.34117
337.98092,1.34567
337.73985,1.35181
337.49878,1.35508
337.25771,1.35491
337.01664,1.35672
336.77557,1.36358
336.53450,1.37064
336.29343,1.36977
336.05236,1.35932
335.81129,1.34562
335.57021,1.33596
335.32914,1.33404
335.08807,1.33973
334.84700,1.34721
334.60593,1.34667
334.36486,1.33474
334.12379,1.31968
333.88272,1.31147
333.64165,1.31131
333.40058,1.31425
333.15951,1.31632
332.91844,1.31421
332.67737,1.30443
332.43630,1.28849
332.19523,1.27475
331.95416,1.27042
331.71309,1.27479
331.47202,1.27984
331.23094,1.27737
330.98987,1.27078
330.74880,1.27158
330.50773,1.28074
330.26666,1.28472
330.02559,1.27460
329.78452,1.25957
329.54345,1.25291
329.30238,1.25590
329.06131,1.26061
328.82024,1.25899
328.57917,1.24846
328.33810,1.23262
328.09703,1.21660
327.85596,1.20464
327.61489,1.20156
327.37382,1.20956
327.13275,1.22258
326.89167,1.23241
326.65060,1.24042
326.40953,1.25054
326.16846,1.25518
325.92739,1.24618
325.68632,1.23350
325.44525,1.23348
325.20418,1.24657
324.96311,1.25863
324.72204,1.26089
324.48097,1.25723
324.23990,1.25177
323.99883,1.24665
323.75776,1.24596
323.51669,1.25144
323.27562,1.25863
323.03455,1.26132
322.79348,1.26136
322.55240,1.26657
322.31133,1.27648
322.07026,1.28165
321.82919,1.27774
321.58812,1.27017
321.34705,1.26447
321.10598,1.26097
320.86491,1.25917
320.62384,1.26031
320.38277,1.26399
320.14170,1.26580
319.90063,1.26136
319.65956,1.25366
319.41849,1.25114
319.17742,1.25692
318.93635,1.26496
318.69528,1.27116
318.45421,1.28060
318.21313,1.29649
317.97206,1.30910
317.73099,1.30587
317.48992,1.29039
317.24885,1.27822
317.00778,1.27749
316.76671,1.28427
316.52564,1.29250
316.28457,1.29936
316.04350,1.30157
315.80243,1.29613
315.56136,1.28638
315.32029,1.27702
315.07922,1.26754
314.83815,1.25814
314.59708,1.25430
314.35601,1.25941
314.11494,1.26845
313.87386,1.27453
313.63279,1.27834
313.39172,1.28413
313.15065,1.29094
312.90958,1.29540
312.66851,1.29867
312.42744,1.30370
312.18637,1.31031
311.94530,1.31757
311.70423,1.32618
311.46316,1.33672
311.22209,1.34765
310.98102,1.35525
310.73995,1.35689
310.49888,1.35462
310.25781,1.35512
310.01674,1.36244
309.77567,1.36988
309.53459,1.36439
309.29352,1.34407
309.05245,1.32313
308.81138,1.31431
308.57031,1.31618
308.32924,1.31977
308.08817,1.32223
307.84710,1.32773
307.60603,1.33694
307.36496,1.34307
307.12389,1.34154
306.88282,1.33438
306.64175,1.32488
306.40068,1.31907
306.15961,1.32496
305.91854,1.34188
305.67747,1.35640
305.43640,1.35650
305.19532,1.34311
304.95425,1.32458
304.71318,1.30775
304.47211,1.29522
304.23104,1.28630
303.98997,1.28043
303.74890,1.27989
303.50783,1.28581
303.26676,1.29197
303.02569,1.28974
302.78462,1.28067
302.54355,1.27297
302.30248,1.26967
302.06141,1.26968
301.82034,1.27309
301.57927,1.27846
301.33820,1.27994
301.09713,1.27464
300.85605,1.26748
300.61498,1.26285
300.37391,1.25912
300.13284,1.25407
299.89177,1.24827
299.65070,1.24186
299.40963,1.23414
299.16856,1.22713
298.92749,1.22453
298.68642,1.22646
298.44535,1.22851
298.20428,1.22626
297.96321,1.21931
297.72214,1.21117
297.48107,1.20604
297.24000,1.20541
296.99893,1.20652
296.75786,1.20482
296.51678,1.19841
296.27571,1.18870
296.03464,1.17858
295.79357,1.17197
295.55250,1.17132
295.31143,1.17381
295.07036,1.17296
294.82929,1.16571
294.58822,1.15580
294.34715,1.14958
294.10608,1.15011
293.86501,1.15482
293.62394,1.15791
293.38287,1.15593
293.14180,1.15050
292.90073,1.14510
292.65966,1.14106
292.41859,1.13726
292.17751,1.13199
291.93644,1.12477
291.69537,1.11722
291.45430,1.11198
291.21323,1.11113
290.97216,1.11546
290.73109,1.12295
290.49002,1.12830
290.24895,1.12729
290.00788,1.12181
289.76681,1.11693
289.52574,1.11396
289.28467,1.10957
289.04360,1.10168
288.80253,1.09343
288.56146,1.08985
288.32039,1.09240
288.07932,1.09764
287.83824,1.10048
287.59717,1.09854
287.35610,1.09385
287.11503,1.09069
286.87396,1.09190
286.63289,1.09603
286.39182,1.09839
286.15075,1.09614
285.90968,1.09109
285.66861,1.08717
285.42754,1.08699
285.18647,1.09094
284.94540,1.09726
284.70433,1.10258
284.46326,1.10409
284.22219,1.10148
283.98112,1.09614
283.74005,1.08973
283.49897,1.08418
283.25790,1.08133
283.01683,1.08119
282.77576,1.08144
282.53469,1.07996
282.29362,1.07716
282.05255,1.07463
281.81148,1.07307
281.57041,1.07314
281.32934,1.07589
281.08827,1.08024
280.84720,1.08313
280.60613,1.08390
280.36506,1.08480
280.12399,1.08607
279.88292,1.08503
279.64185,1.08131
279.40078,1.07834
279.15970,1.07870
278.91863,1.08192
278.67756,1.08631
278.43649,1.09017
278.19542,1.09230
277.95435,1.09280
277.71328,1.09255
277.47221,1.09161
277.23114,1.08974
276.99007,1.08772
276.74900,1.08620
276.50793,1.08506
276.26686,1.08402
276.02579,1.08233
275.78472,1.07955
275.54365,1.07742
275.30258,1.07816
275.06151,1.08132
274.82043,1.08496
274.57936,1.08839
274.33829,1.09174
274.09722,1.09442
273.85615,1.09587
273.61508,1.09648
273.37401,1.09748
273.13294,1.10023
272.89187,1.10469
272.65080,1.10898
272.40973,1.11189
272.16866,1.11443
271.92759,1.11703
271.68652,1.11757
271.44545,1.11455
271.20438,1.11047
270.96331,1.10931
270.72224,1.11225
270.48116,1.11736
270.24009,1.12277
269.99902,1.12922
269.75795,1.13791
269.51688,1.14669
269.27581,1.15101
269.03474,1.14964
268.79367,1.14668
268.55260,1.14612
268.31153,1.14804
268.07046,1.15185
267.82939,1.15915
267.58832,1.17035
267.34725,1.18132
267.10618,1.18645
266.86511,1.18539
266.62404,1.18395
266.38297,1.18699
266.14189,1.19401
265.90082,1.20201
265.65975,1.20938
265.41868,1.21619
265.17761,1.22213
264.93654,1.22581
264.69547,1.22738
264.45440,1.22992
264.21333,1.23703
263.97226,1.25036
263.73119,1.26964
263.49012,1.29238
263.24905,1.31364
263.00798,1.32909
262.76691,1.33970
262.52584,1.35137
262.28477,1.36829
262.04370,1.38833
261.80262,1.40620
261.56155,1.41875
261.32048,1.42654
261.07941,1.43291
260.83834,1.44145
260.59727,1.45280
260.35620,1.46597
260.11513,1.48283
259.87406,1.50827
259.63299,1.54475
259.39192,1.58944
259.15085,1.63548
258.90978,1.67255
258.66871,1.69151
258.42764,1.69790
258.18657,1.70971
257.94550,1.73834
257.70443,1.78100
257.46335,1.82740
257.22228,1.86199
256.98121,1.86672
256.74014,1.85043
256.49907,1.83150
256.25800,1.80820
256.01693,1.77744
255.77586,1.75033
255.53479,1.73851
255.29372,1.73840
255.05265,1.73723
254.81158,1.72638
254.57051,1.70428
254.32944,1.67499
254.08837,1.65053
253.84730,1.63980
253.60623,1.63458
253.36516,1.62419
253.12408,1.61186
252.88301,1.60437
252.64194,1.60515
252.40087,1.61127
252.15980,1.60979
251.91873,1.58743
251.67766,1.55011
251.43659,1.52047
251.19552,1.51346
250.95445,1.52452
250.71338,1.53838
250.47231,1.54339
250.23124,1.53728
249.99017,1.52667
249.74910,1.52183
249.50803,1.52806
249.26696,1.54126
249.02589,1.55013
248.78481,1.54610
248.54374,1.53311
248.30267,1.52214
248.06160,1.51993
247.82053,1.52637
247.57946,1.53943
247.33839,1.55919
247.09732,1.58281
246.85625,1.60049
246.61518,1.60301
246.37411,1.59204
246.13304,1.57930
245.89197,1.57667
245.65090,1.58804
245.40983,1.60967
245.16876,1.63572
244.92769,1.66127
244.68661,1.68344
244.44554,1.70656
244.20447,1.74305
243.96340,1.80206
243.72233,1.87883
243.48126,1.96018
243.24019,2.05166
242.99912,2.14771
242.75805,2.11771
242.51698,1.95810
242.27591,1.81550
242.03484,1.71660
241.79377,1.64982
241.55270,1.59543
241.31163,1.53759
241.07056,1.47641
240.82949,1.41885
240.58842,1.36697
240.34734,1.32042
240.10627,1.28145
239.86520,1.25029
239.62413,1.22131
239.38306,1.18919
239.14199,1.15547
238.90092,1.12603
238.65985,1.10480
238.41878,1.08981
238.17771,1.07494
237.93664,1.05648
237.69557,1.03655
237.45450,1.01899
237.21343,1.00475
236.97236,0.99234
236.73129,0.98066
236.49022,0.96995
236.24915,0.96045
236.00807,0.95124
235.76700,0.94166
235.52593,0.93245
235.28486,0.92426
235.04379,0.91622
234.80272,0.90801
234.56165,0.90154
234.32058,0.89829
234.07951,0.89644
233.83844,0.89328
233.59737,0.88906
233.35630,0.88608
233.11523,0.88541
232.87416,0.88601
232.63309,0.88603
232.39202,0.88358
232.15095,0.87781
231.90988,0.87046
231.66880,0.86462
231.42773,0.86136
231.18666,0.85975
230.94559,0.85925
230.70452,0.85930
230.46345,0.85761
230.22238,0.85216
229.98131,0.84482
229.74024,0.84002
229.49917,0.83943
229.25810,0.83951
229.01703,0.83617
228.77596,0.83080
228.53489,0.82782
228.29382,0.82794
228.05275,0.82809
227.81168,0.82660
227.57061,0.82478
227.32953,0.82352
227.08846,0.82218
226.84739,0.82047
226.60632,0.81897
226.36525,0.81768
226.12418,0.81559
225.88311,0.81229
225.64204,0.80901
225.40097,0.80691
225.15990,0.80536
224.91883,0.80328
224.67776,0.80138
224.43669,0.80101
224.19562,0.80187
223.95455,0.80284
223.71348,0.80426
223.47241,0.80682
223.23134,0.80965
222.99026,0.81164
222.74919,0.81353
222.50812,0.81732
222.26705,0.82432
222.02598,0.83392
221.78491,0.84331
221.54384,0.84957
221.30277,0.85296
221.06170,0.85625
220.82063,0.86078
220.57956,0.86578
220.33849,0.87095
220.09742,0.87667
219.85635,0.88255
219.61528,0.88861
219.37421,0.89652
219.13314,0.90719
218.89207,0.91809
218.65099,0.92562
218.40992,0.93026
218.16885,0.93641
217.92778,0.94624
217.68671,0.95765
217.44564,0.96937
217.20457,0.98276
216.96350,0.99730
216.72243,1.01012
216.48136,1.02057
216.24029,1.02990
215.99922,1.03841
215.75815,1.04797
215.51708,1.06263
215.27601,1.08222
215.03494,1.10082
214.79387,1.11378
214.55280,1.12146
214.31172,1.12654
214.07065,1.13171
213.82958,1.13927
213.58851,1.14985
213.34744,1.16176
213.10637,1.17219
212.86530,1.17819
212.62423,1.17834
212.38316,1.17487
212.14209,1.17238
211.90102,1.17412
211.65995,1.18043
211.41888,1.18968
211.17781,1.19870
210.93674,1.20400
210.69567,1.20504
210.45460,1.20517
210.21353,1.20725
209.97245,1.20940
209.73138,1.20686
209.49031,1.19844
209.24924,1.18961
209.00817,1.18647
208.76710,1.18808
208.52603,1.18706
208.28496,1.17832
208.04389,1.16465
207.80282,1.15199
207.56175,1.14348
207.32068,1.13927
207.07961,1.13887
206.83854,1.14111
206.59747,1.14236
206.35640,1.13734
206.11533,1.12387
205.87426,1.10563
205.63318,1.08773
205.39211,1.07188
205.15104,1.05738
204.90997,1.04400
204.66890,1.03227
204.42783,1.02277
204.18676,1.01570
203.94569,1.00945
203.70462,1.00094
203.46355,0.98992
203.22248,0.97966
202.98141,0.97088
202.74034,0.95869
202.49927,0.93921
202.25820,0.91660
202.01713,0.89855
201.77606,0.88822
201.53499,0.88294
201.29391,0.87794
201.05284,0.86977
200.81177,0.85771
200.57070,0.84297
200.32963,0.82716
200.08856,0.81203
199.84749,0.80001
199.60642,0.79250
199.36535,0.78781
199.12428,0.78252
198.88321,0.77492
198.64214,0.76592
198.40107,0.75699
198.16000,0.74829
197.91893,0.73915
197.67786,0.72959
197.43679,0.72055
197.19572,0.71260
196.95464,0.70515
196.71357,0.69766
196.47250,0.69049
196.23143,0.68385
195.99036,0.67700
195.74929,0.66963
195.50822,0.66308
195.26715,0.65855
195.02608,0.65479
194.78501,0.64908
194.54394,0.64120
194.30287,0.63439
194.06180,0.63156
193.82073,0.63147
193.57966,0.62986
193.33859,0.62403
193.09752,0.61534
192.85645,0.60742
192.61537,0.60325
192.37430,0.60305
192.13323,0.60378
191.89216,0.60135
191.65109,0.59480
191.41002,0.58717
191.16895,0.58165
190.92788,0.57853
190.68681,0.57620
190.44574,0.57371
190.20467,0.57132
189.96360,0.56946
189.72253,0.56812
189.48146,0.56710
189.24039,0.56600
188.99932,0.56440
188.75825,0.56243
188.51718,0.56096
188.27610,0.56032
188.03503,0.55939
187.79396,0.55696
187.55289,0.55373
187.31182,0.55158
187.07075,0.55127
186.82968,0.55135
186.58861,0.54975
186.34754,0.54660
186.10647,0.54477
185.86540,0.54688
185.62433,0.55212
185.38326,0.55651
185.14219,0.55691
184.90112,0.55454
184.66005,0.55311
184.41898,0.55412
184.17791,0.55547
183.93683,0.55520
183.69576,0.55447
183.45469,0.55540
183.21362,0.55771
182.97255,0.55955
182.73148,0.56081
182.49041,0.56329
182.24934,0.56715
182.00827,0.56978
181.76720,0.56941
181.52613,0.56756
181.28506,0.56658
181.04399,0.56723
180.80292,0.56952
180.56185,0.57363
180.32078,0.57867
180.07971,0.58249
179.83864,0.58421
179.59756,0.58544
179.35649,0.58797
179.11542,0.59172
178.87435,0.59622
178.63328,0.60217
178.39221,0.61026
178.15114,0.61986
177.91007,0.62973
177.66900,0.63925
177.42793,0.64851
177.18686,0.65799
176.94579,0.66843
176.70472,0.68089
176.46365,0.69614
176.22258,0.71357
175.98151,0.73135
175.74044,0.74844
175.49937,0.76543
175.25829,0.78294
175.01722,0.80039
174.77615,0.81594
174.53508,0.82791
174.29401,0.83811
174.05294,0.85095
173.81187,0.86684
173.57080,0.88147
173.32973,0.89327
173.08866,0.90457
172.84759,0.91483
172.60652,0.92149
172.36545,0.92609
172.12438,0.93158
171.88331,0.93668
171.64224,0.93857
171.40117,0.93728
171.16010,0.93424
170.91902,0.93098
170.67795,0.92916
170.43688,0.92822
170.19581,0.92469
169.95474,0.91722
169.71367,0.90950
169.47260,0.90496
169.23153,0.90202
168.99046,0.89676
168.74939,0.88812
168.50832,0.87867
168.26725,0.87183
168.02618,0.86946
167.78511,0.87065
167.54404,0.87266
167.30297,0.87367
167.06190,0.87379
166.82083,0.87361
166.57975,0.87361
166.33868,0.87452
166.09761,0.87713
165.85654,0.88211
165.61547,0.88986
165.37440,0.89933
165.13333,0.90819
164.89226,0.91560
164.65119,0.92321
164.41012,0.93205
164.16905,0.94013
163.92798,0.94447
163.68691,0.94530
163.44584,0.94666
163.20477,0.95226
162.96370,0.96203
162.72263,0.97294
162.48156,0.98203
162.24048,0.98819
161.99941,0.99188
161.75834,0.99387
161.51727,0.99437
161.27620,0.99353
161.03513,0.99234
160.79406,0.99118
160.55299,0.98873
160.31192,0.98427
160.07085,0.97972
159.82978,0.97757
159.58871,0.97820
159.34764,0.97998
159.10657,0.98078
158.86550,0.97884
158.62443,0.97329
158.38336,0.96458
158.14229,0.95450
157.90121,0.94513
157.66014,0.93758
157.41907,0.93158
157.17800,0.92641
156.93693,0.92207
156.69586,0.91912
156.45479,0.91737
156.21372,0.91483
155.97265,0.90929
155.73158,0.90125
155.49051,0.89358
155.24944,0.88788
155.00837,0.88249
154.76730,0.87414
154.52623,0.86072
154.28516,0.84311
154.04409,0.82513
153.80302,0.81094
153.56194,0.80131
153.32087,0.79291
153.07980,0.78198
152.83873,0.76810
152.59766,0.75299
152.35659,0.73751
152.11552,0.72161
151.87445,0.70586
151.63338,0.69123
151.39231,0.67812
151.15124,0.66690
150.91017,0.65775
150.66910,0.64938
150.42803,0.63948
150.18696,0.62737
149.94589,0.61451
149.70482,0.60238
149.46375,0.59165
149.22267,0.58289
148.98160,0.57656
148.74053,0.57226
148.49946,0.56857
148.25839,0.56386
148.01732,0.55758
147.77625,0.55068
147.53518,0.54492
147.29411,0.54174
147.05304,0.54181
146.81197,0.54455
146.57090,0.54785
146.32983,0.54949
146.08876,0.54939
145.84769,0.54979
145.60662,0.55280
145.36555,0.55858
145.12448,0.56550
144.88340,0.57170
144.64233,0.57649
144.40126,0.58034
144.16019,0.58353
143.91912,0.58553
143.67805,0.58575
143.43698,0.58425
143.19591,0.58104
142.95484,0.57562
142.71377,0.56788
142.47270,0.55879
142.23163,0.54969
141.99056,0.54126
141.74949,0.53367
141.50842,0.52708
141.26735,0.52181
141.02628,0.51794
140.78521,0.51487
140.54413,0.51168
140.30306,0.50840
140.06199,0.50622
139.82092,0.50604
139.57985,0.50793
139.33878,0.51173
139.09771,0.51730
138.85664,0.52406
138.61557,0.53120
138.37450,0.53792
138.13343,0.54359
137.89236,0.54897
137.65129,0.55635
137.41022,0.56710
137.16915,0.58009
136.92808,0.59379
136.68701,0.60851
136.44594,0.62513
136.20486,0.64353
135.96379,0.66349
135.72272,0.68537
135.48165,0.70922
135.24058,0.73442
134.99951,0.76098
134.75844,0.78959
134.51737,0.81970
134.27630,0.84959
134.03523,0.87907
133.79416,0.90945
133.55309,0.93988
133.31202,0.96715
133.07095,0.99088
132.82988,1.01620
132.58881,1.04745
132.34774,1.08047
132.10667,1.10512
131.86559,1.11569
131.62452,1.11529
131.38345,1.11007
131.14238,1.10394
130.90131,1.09812
130.66024,1.09250
130.41917,1.08662
130.17810,1.07771
129.93703,1.06032
129.69596,1.03372
129.45489,1.00433
129.21382,0.97516
128.97275,0.94149
128.73168,0.90120
128.49061,0.86042
128.24954,0.82526
128.00847,0.79568
127.76740,0.76885
127.52632,0.74318
127.28525,0.71794
127.04418,0.69257
126.80311,0.66746
126.56204,0.64404
126.32097,0.62354
126.07990,0.60593
125.83883,0.58998
125.59776,0.57452
125.35669,0.55960
125.11562,0.54573
124.87455,0.53270
124.63348,0.51985
124.39241,0.50733
124.15134,0.49605
123.91027,0.48685
123.66920,0.48011
123.42812,0.47553
123.18705,0.47194
122.94598,0.46826
122.70491,0.46514
122.46384,0.46402
122.22277,0.46433
121.98170,0.46339
121.74063,0.45985
121.49956,0.45576
121.25849,0.45420
121.01742,0.45646
120.77635,0.46196
120.53528,0.46963
120.29421,0.47859
120.05314,0.48827
119.81207,0.49902
119.57100,0.51219
119.32993,0.52910
119.08885,0.55002
118.84778,0.57404
118.60671,0.59999
118.36564,0.62733
118.12457,0.65611
117.88350,0.68584
117.64243,0.71475
117.40136,0.74066
117.16029,0.76241
116.91922,0.77953
116.67815,0.79079
116.43708,0.79440
116.19601,0.78985
115.95494,0.77897
115.71387,0.76456
115.47280,0.74867
115.23173,0.73291
114.99066,0.71887
114.74958,0.70698
114.50851,0.69600
114.26744,0.68502
114.02637,0.67529
113.78530,0.66901
113.54423,0.66717
113.30316,0.66920
113.06209,0.67349
112.82102,0.67750
112.57995,0.67934
112.33888,0.68074
112.09781,0.68589
111.85674,0.69651
111.61567,0.71018
111.37460,0.72324
111.13353,0.73243
110.89246,0.73521
110.65139,0.73183
110.41031,0.72539
110.16924,0.71765
109.92817,0.70721
109.68710,0.69287
109.44603,0.67579
109.20496,0.65780
108.96389,0.64001
108.72282,0.62320
108.48175,0.60815
108.24068,0.59517
107.99961,0.58367
107.75854,0.57241
107.51747,0.56051
107.27640,0.54794
107.03533,0.53478
106.79426,0.52094
106.55319,0.50676
106.31212,0.49314
106.07104,0.48032
105.82997,0.46708
105.58890,0.45219
105.34783,0.43636
105.10676,0.42130
104.86569,0.40760
104.62462,0.39485
104.38355,0.38305
104.14248,0.37316
103.90141,0.36657
103.66034,0.36394
103.41927,0.36392
103.17820,0.36382
102.93713,0.36186
102.69606,0.35775
102.45499,0.35094
102.21392,0.34073
101.97285,0.32835
101.73177,0.31708
101.49070,0.30973
101.24963,0.30700
101.00856,0.30762
100.76749,0.30916
100.52642,0.30908
100.28535,0.30589
100.04428,0.29980
99.80321,0.29233
99.56214,0.28527
99.32107,0.27997
99.08000,0.27722
98.83893,0.27767
98.59786,0.28144
98.35679,0.28646
98.11572,0.28841
97.87465,0.28483
97.63358,0.27860
97.39250,0.27514
97.15143,0.27770
96.91036,0.28517
96.66929,0.29263
96.42822,0.29503
96.18715,0.29216
95.94608,0.28927
95.70501,0.29242
95.46394,0.30346
95.22287,0.31762
94.98180,0.32640
94.74073,0.32636
94.49966,0.32271
94.25859,0.32248
94.01752,0.32725
93.77645,0.33249
93.53538,0.33339
93.29431,0.33185
93.05323,0.33399
92.81216,0.34069
92.57109,0.34491
92.33002,0.34121
92.08895,0.33487
91.84788,0.33469
91.60681,0.34126
91.36574,0.34783
91.12467,0.35223
90.88360,0.36100
90.64253,0.37887
90.40146,0.40265
90.16039,0.42781
89.91932,0.45702
89.67825,0.49554
89.43718,0.54118
89.19611,0.58646
88.95504,0.62989
88.71396,0.67395
88.47289,0.71124
88.23182,0.72790
87.99075,0.72141
87.74968,0.69777
87.50861,0.66123
87.26754,0.61886
87.02647,0.57890
86.78540,0.54210
86.54433,0.50598
86.30326,0.47236
86.06219,0.44324
85.82112,0.41737
85.58005,0.39428
85.33898,0.37442
85.09791,0.35575
84.85684,0.33688
84.61577,0.32034
84.37469,0.30803
84.13362,0.29787
83.89255,0.28784
83.65148,0.27908
83.41041,0.27260
83.16934,0.26701
82.92827,0.26098
82.68720,0.25510
82.44613,0.24982
82.20506,0.24384
81.96399,0.23632
81.72292,0.22920
81.48185,0.22522
81.24078,0.22441
80.99971,0.22403
80.75864,0.22185
80.51757,0.21809
80.27650,0.21413
80.03542,0.21069
79.79435,0.20790
79.55328,0.20617
79.31221,0.20581
79.07114,0.20622
78.83007,0.20613
78.58900,0.20461
78.34793,0.20158
78.10686,0.19774
77.86579,0.19426
77.62472,0.19195
77.38365,0.19055
77.14258,0.18944
76.90151,0.18850
76.66044,0.18788
76.41937,0.18722
76.17830,0.18603
75.93723,0.18408
75.69615,0.18097
75.45508,0.17642
75.21401,0.17162
74.97294,0.16914
74.73187,0.17053
74.49080,0.17464
74.24973,0.17885
74.00866,0.18163
73.76759,0.18326
73.52652,0.18388
73.28545,0.18250
73.04438,0.17880
72.80331,0.17511
72.56224,0.17479
72.32117,0.17860
72.08010,0.18316
71.83903,0.18367
71.59796,0.18000
71.35688,0.17789
71.11581,0.18189
70.87474,0.18987
70.63367,0.19564
70.39260,0.19622
70.15153,0.19504
69.91046,0.19765
69.66939,0.20723
69.42832,0.22453
69.18725,0.24699
68.94618,0.26634
68.70511,0.27207
68.46404,0.26136
68.22297,0.24197
67.98190,0.22396
67.74083,0.21290
67.49976,0.20974
67.25869,0.21207
67.01761,0.21509
66.77654,0.21396
66.53547,0.20657
66.29440,0.19442
66.05333,0.18099
65.81226,0.16953
65.57119,0.16202
65.33012,0.15975
65.08905,0.16388
64.84798,0.17460
64.60691,0.18983
64.36584,0.20524
64.12477,0.21553
63.88370,0.21659
63.64263,0.20857
63.40156,0.19610
63.16049,0.18401
62.91942,0.17356
62.67834,0.16352
62.43727,0.15378
62.19620,0.14627
61.95513,0.14264
61.71406,0.14242
61.47299,0.14403
61.23192,0.14635
60.99085,0.14867
60.74978,0.15043
60.50871,0.15179
60.26764,0.15383
60.02657,0.15738
59.78550,0.16219
59.54443,0.16719
59.30336,0.17142
59.06229,0.17477
58.82122,0.17771
58.58015,0.18018
58.33907,0.18145
58.09800,0.18178
57.85693,0.18319
57.61586,0.18733
57.37479,0.19312
57.13372,0.19720
56.89265,0.19646
56.65158,0.19062
56.41051,0.18248
56.16944,0.17570
55.92837,0.17198
55.68730,0.17004
55.44623,0.16762
55.20516,0.16401
54.96409,0.16027
54.72302,0.15740
54.48195,0.15548
54.24088,0.15449
53.99980,0.15441
53.75873,0.15464
53.51766,0.15474
53.27659,0.15685
53.03552,0.16557
52.79445,0.18450
52.55338,0.21293
52.31231,0.24329
52.07124,0.26011
51.83017,0.25123
51.58910,0.22193
51.34803,0.18512
51.10696,0.14997
50.86589,0.12281
50.62482,0.10819
50.38375,0.10933
50.14268,0.12921
49.90161,0.16930
49.66053,0.21920
49.41946,0.24015
49.17839,0.20453
48.93732,0.15322
48.69625,0.12440
48.45518,0.12862
48.21411,0.16564
47.97304,0.22015
47.73197,0.23948
47.49090,0.19499
47.24983,0.14577
47.00876,0.13289
46.76769,0.15760
46.52662,0.18327
46.28555,0.16800
46.04448,0.14330
45.80341,0.14845
45.56234,0.17710
45.32126,0.19068
45.08019,0.17695
44.83912,0.17259
44.59805,0.19514
44.35698,0.21214
44.11591,0.19726
43.87484,0.18192
43.63377,0.18208
43.39270,0.18445
43.15163,0.18667
42.91056,0.19587
42.66949,0.20209
42.42842,0.19648
42.18735,0.19170
41.94628,0.19504
41.70521,0.19944
41.46414,0.20304
41.22307,0.20798
40.98199,0.20968
40.74092,0.20733
40.49985,0.20829
40.25878,0.21362
40.01771,0.21583
39.77664,0.21350
39.53557,0.21301
39.29450,0.21671
39.05343,0.22260
38.81236,0.23205
38.57129,0.24784
38.33022,0.26488
38.08915,0.27343
37.84808,0.27331
37.60701,0.27090
37.36594,0.26674
37.12487,0.26017
36.88380,0.25709
36.64272,0.26231
36.40165,0.27010
36.16058,0.26998
35.91951,0.26055
35.67844,0.24998
35.43737,0.24192
35.19630,0.23445
34.95523,0.23134
34.71416,0.23712
34.47309,0.24554
34.23202,0.24651
33.99095,0.24029
33.74988,0.23447
33.50881,0.23238
33.26774,0.23077
33.02667,0.22661
32.78560,0.22125
32.54453,0.21601
32.30345,0.21013
32.06238,0.20473
31.82131,0.20004
31.58024,0.19241
31.33917,0.17997
31.09810,0.16569
30.85703,0.15203
30.61596,0.13950
30.37489,0.12942
30.13382,0.12364
29.89275,0.11978
29.65168,0.10979
29.41061,0.09030
29.16954,0.07155
28.92847,0.06306
28.68740,0.05695
28.44633,0.04060
28.20526,0.01775
27.96418,0.00188
27.72311,-0.00450
27.48204,-0.00900
27.24097,-0.01549
26.99990,-0.02188
26.75883,-0.02351
26.51776,-0.01920
26.27669,-0.01898
26.03562,-0.03508
25.79455,-0.06317
25.55348,-0.08603
25.31241,-0.09677
25.07134,-0.10476
24.83027,-0.11849
24.58920,-0.13556
24.34813,-0.15232
24.10706,-0.17144
23.86599,-0.19217
23.62491,-0.20883
23.38384,-0.21962
23.14277,-0.22530
22.90170,-0.22728
22.66063,-0.22889
22.41956,-0.22927
22.17849,-0.22319
21.93742,-0.21807
21.69635,-0.22824
21.45528,-0.25118
21.21421,-0.27084
20.97314,-0.28341
20.73207,-0.30145
20.49100,-0.32910
20.24993,-0.34984
20.00886,-0.34756
19.76779,-0.32836
19.52672,-0.30572
19.28564,-0.28472
19.04457,-0.27012
18.80350,-0.27152
18.56243,-0.29265
18.32136,-0.32635
18.08029,-0.36327
17.83922,-0.39112
17.59815,-0.38960
17.35708,-0.36198
17.11601,-0.34143
16.87494,-0.34593
16.63387,-0.36496
16.39280,-0.39021
16.15173,-0.43312
15.91066,-0.49595
15.66959,-0.54918
15.42852,-0.56063
15.18745,-0.53469
14.94637,-0.49322
14.70530,-0.45259
14.46423,-0.42110
14.22316,-0.39916
13.98209,-0.39630
13.74102,-0.41357
13.49995,-0.44077
13.25888,-0.46602
13.01781,-0.47152
12.77674,-0.45939
12.53567,-0.45489
12.29460,-0.46654
12.05353,-0.47616
11.81246,-0.47425
11.57139,-0.48317
11.33032,-0.52205
11.08925,-0.56946
10.84818,-0.58849
10.60710,-0.58144
10.36603,-0.57144
10.12496,-0.55689
9.88389,-0.52450
9.64282,-0.48439
9.40175,-0.46340
9.16068,-0.47253
8.91961,-0.49200
8.67854,-0.48858
8.43747,-0.45795
8.19640,-0.42961
7.95533,-0.42355
7.71426,-0.44168
7.47319,-0.46939
7.23212,-0.48314
6.99105,-0.47663
6.74998,-0.46915
6.50891,-0.47864
6.26783,-0.50685
6.02676,-0.53650
5.78569,-0.55145
5.54462,-0.55623
5.30355,-0.53457
5.06248,-0.51690
4.82141,-0.51475
4.58034,-0.52137
4.33927,-0.53484
4.09820,-0.53629
3.85713,-0.51220
3.61606,-0.46406
3.37499,-0.42036
3.13392,-0.40645
2.89285,-0.42361
2.65178,-0.44958
2.41071,-0.46551
2.16964,-0.47793
1.92856,-0.48586
1.68749,-0.48952
1.44642,-0.49596
1.20535,-0.49499
0.96428,-0.50723
0.72321,-0.53412
0.48214,-0.57839
0.24107,-0.58273
-0.00000,-0.21920
