399.69498,1.56304
399.45391,1.57263
399.21284,1.57496
398.97177,1.56424
398.73070,1.54470
398.48963,1.52912
398.24856,1.52762
398.00749,1.54070
397.76642,1.55850
397.52535,1.56541
397.28428,1.55499
397.04321,1.53864
396.80214,1.53106
396.56107,1.53363
396.32000,1.53915
396.07892,1.54534
395.83785,1.55444
395.59678,1.56450
395.35571,1.56998
395.11464,1.56798
394.87357,1.55880
394.63250,1.54501
394.39143,1.53150
394.15036,1.52280
393.90929,1.51977
393.66822,1.51909
393.42715,1.51686
393.18608,1.51063
392.94501,1.50390
392.70394,1.50419
392.46287,1.51196
392.22180,1.51833
391.98073,1.51476
391.73965,1.50407
391.49858,1.49583
391.25751,1.49359
391.01644,1.49234
390.77537,1.48338
390.53430,1.46344
390.29323,1.44111
390.05216,1.42937
389.81109,1.43492
389.57002,1.45313
389.32895,1.47037
389.08788,1.47489
388.84681,1.46861
388.60574,1.46313
388.36467,1.46429
388.12360,1.46747
387.88253,1.46725
387.64146,1.46427
387.40038,1.46292
387.15931,1.46756
386.91824,1.47730
386.67717,1.48043
386.43610,1.46382
386.19503,1.43489
385.95396,1.41341
385.71289,1.40834
385.47182,1.41459
385.23075,1.42094
384.98968,1.41708
384.74861,1.39989
384.50754,1.37666
384.26647,1.35907
384.02540,1.35163
383.78433,1.34724
383.54326,1.33564
383.30219,1.31582
383.06111,1.29800
382.82004,1.29127
382.57897,1.29401
382.33790,1.29863
382.09683,1.30131
381.85576,1.30355
381.61469,1.30446
381.37362,1.29912
381.13255,1.28768
380.89148,1.27607
380.65041,1.26890
380.40934,1.27086
380.16827,1.28314
379.92720,1.29976
379.68613,1.31037
379.44506,1.30697
379.20399,1.29457
378.96292,1.28786
378.72184,1.29362
378.48077,1.30615
378.23970,1.31987
377.99863,1.33619
377.75756,1.35320
377.51649,1.36026
377.27542,1.35307
377.03435,1.34250
376.79328,1.34011
376.55221,1.34875
376.31114,1.36688
376.07007,1.38836
375.82900,1.39995
375.58793,1.39372
375.34686,1.37951
375.10579,1.37374
374.86472,1.38004
374.62365,1.39115
374.38257,1.40332
374.14150,1.41873
373.90043,1.43581
373.65936,1.44541
373.41829,1.44125
373.17722,1.42996
372.93615,1.42437
372.69508,1.42880
372.45401,1.43558
372.21294,1.43625
371.97187,1.43156
371.73080,1.42598
371.48973,1.42068
371.24866,1.41339
371.00759,1.40126
370.76652,1.38715
370.52545,1.38080
370.28437,1.38792
370.04330,1.39983
369.80223,1.40145
369.56116,1.38993
369.32009,1.37507
369.07902,1.36472
368.83795,1.36026
368.59688,1.36155
368.35581,1.36663
368.11474,1.36993
367.87367,1.36798
367.63260,1.36306
367.39153,1.35782
367.15046,1.35196
366.90939,1.34618
366.66832,1.34294
366.42725,1.34331
366.18618,1.34679
365.94510,1.35220
365.70403,1.35635
365.46296,1.35552
365.22189,1.35039
364.98082,1.34531
364.73975,1.34273
364.49868,1.34132
364.25761,1.33874
364.01654,1.33539
363.77547,1.33449
363.53440,1.33690
363.29333,1.33790
363.05226,1.33254
362.81119,1.32250
362.57012,1.31350
362.32905,1.30868
362.08798,1.30778
361.84691,1.30951
361.60583,1.31240
361.36476,1.31440
361.12369,1.31364
360.88262,1.31081
360.64155,1.30925
360.40048,1.31094
360.15941,1.31307
359.91834,1.31042
359.67727,1.30138
359.43620,1.28971
359.19513,1.28070
358.95406,1.27623
358.71299,1.27416
358.47192,1.27290
358.23085,1.27455
357.98978,1.28049
357.74871,1.28614
357.50764,1.28580
357.26656,1.28135
357.02549,1.27999
356.78442,1.28486
356.54335,1.29146
356.30228,1.29324
356.06121,1.28950
355.82014,1.28532
355.57907,1.28293
355.33800,1.27871
355.09693,1.27084
354.85586,1.26309
354.61479,1.25834
354.37372,1.25539
354.13265,1.25418
353.89158,1.25835
353.65051,1.27056
353.40944,1.28682
353.16837,1.29795
352.92729,1.29966
352.68622,1.29805
352.44515,1.29947
352.20408,1.30052
351.96301,1.29350
351.72194,1.27877
351.48087,1.26515
351.23980,1.25919
350.99873,1.25950
350.75766,1.26055
350.51659,1.25821
350.27552,1.25318
350.03445,1.25034
349.79338,1.25370
349.55231,1.26299
349.31124,1.27541
349.07017,1.28924
348.82910,1.30185
348.58802,1.30706
348.34695,1.30124
348.10588,1.28970
347.86481,1.28242
347.62374,1.28420
347.38267,1.29131
347.14160,1.29729
346.90053,1.30000
346.65946,1.30208
346.41839,1.30501
346.17732,1.30736
345.93625,1.30874
345.69518,1.30949
345.45411,1.30994
345.21304,1.31097
344.97197,1.31243
344.73090,1.31154
344.48983,1.30603
344.24875,1.30001
344.00768,1.30177
343.76661,1.31356
343.52554,1.32843
343.28447,1.33742
343.04340,1.33812
342.80233,1.33584
342.56126,1.33749
342.32019,1.34491
342.07912,1.35313
341.83805,1.35657
341.59698,1.35634
341.35591,1.35752
341.11484,1.36129
340.87377,1.36493
340.63270,1.36895
340.39163,1.37657
340.15056,1.38562
339.90948,1.39078
339.66841,1.39299
339.42734,1.39701
339.18627,1.40182
338.94520,1.40226
338.70413,1.39860
338.46306,1.39696
338.22199,1.40177
337.98092,1.41070
337.73985,1.41738
337.49878,1.41729
337.25771,1.41201
337.01664,1.40739
336.77557,1.40766
336.53450,1.41357
336.29343,1.42140
336.05236,1.42475
335.81129,1.42083
335.57021,1.41116
335.32914,1.39774
335.08807,1.38369
334.84700,1.37478
334.60593,1.37525
334.36486,1.38384
334.12379,1.39428
333.88272,1.39774
333.64165,1.38974
333.40058,1.37517
333.15951,1.36103
332.91844,1.35056
332.67737,1.34600
332.43630,1.34801
332.19523,1.35337
331.95416,1.35803
331.71309,1.35966
331.47202,1.35731
331.23094,1.35257
330.98987,1.34872
330.74880,1.34651
330.50773,1.34141
330.26666,1.32816
330.02559,1.31036
329.78452,1.29699
329.54345,1.29064
329.30238,1.28769
329.06131,1.28807
328.82024,1.29664
328.57917,1.31247
328.33810,1.32270
328.09703,1.31638
327.85596,1.30087
327.61489,1.29137
327.37382,1.29248
327.13275,1.29731
326.89167,1.29997
326.65060,1.30106
326.40953,1.30118
326.16846,1.29820
325.92739,1.29219
325.68632,1.28798
325.44525,1.29125
325.20418,1.30390
324.96311,1.32197
324.72204,1.33607
324.48097,1.33839
324.23990,1.33064
323.99883,1.31964
323.75776,1.30721
323.51669,1.29259
323.27562,1.28024
323.03455,1.27628
322.79348,1.28074
322.55240,1.28660
322.31133,1.28620
322.07026,1.27963
321.82919,1.27811
321.58812,1.29391
321.34705,1.32241
321.10598,1.34135
320.86491,1.33788
320.62384,1.32289
320.38277,1.30922
320.14170,1.29952
319.90063,1.29791
319.65956,1.31115
319.41849,1.33462
319.17742,1.35138
318.93635,1.35056
318.69528,1.33792
318.45421,1.32739
318.21313,1.32536
317.97206,1.32351
317.73099,1.31265
317.48992,1.29798
317.24885,1.29004
317.00778,1.29150
316.76671,1.29891
316.52564,1.30873
316.28457,1.31648
316.04350,1.31713
315.80243,1.31186
315.56136,1.30886
315.32029,1.31443
315.07922,1.32546
314.83815,1.33242
314.59708,1.33154
314.35601,1.32861
314.11494,1.32830
313.87386,1.32996
313.63279,1.33540
313.39172,1.34818
313.15065,1.36498
312.90958,1.37856
312.66851,1.38548
312.42744,1.38465
312.18637,1.37728
311.94530,1.36915
311.70423,1.36548
311.46316,1.36651
311.22209,1.36971
310.98102,1.37109
310.73995,1.36638
310.49888,1.35815
310.25781,1.35398
310.01674,1.35611
309.77567,1.36317
309.53459,1.37755
309.29352,1.40030
309.05245,1.42300
308.81138,1.43418
308.57031,1.43131
308.32924,1.42184
308.08817,1.41618
307.84710,1.41784
307.60603,1.41818
307.36496,1.40765
307.12389,1.39033
306.88282,1.37865
306.64175,1.37783
306.40068,1.38077
306.15961,1.37790
305.91854,1.37025
305.67747,1.36838
305.43640,1.37766
305.19532,1.39052
304.95425,1.39609
304.71318,1.39115
304.47211,1.37753
304.23104,1.36004
303.98997,1.34553
303.74890,1.33675
303.50783,1.33165
303.26676,1.32918
303.02569,1.33086
302.78462,1.33584
302.54355,1.33830
302.30248,1.33332
302.06141,1.32321
301.82034,1.31440
301.57927,1.31059
301.33820,1.31039
301.09713,1.31050
300.85605,1.30948
300.61498,1.30763
300.37391,1.30461
300.13284,1.29920
299.89177,1.29156
299.65070,1.28672
299.40963,1.29158
299.16856,1.30627
298.92749,1.32065
298.68642,1.32271
298.44535,1.31145
298.20428,1.29600
297.96321,1.28368
297.72214,1.27527
297.48107,1.26999
297.24000,1.26873
296.99893,1.26988
296.75786,1.26675
296.51678,1.25464
296.27571,1.23822
296.03464,1.22786
295.79357,1.22915
295.55250,1.23738
295.31143,1.24356
295.07036,1.24361
294.82929,1.23848
294.58822,1.22943
294.34715,1.21859
294.10608,1.21048
293.86501,1.20739
293.62394,1.20650
293.38287,1.20592
293.14180,1.20754
292.90073,1.21160
292.65966,1.21441
292.41859,1.21261
292.17751,1.20577
291.93644,1.19611
291.69537,1.18814
291.45430,1.18583
291.21323,1.18830
290.97216,1.19086
290.73109,1.19071
290.49002,1.18904
290.24895,1.18770
290.00788,1.18725
289.76681,1.18755
289.52574,1.18768
289.28467,1.18674
289.04360,1.18546
288.80253,1.18493
288.56146,1.18404
288.32039,1.18071
288.07932,1.17497
287.83824,1.16904
287.59717,1.16501
287.35610,1.16272
287.11503,1.16043
286.87396,1.15810
286.63289,1.15766
286.39182,1.16007
286.15075,1.16436
285.90968,1.16932
285.66861,1.17342
285.42754,1.17383
285.18647,1.16939
284.94540,1.16278
284.70433,1.15713
284.46326,1.15308
284.22219,1.15007
283.98112,1.14872
283.74005,1.14954
283.49897,1.15062
283.25790,1.14965
283.01683,1.14756
282.77576,1.14736
282.53469,1.15040
282.29362,1.15513
282.05255,1.15808
281.81148,1.15624
281.57041,1.15006
281.32934,1.14362
281.08827,1.14070
280.84720,1.14160
280.60613,1.14448
280.36506,1.14726
280.12399,1.14774
279.88292,1.14588
279.64185,1.14558
279.40078,1.15048
279.15970,1.15797
278.91863,1.16145
278.67756,1.15921
278.43649,1.15620
278.19542,1.15650
277.95435,1.15850
277.71328,1.15901
277.47221,1.15818
277.23114,1.15839
276.99007,1.16053
276.74900,1.16258
276.50793,1.16119
276.26686,1.15536
276.02579,1.14805
275.78472,1.14233
275.54365,1.13843
275.30258,1.13603
275.06151,1.13690
274.82043,1.14262
274.57936,1.15169
274.33829,1.16044
274.09722,1.16584
273.85615,1.16770
273.61508,1.16899
273.37401,1.17248
273.13294,1.17727
272.89187,1.18047
272.65080,1.18165
272.40973,1.18301
272.16866,1.18520
271.92759,1.18594
271.68652,1.18389
271.44545,1.18118
271.20438,1.18088
270.96331,1.18338
270.72224,1.18635
270.48116,1.18770
270.24009,1.18800
269.99902,1.18946
269.75795,1.19268
269.51688,1.19630
269.27581,1.20071
269.03474,1.20846
268.79367,1.21919
268.55260,1.22831
268.31153,1.23240
268.07046,1.23251
267.82939,1.23177
267.58832,1.23334
267.34725,1.23902
267.10618,1.24727
266.86511,1.25400
266.62404,1.25705
266.38297,1.25872
266.14189,1.26289
265.90082,1.27177
265.65975,1.28407
265.41868,1.29468
265.17761,1.30049
264.93654,1.30577
264.69547,1.31617
264.45440,1.32997
264.21333,1.34131
263.97226,1.34929
263.73119,1.35689
263.49012,1.36459
263.24905,1.37278
263.00798,1.38593
262.76691,1.40733
262.52584,1.43306
262.28477,1.45669
262.04370,1.47459
261.80262,1.48476
261.56155,1.49025
261.32048,1.50219
261.07941,1.53033
260.83834,1.57049
260.59727,1.60850
260.35620,1.63615
260.11513,1.65278
259.87406,1.65953
259.63299,1.66144
259.39192,1.66664
259.15085,1.67905
258.90978,1.69843
258.66871,1.72783
258.42764,1.76979
258.18657,1.81237
257.94550,1.83143
257.70443,1.82261
257.46335,1.80817
257.22228,1.79922
256.98121,1.79156
256.74014,1.78780
256.49907,1.79528
256.25800,1.81145
256.01693,1.82013
255.77586,1.80377
255.53479,1.76357
255.29372,1.72206
255.05265,1.69985
254.81158,1.69460
254.57051,1.68722
254.32944,1.66609
254.08837,1.64089
253.84730,1.63234
253.60623,1.65057
253.36516,1.68201
253.12408,1.69840
252.88301,1.68362
252.64194,1.64838
252.40087,1.61516
252.15980,1.59557
251.91873,1.58446
251.67766,1.57288
251.43659,1.56249
251.19552,1.56168
250.95445,1.56969
250.71338,1.57478
250.47231,1.57104
250.23124,1.56393
249.99017,1.55798
249.74910,1.55109
249.50803,1.54110
249.26696,1.53238
249.02589,1.53189
248.78481,1.54086
248.54374,1.55308
248.30267,1.56091
248.06160,1.56140
247.82053,1.55679
247.57946,1.55336
247.33839,1.55878
247.09732,1.57474
246.85625,1.59335
246.61518,1.60443
246.37411,1.60323
246.13304,1.59338
245.89197,1.58567
245.65090,1.59017
245.40983,1.60882
245.16876,1.63445
244.92769,1.65923
244.68661,1.68282
244.44554,1.70893
244.20447,1.73887
243.96340,1.77034
243.72233,1.80265
243.48126,1.84064
243.24019,1.88980
242.99912,1.94361
242.75805,1.97993
242.51698,1.98045
242.27591,1.93297
242.03484,1.85790
241.79377,1.78572
241.55270,1.72315
241.31163,1.66133
241.07056,1.59289
240.82949,1.52195
240.58842,1.45808
240.34734,1.40469
240.10627,1.35843
239.86520,1.31669
239.62413,1.28008
239.38306,1.24855
239.14199,1.22095
238.90092,1.19784
238.65985,1.17960
238.41878,1.16310
238.17771,1.14369
237.93664,1.11983
237.69557,1.09456
237.45450,1.07295
237.21343,1.05783
236.97236,1.04743
236.73129,1.03746
236.49022,1.02534
236.24915,1.01131
236.00807,0.99687
235.76700,0.98421
235.52593,0.97514
235.28486,0.96953
235.04379,0.96587
234.80272,0.96246
234.56165,0.95745
234.32058,0.94987
234.07951,0.94166
233.83844,0.93577
233.59737,0.93179
233.35630,0.92654
233.11523,0.91924
232.87416,0.91277
232.63309,0.90941
232.39202,0.90860
232.15095,0.90915
231.90988,0.91047
231.66880,0.91142
231.42773,0.90993
231.18666,0.90498
230.94559,0.89806
230.70452,0.89184
230.46345,0.88783
230.22238,0.88541
229.98131,0.88261
229.74024,0.87820
229.49917,0.87348
229.25810,0.87133
229.01703,0.87234
228.77596,0.87324
228.53489,0.87153
228.29382,0.86934
228.05275,0.86922
227.81168,0.86873
227.57061,0.86383
227.32953,0.85589
227.08846,0.85015
226.84739,0.84907
226.60632,0.85023
226.36525,0.84957
226.12418,0.84590
225.88311,0.84219
225.64204,0.84169
225.40097,0.84355
225.15990,0.84406
224.91883,0.84193
224.67776,0.83950
224.43669,0.83875
224.19562,0.83956
223.95455,0.84185
223.71348,0.84593
223.47241,0.85034
223.23134,0.85261
222.99026,0.85275
222.74919,0.85353
222.50812,0.85690
222.26705,0.86217
222.02598,0.86808
221.78491,0.87418
221.54384,0.87977
221.30277,0.88439
221.06170,0.88997
220.82063,0.89847
220.57956,0.90753
220.33849,0.91329
220.09742,0.91704
219.85635,0.92334
219.61528,0.93313
219.37421,0.94350
219.13314,0.95237
218.89207,0.96019
218.65099,0.96849
218.40992,0.97883
218.16885,0.99153
217.92778,1.00547
217.68671,1.01942
217.44564,1.03281
217.20457,1.04593
216.96350,1.06032
216.72243,1.07700
216.48136,1.09394
216.24029,1.10739
215.99922,1.11648
215.75815,1.12434
215.51708,1.13390
215.27601,1.14547
215.03494,1.15847
214.79387,1.17255
214.55280,1.18700
214.31172,1.20090
214.07065,1.21364
213.82958,1.22421
213.58851,1.23178
213.34744,1.23750
213.10637,1.24263
212.86530,1.24548
212.62423,1.24499
212.38316,1.24527
212.14209,1.25075
211.90102,1.26019
211.65995,1.26823
211.41888,1.26991
211.17781,1.26387
210.93674,1.25460
210.69567,1.24963
210.45460,1.25133
210.21353,1.25489
209.97245,1.25582
209.73138,1.25544
209.49031,1.25725
209.24924,1.26204
209.00817,1.26789
208.76710,1.27070
208.52603,1.26524
208.28496,1.25182
208.04389,1.23818
207.80282,1.22898
207.56175,1.22080
207.32068,1.21012
207.07961,1.19928
206.83854,1.19119
206.59747,1.18414
206.35640,1.17474
206.11533,1.16214
205.87426,1.14786
205.63318,1.13353
205.39211,1.12049
205.15104,1.11051
204.90997,1.10437
204.66890,1.09922
204.42783,1.09018
204.18676,1.07664
203.94569,1.06323
203.70462,1.05291
203.46355,1.04318
203.22248,1.03024
202.98141,1.01380
202.74034,0.99664
202.49927,0.98183
202.25820,0.97051
202.01713,0.96088
201.77606,0.95001
201.53499,0.93645
201.29391,0.92097
201.05284,0.90566
200.81177,0.89243
200.57070,0.88120
200.32963,0.86970
200.08856,0.85619
199.84749,0.84159
199.60642,0.82788
199.36535,0.81592
199.12428,0.80617
198.88321,0.79970
198.64214,0.79684
198.40107,0.79536
198.16000,0.79068
197.91893,0.77924
197.67786,0.76239
197.43679,0.74597
197.19572,0.73523
196.95464,0.73060
196.71357,0.72827
196.47250,0.72382
196.23143,0.71524
195.99036,0.70371
195.74929,0.69232
195.50822,0.68382
195.26715,0.67870
195.02608,0.67483
194.78501,0.66964
194.54394,0.66317
194.30287,0.65741
194.06180,0.65319
193.82073,0.64941
193.57966,0.64495
193.33859,0.64015
193.09752,0.63585
192.85645,0.63219
192.61537,0.62857
192.37430,0.62456
192.13323,0.62037
191.89216,0.61659
191.65109,0.61347
191.41002,0.61042
191.16895,0.60667
190.92788,0.60215
190.68681,0.59761
190.44574,0.59391
190.20467,0.59129
189.96360,0.58902
189.72253,0.58620
189.48146,0.58320
189.24039,0.58159
188.99932,0.58184
188.75825,0.58183
188.51718,0.57903
188.27610,0.57406
188.03503,0.56990
187.79396,0.56843
187.55289,0.56865
187.31182,0.56829
187.07075,0.56668
186.82968,0.56531
186.58861,0.56546
186.34754,0.56588
186.10647,0.56442
185.86540,0.56137
185.62433,0.55920
185.38326,0.55904
185.14219,0.55979
184.90112,0.56077
184.66005,0.56240
184.41898,0.56407
184.17791,0.56427
183.93683,0.56333
183.69576,0.56381
183.45469,0.56692
183.21362,0.57065
182.97255,0.57271
182.73148,0.57362
182.49041,0.57500
182.24934,0.57624
182.00827,0.57574
181.76720,0.57393
181.52613,0.57241
181.28506,0.57148
181.04399,0.57114
180.80292,0.57247
180.56185,0.57581
180.32078,0.57992
180.07971,0.58399
179.83864,0.58837
179.59756,0.59310
179.35649,0.59763
179.11542,0.60218
178.87435,0.60804
178.63328,0.61583
178.39221,0.62426
178.15114,0.63222
177.91007,0.64094
177.66900,0.65183
177.42793,0.66361
177.18686,0.67484
176.94579,0.68675
176.70472,0.70039
176.46365,0.71445
176.22258,0.72813
175.98151,0.74217
175.74044,0.75658
175.49937,0.77133
175.25829,0.78817
175.01722,0.80816
174.77615,0.82942
174.53508,0.84985
174.29401,0.86997
174.05294,0.89062
173.81187,0.91000
173.57080,0.92499
173.32973,0.93443
173.08866,0.94031
172.84759,0.94575
172.60652,0.95218
172.36545,0.95877
172.12438,0.96406
171.88331,0.96782
171.64224,0.97032
171.40117,0.97032
171.16010,0.96662
170.91902,0.96094
170.67795,0.95578
170.43688,0.95091
170.19581,0.94490
169.95474,0.93877
169.71367,0.93485
169.47260,0.93312
169.23153,0.93126
168.99046,0.92785
168.74939,0.92398
168.50832,0.92109
168.26725,0.91826
168.02618,0.91332
167.78511,0.90658
167.54404,0.90138
167.30297,0.90001
167.06190,0.90147
166.82083,0.90422
166.57975,0.90838
166.33868,0.91406
166.09761,0.91942
165.85654,0.92227
165.61547,0.92289
165.37440,0.92389
165.13333,0.92782
164.89226,0.93522
164.65119,0.94432
164.41012,0.95226
164.16905,0.95721
163.92798,0.96039
163.68691,0.96589
163.44584,0.97681
163.20477,0.99180
162.96370,1.00700
162.72263,1.02031
162.48156,1.03139
162.24048,1.03931
161.99941,1.04347
161.75834,1.04396
161.51727,1.03999
161.27620,1.03177
161.03513,1.02287
160.79406,1.01753
160.55299,1.01725
160.31192,1.02080
160.07085,1.02494
159.82978,1.02556
159.58871,1.02124
159.34764,1.01513
159.10657,1.01051
158.86550,1.00568
158.62443,0.99710
158.38336,0.98642
158.14229,0.97929
157.90121,0.97723
157.66014,0.97544
157.41907,0.97039
157.17800,0.96513
156.93693,0.96232
156.69586,0.95820
156.45479,0.94882
156.21372,0.93700
155.97265,0.92811
155.73158,0.92344
155.49051,0.92013
155.24944,0.91430
155.00837,0.90419
154.76730,0.89137
154.52623,0.87849
154.28516,0.86578
154.04409,0.85146
153.80302,0.83519
153.56194,0.81959
153.32087,0.80751
153.07980,0.79838
152.83873,0.78858
152.59766,0.77540
152.35659,0.75942
152.11552,0.74296
151.87445,0.72768
151.63338,0.71368
151.39231,0.70001
151.15124,0.68635
150.91017,0.67361
150.66910,0.66241
150.42803,0.65155
150.18696,0.63910
149.94589,0.62459
149.70482,0.60970
149.46375,0.59726
149.22267,0.58931
148.98160,0.58524
148.74053,0.58192
148.49946,0.57611
148.25839,0.56717
148.01732,0.55752
147.77625,0.55063
147.53518,0.54821
147.29411,0.54915
147.05304,0.55044
146.81197,0.54950
146.57090,0.54669
146.32983,0.54485
146.08876,0.54620
145.84769,0.55056
145.60662,0.55612
145.36555,0.56114
145.12448,0.56515
144.88340,0.56934
144.64233,0.57493
144.40126,0.58132
144.16019,0.58665
143.91912,0.59020
143.67805,0.59235
143.43698,0.59222
143.19591,0.58763
142.95484,0.57843
142.71377,0.56781
142.47270,0.55886
142.23163,0.55139
141.99056,0.54368
141.74949,0.53572
141.50842,0.52918
141.26735,0.52486
141.02628,0.52163
140.78521,0.51750
140.54413,0.51195
140.30306,0.50706
140.06199,0.50508
139.82092,0.50553
139.57985,0.50640
139.33878,0.50749
139.09771,0.51015
138.85664,0.51477
138.61557,0.52046
138.37450,0.52675
138.13343,0.53418
137.89236,0.54353
137.65129,0.55509
137.41022,0.56868
137.16915,0.58390
136.92808,0.59984
136.68701,0.61529
136.44594,0.63042
136.20486,0.64732
135.96379,0.66725
135.72272,0.68840
135.48165,0.70865
135.24058,0.72979
134.99951,0.75609
134.75844,0.78886
134.51737,0.82465
134.27630,0.85963
134.03523,0.89337
133.79416,0.92712
133.55309,0.96113
133.31202,0.99474
133.07095,1.02522
132.82988,1.04743
132.58881,1.06066
132.34774,1.07290
132.10667,1.09126
131.86559,1.11380
131.62452,1.13502
131.38345,1.15296
131.14238,1.16641
130.90131,1.17250
130.66024,1.16963
130.41917,1.15700
130.17810,1.13322
129.93703,1.09982
129.69596,1.06191
129.45489,1.02272
129.21382,0.98273
128.97275,0.94358
128.73168,0.90727
128.49061,0.87357
128.24954,0.84157
128.00847,0.81144
127.76740,0.78325
127.52632,0.75584
127.28525,0.72789
127.04418,0.69925
126.80311,0.67109
126.56204,0.64518
126.32097,0.62266
126.07990,0.60360
125.83883,0.58782
125.59776,0.57455
125.35669,0.56182
125.11562,0.54812
124.87455,0.53401
124.63348,0.52062
124.39241,0.50821
124.15134,0.49716
123.91027,0.48783
123.66920,0.47905
123.42812,0.46916
123.18705,0.45880
122.94598,0.45057
122.70491,0.44604
122.46384,0.44448
122.22277,0.44397
121.98170,0.44295
121.74063,0.44119
121.49956,0.43986
121.25849,0.44055
121.01742,0.44432
120.77635,0.45144
120.53528,0.46104
120.29421,0.47115
120.05314,0.48051
119.81207,0.49059
119.57100,0.50460
119.32993,0.52442
119.08885,0.54902
118.84778,0.57583
118.60671,0.60298
118.36564,0.62995
118.12457,0.65678
117.88350,0.68359
117.64243,0.71029
117.40136,0.73587
117.16029,0.75809
116.91922,0.77504
116.67815,0.78650
116.43708,0.79258
116.19601,0.79213
115.95494,0.78496
115.71387,0.77414
115.47280,0.76351
115.23173,0.75325
114.99066,0.74077
114.74958,0.72591
114.50851,0.71193
114.26744,0.70140
114.02637,0.69414
113.78530,0.68913
113.54423,0.68579
113.30316,0.68334
113.06209,0.68143
112.82102,0.68102
112.57995,0.68297
112.33888,0.68630
112.09781,0.68954
111.85674,0.69290
111.61567,0.69733
111.37460,0.70187
111.13353,0.70434
110.89246,0.70499
110.65139,0.70644
110.41031,0.70895
110.16924,0.70917
109.92817,0.70420
109.68710,0.69460
109.44603,0.68181
109.20496,0.66516
108.96389,0.64356
108.72282,0.61825
108.48175,0.59204
108.24068,0.56726
107.99961,0.54565
107.75854,0.52883
107.51747,0.51690
107.27640,0.50750
107.03533,0.49770
106.79426,0.48633
106.55319,0.47371
106.31212,0.46065
106.07104,0.44764
105.82997,0.43422
105.58890,0.41993
105.34783,0.40596
105.10676,0.39448
104.86569,0.38632
104.62462,0.38061
104.38355,0.37599
104.14248,0.37113
103.90141,0.36460
103.66034,0.35554
103.41927,0.34451
103.17820,0.33308
102.93713,0.32295
102.69606,0.31565
102.45499,0.31222
102.21392,0.31205
101.97285,0.31247
101.73177,0.31042
101.49070,0.30488
101.24963,0.29727
101.00856,0.28969
100.76749,0.28329
100.52642,0.27845
100.28535,0.27571
100.04428,0.27552
99.80321,0.27635
99.56214,0.27463
99.32107,0.26850
99.08000,0.26042
98.83893,0.25467
98.59786,0.25366
98.35679,0.25634
98.11572,0.25857
97.87465,0.25657
97.63358,0.25124
97.39250,0.24731
97.15143,0.24850
96.91036,0.25467
96.66929,0.26225
96.42822,0.26764
96.18715,0.27110
95.94608,0.27577
95.70501,0.28306
95.46394,0.29067
95.22287,0.29605
94.98180,0.30041
94.74073,0.30646
94.49966,0.31308
94.25859,0.31553
94.01752,0.31123
93.77645,0.30383
93.53538,0.29992
93.29431,0.30186
93.05323,0.30518
92.81216,0.30522
92.57109,0.30431
92.33002,0.30691
92.08895,0.31144
91.84788,0.31304
91.60681,0.31264
91.36574,0.31616
91.12467,0.32602
90.88360,0.33984
90.64253,0.35653
90.40146,0.37924
90.16039,0.40955
89.91932,0.44405
89.67825,0.48113
89.43718,0.52462
89.19611,0.57393
88.95504,0.61945
88.71396,0.65590
88.47289,0.68556
88.23182,0.70178
87.99075,0.69423
87.74968,0.66896
87.50861,0.63655
87.26754,0.59753
87.02647,0.55392
86.78540,0.51430
86.54433,0.48207
86.30326,0.45335
86.06219,0.42533
85.82112,0.39903
85.58005,0.37568
85.33898,0.35523
85.09791,0.33707
84.85684,0.32035
84.61577,0.30453
84.37469,0.29014
84.13362,0.27787
83.89255,0.26740
83.65148,0.25809
83.41041,0.24986
83.16934,0.24228
82.92827,0.23481
82.68720,0.22818
82.44613,0.22347
82.20506,0.21983
81.96399,0.21566
81.72292,0.21130
81.48185,0.20806
81.24078,0.20579
80.99971,0.20322
80.75864,0.19949
80.51757,0.19472
80.27650,0.19000
80.03542,0.18649
79.79435,0.18415
79.55328,0.18214
79.31221,0.18008
79.07114,0.17809
78.83007,0.17611
78.58900,0.17393
78.34793,0.17128
78.10686,0.16802
77.86579,0.16466
77.62472,0.16209
77.38365,0.16029
77.14258,0.15836
76.90151,0.15599
76.66044,0.15407
76.41937,0.15366
76.17830,0.15498
75.93723,0.15703
75.69615,0.15786
75.45508,0.15573
75.21401,0.15087
74.97294,0.14576
74.73187,0.14337
74.49080,0.14531
74.24973,0.15048
74.00866,0.15514
73.76759,0.15594
73.52652,0.15339
73.28545,0.15058
73.04438,0.14956
72.80331,0.15012
72.56224,0.15088
72.32117,0.15042
72.08010,0.14836
71.83903,0.14620
71.59796,0.14605
71.35688,0.14869
71.11581,0.15320
70.87474,0.15830
70.63367,0.16330
70.39260,0.16837
70.15153,0.17412
69.91046,0.18087
69.66939,0.18860
69.42832,0.19754
69.18725,0.20769
68.94618,0.21737
68.70511,0.22327
68.46404,0.22254
68.22297,0.21442
67.98190,0.19985
67.74083,0.18104
67.49976,0.16157
67.25869,0.14510
67.01761,0.13351
66.77654,0.12630
66.53547,0.12182
66.29440,0.11882
66.05333,0.11713
65.81226,0.11750
65.57119,0.12057
65.33012,0.12613
65.08905,0.13395
64.84798,0.14468
64.60691,0.15859
64.36584,0.17360
64.12477,0.18597
63.88370,0.19254
63.64263,0.19181
63.40156,0.18425
63.16049,0.17283
62.91942,0.16196
62.67834,0.15479
62.43727,0.15122
62.19620,0.14868
61.95513,0.14462
61.71406,0.13862
61.47299,0.13246
61.23192,0.12830
60.99085,0.12670
60.74978,0.12681
60.50871,0.12815
60.26764,0.13081
60.02657,0.13426
59.78550,0.13684
59.54443,0.13695
59.30336,0.13422
59.06229,0.12957
58.82122,0.12436
58.58015,0.11960
58.33907,0.11562
58.09800,0.11187
57.85693,0.10764
57.61586,0.10332
57.37479,0.10006
57.13372,0.09824
56.89265,0.09766
56.65158,0.09928
56.41051,0.10468
56.16944,0.11416
55.92837,0.12652
55.68730,0.13988
55.44623,0.15143
55.20516,0.15754
54.96409,0.15515
54.72302,0.14409
54.48195,0.12797
54.24088,0.11188
53.99980,0.09979
53.75873,0.09461
53.51766,0.09835
53.27659,0.11087
53.03552,0.12903
52.79445,0.14762
52.55338,0.16039
52.31231,0.16222
52.07124,0.15167
51.83017,0.13085
51.58910,0.10540
51.34803,0.08452
51.10696,0.07746
50.86589,0.08932
50.62482,0.11956
50.38375,0.15834
50.14268,0.17902
49.90161,0.15811
49.66053,0.11685
49.41946,0.09178
49.17839,0.10025
48.93732,0.14236
48.69625,0.19398
48.45518,0.19808
48.21411,0.15247
47.97304,0.11981
47.73197,0.12575
47.49090,0.15654
47.24983,0.16959
47.00876,0.14217
46.76769,0.11437
46.52662,0.11458
46.28555,0.12704
46.04448,0.12018
45.80341,0.10042
45.56234,0.09729
45.32126,0.11330
45.08019,0.12102
44.83912,0.11201
44.59805,0.11074
44.35698,0.12090
44.11591,0.12100
43.87484,0.11152
43.63377,0.10903
43.39270,0.11095
43.15163,0.11082
42.91056,0.11509
42.66949,0.12432
42.42842,0.12760
42.18735,0.12433
41.94628,0.12205
41.70521,0.11820
41.46414,0.10992
41.22307,0.10463
40.98199,0.10939
40.74092,0.12089
40.49985,0.12992
40.25878,0.13255
40.01771,0.13347
39.77664,0.13712
39.53557,0.14071
39.29450,0.13984
39.05343,0.13707
38.81236,0.14014
38.57129,0.15229
38.33022,0.16695
38.08915,0.17534
37.84808,0.17887
37.60701,0.18260
37.36594,0.18382
37.12487,0.18075
36.88380,0.17954
36.64272,0.18644
36.40165,0.20225
36.16058,0.22136
35.91951,0.23124
35.67844,0.21937
35.43737,0.18767
35.19630,0.15439
34.95523,0.13835
34.71416,0.14443
34.47309,0.16228
34.23202,0.17520
33.99095,0.17299
33.74988,0.15931
33.50881,0.14334
33.26774,0.12907
33.02667,0.11761
32.78560,0.11433
32.54453,0.12394
32.30345,0.14006
32.06238,0.15130
31.82131,0.15333
31.58024,0.14773
31.33917,0.13660
31.09810,0.12167
30.85703,0.10417
30.61596,0.08458
30.37489,0.06435
30.13382,0.04619
29.89275,0.03242
29.65168,0.02257
29.41061,0.01209
29.16954,-0.00204
28.92847,-0.01710
28.68740,-0.03101
28.44633,-0.04602
28.20526,-0.06269
27.96418,-0.07549
27.72311,-0.07649
27.48204,-0.06395
27.24097,-0.04685
26.99990,-0.03604
26.75883,-0.03479
26.51776,-0.04342
26.27669,-0.06619
26.03562,-0.10474
25.79455,-0.14503
25.55348,-0.16252
25.31241,-0.14939
25.07134,-0.12494
24.83027,-0.11425
24.58920,-0.12645
24.34813,-0.15490
24.10706,-0.18800
23.86599,-0.21117
23.62491,-0.21273
23.38384,-0.20047
23.14277,-0.19908
22.90170,-0.21944
22.66063,-0.24446
22.41956,-0.25882
22.17849,-0.27362
21.93742,-0.30143
21.69635,-0.32611
21.45528,-0.32360
21.21421,-0.30349
20.97314,-0.29166
20.73207,-0.29272
20.49100,-0.29427
20.24993,-0.29020
20.00886,-0.28515
19.76779,-0.28161
19.52672,-0.28284
19.28564,-0.29730
19.04457,-0.32715
18.80350,-0.35881
18.56243,-0.37012
18.32136,-0.36147
18.08029,-0.34992
17.83922,-0.34326
17.59815,-0.35413
17.35708,-0.38033
17.11601,-0.38016
16.87494,-0.33999
16.63387,-0.29883
16.39280,-0.28010
16.15173,-0.28479
15.91066,-0.29945
15.66959,-0.31469
15.42852,-0.32988
15.18745,-0.34087
14.94637,-0.34408
14.70530,-0.34728
14.46423,-0.35200
14.22316,-0.34642
13.98209,-0.33716
13.74102,-0.35252
13.49995,-0.37399
13.25888,-0.36977
13.01781,-0.34416
12.77674,-0.31245
12.53567,-0.28599
12.29460,-0.27588
12.05353,-0.29264
11.81246,-0.33841
11.57139,-0.38938
11.33032,-0.39710
11.08925,-0.38430
10.84818,-0.37268
10.60710,-0.35227
10.36603,-0.31625
10.12496,-0.30610
9.88389,-0.31811
9.64282,-0.33664
9.40175,-0.36333
9.16068,-0.37248
8.91961,-0.36694
8.67854,-0.36023
8.43747,-0.35319
8.19640,-0.35896
7.95533,-0.35494
7.71426,-0.33819
7.47319,-0.32775
7.23212,-0.32860
6.99105,-0.33586
6.74998,-0.34214
6.50891,-0.34494
6.26783,-0.33966
6.02676,-0.32812
5.78569,-0.32717
5.54462,-0.34234
5.30355,-0.35655
5.06248,-0.35074
4.82141,-0.33309
4.58034,-0.32352
4.33927,-0.32498
4.09820,-0.31432
3.85713,-0.29597
3.61606,-0.28806
3.37499,-0.29126
3.13392,-0.30146
2.89285,-0.32016
2.65178,-0.34265
2.41071,-0.35508
2.16964,-0.35720
1.92856,-0.35934
1.68749,-0.36550
1.44642,-0.37397
1.20535,-0.36496
0.96428,-0.33660
0.72321,-0.32883
0.48214,-0.36219
0.24107,-0.37077
-0.00000,-0.28080
