399.69498,1.45794
399.45391,1.46503
399.21284,1.46520
398.97177,1.46013
398.73070,1.45815
398.48963,1.46579
398.24856,1.48031
398.00749,1.48827
397.76642,1.47932
397.52535,1.46128
397.28428,1.45130
397.04321,1.45597
396.80214,1.46723
396.56107,1.47345
396.32000,1.46915
396.07892,1.45730
395.83785,1.44776
395.59678,1.44812
395.35571,1.45482
395.11464,1.45885
394.87357,1.45942
394.63250,1.46523
394.39143,1.48081
394.15036,1.49767
393.90929,1.50148
393.66822,1.48925
393.42715,1.47053
393.18608,1.45310
392.94501,1.44006
392.70394,1.43489
392.46287,1.43907
392.22180,1.44890
391.98073,1.45941
391.73965,1.46849
391.49858,1.47584
391.25751,1.47719
391.01644,1.46756
390.77537,1.45097
390.53430,1.43715
390.29323,1.43135
390.05216,1.43356
389.81109,1.44175
389.57002,1.45089
389.32895,1.45349
389.08788,1.44584
388.84681,1.43134
388.60574,1.41732
388.36467,1.41030
388.12360,1.41033
387.88253,1.41007
387.64146,1.40339
387.40038,1.39088
387.15931,1.37841
386.91824,1.37570
386.67717,1.38963
386.43610,1.40922
386.19503,1.40867
385.95396,1.38053
385.71289,1.34777
385.47182,1.33387
385.23075,1.34064
384.98968,1.35389
384.74861,1.35801
384.50754,1.34617
384.26647,1.32126
384.02540,1.29259
383.78433,1.27099
383.54326,1.26070
383.30219,1.25613
383.06111,1.24933
382.82004,1.23998
382.57897,1.23421
382.33790,1.23709
382.09683,1.24928
381.85576,1.26755
381.61469,1.28478
381.37362,1.29089
381.13255,1.27975
380.89148,1.25747
380.65041,1.23829
380.40934,1.23337
380.16827,1.24032
379.92720,1.24681
379.68613,1.24580
379.44506,1.23955
379.20399,1.23099
378.96292,1.22258
378.72184,1.22017
378.48077,1.22858
378.23970,1.24393
377.99863,1.25777
377.75756,1.26570
377.51649,1.26926
377.27542,1.27326
377.03435,1.27858
376.79328,1.28124
376.55221,1.28058
376.31114,1.28192
376.07007,1.28959
375.82900,1.30297
375.58793,1.31882
375.34686,1.33448
375.10579,1.34849
374.86472,1.35765
374.62365,1.35763
374.38257,1.34877
374.14150,1.33519
373.90043,1.32004
373.65936,1.30725
373.41829,1.30236
373.17722,1.30543
372.93615,1.30765
372.69508,1.30193
372.45401,1.29329
372.21294,1.29132
371.97187,1.29902
371.73080,1.31307
371.48973,1.32835
371.24866,1.33905
371.00759,1.33928
370.76652,1.32786
370.52545,1.31034
370.28437,1.29492
370.04330,1.28691
369.80223,1.28705
369.56116,1.29247
369.32009,1.29816
369.07902,1.30022
368.83795,1.29831
368.59688,1.29316
368.35581,1.28517
368.11474,1.27743
367.87367,1.27201
367.63260,1.26580
367.39153,1.25609
367.15046,1.24588
366.90939,1.23894
366.66832,1.23445
366.42725,1.23116
366.18618,1.23201
365.94510,1.23980
365.70403,1.25105
365.46296,1.25749
365.22189,1.25479
364.98082,1.24789
364.73975,1.24393
364.49868,1.24427
364.25761,1.24601
364.01654,1.24569
363.77547,1.24043
363.53440,1.23057
363.29333,1.22020
363.05226,1.21201
362.81119,1.20505
362.57012,1.19906
362.32905,1.19702
362.08798,1.20024
361.84691,1.20444
361.60583,1.20440
361.36476,1.20032
361.12369,1.19640
360.88262,1.19484
360.64155,1.19414
360.40048,1.19224
360.15941,1.18900
359.91834,1.18642
359.67727,1.18658
359.43620,1.18847
359.19513,1.18817
358.95406,1.18338
358.71299,1.17622
358.47192,1.17145
358.23085,1.17205
357.98978,1.17643
357.74871,1.18005
357.50764,1.17944
357.26656,1.17408
357.02549,1.16576
356.78442,1.15795
356.54335,1.15409
356.30228,1.15478
356.06121,1.15826
355.82014,1.16365
355.57907,1.17129
355.33800,1.18023
355.09693,1.18806
354.85586,1.19255
354.61479,1.19259
354.37372,1.19020
354.13265,1.18985
353.89158,1.19322
353.65051,1.19682
353.40944,1.19662
353.16837,1.19223
352.92729,1.18529
352.68622,1.17639
352.44515,1.16642
352.20408,1.15899
351.96301,1.15826
351.72194,1.16398
351.48087,1.17081
351.23980,1.17384
350.99873,1.17285
350.75766,1.16996
350.51659,1.16631
350.27552,1.16278
350.03445,1.16178
349.79338,1.16555
349.55231,1.17292
349.31124,1.18024
349.07017,1.18561
348.82910,1.18952
348.58802,1.19157
348.34695,1.18996
348.10588,1.18500
347.86481,1.18020
347.62374,1.17951
347.38267,1.18401
347.14160,1.19083
346.90053,1.19584
346.65946,1.19689
346.41839,1.19429
346.17732,1.19132
345.93625,1.19417
345.69518,1.20603
345.45411,1.22104
345.21304,1.22884
344.97197,1.22647
344.73090,1.22173
344.48983,1.22255
344.24875,1.22806
344.00768,1.23223
343.76661,1.23226
343.52554,1.23189
343.28447,1.23652
343.04340,1.24566
342.80233,1.25345
342.56126,1.25672
342.32019,1.25753
342.07912,1.25834
341.83805,1.25870
341.59698,1.25790
341.35591,1.25691
341.11484,1.25605
340.87377,1.25598
340.63270,1.26115
340.39163,1.27498
340.15056,1.29197
339.90948,1.30273
339.66841,1.30403
339.42734,1.29929
339.18627,1.29504
338.94520,1.29782
338.70413,1.30940
338.46306,1.32460
338.22199,1.33558
337.98092,1.33837
337.73985,1.33544
337.49878,1.33171
337.25771,1.32897
337.01664,1.32704
336.77557,1.32784
336.53450,1.33430
336.29343,1.34479
336.05236,1.35321
335.81129,1.35613
335.57021,1.35497
335.32914,1.34988
335.08807,1.33611
334.84700,1.31522
334.60593,1.29912
334.36486,1.29715
334.12379,1.30642
333.88272,1.31718
333.64165,1.32462
333.40058,1.32774
333.15951,1.32156
332.91844,1.30478
332.67737,1.28506
332.43630,1.26648
332.19523,1.24762
331.95416,1.23330
331.71309,1.23252
331.47202,1.24508
331.23094,1.26023
330.98987,1.26907
330.74880,1.27085
330.50773,1.26615
330.26666,1.25528
330.02559,1.24370
329.78452,1.23687
329.54345,1.23277
329.30238,1.22690
329.06131,1.22000
328.82024,1.21510
328.57917,1.21345
328.33810,1.21622
328.09703,1.22448
327.85596,1.23564
327.61489,1.24440
327.37382,1.24978
327.13275,1.25471
326.89167,1.25617
326.65060,1.24646
326.40953,1.22668
326.16846,1.20829
325.92739,1.19858
325.68632,1.19435
325.44525,1.19243
325.20418,1.19620
324.96311,1.20656
324.72204,1.21498
324.48097,1.21240
324.23990,1.20325
323.99883,1.20137
323.75776,1.21257
323.51669,1.22792
323.27562,1.23579
323.03455,1.23430
322.79348,1.22846
322.55240,1.22370
322.31133,1.22575
322.07026,1.23781
321.82919,1.25417
321.58812,1.26361
321.34705,1.26287
321.10598,1.25979
320.86491,1.26055
320.62384,1.26071
320.38277,1.25347
320.14170,1.24337
319.90063,1.24266
319.65956,1.25502
319.41849,1.26932
319.17742,1.27204
318.93635,1.26314
318.69528,1.25145
318.45421,1.24083
318.21313,1.23243
317.97206,1.22947
317.73099,1.23288
317.48992,1.23973
317.24885,1.24551
317.00778,1.24722
316.76671,1.24600
316.52564,1.24574
316.28457,1.24782
316.04350,1.24851
315.80243,1.24610
315.56136,1.24655
315.32029,1.25342
315.07922,1.26078
314.83815,1.26289
314.59708,1.26079
314.35601,1.25778
314.11494,1.25585
313.87386,1.25505
313.63279,1.25303
313.39172,1.24765
313.15065,1.24272
312.90958,1.24744
312.66851,1.26581
312.42744,1.28877
312.18637,1.30269
311.94530,1.30490
311.70423,1.30405
311.46316,1.30592
311.22209,1.30693
310.98102,1.30377
310.73995,1.29791
310.49888,1.29142
310.25781,1.28783
310.01674,1.29131
309.77567,1.30072
309.53459,1.30875
309.29352,1.31066
309.05245,1.30998
308.81138,1.31261
308.57031,1.31974
308.32924,1.32657
308.08817,1.32520
307.84710,1.31222
307.60603,1.29462
307.36496,1.28365
307.12389,1.28376
306.88282,1.28997
306.64175,1.29368
306.40068,1.28998
306.15961,1.28152
305.91854,1.27732
305.67747,1.28480
305.43640,1.30157
305.19532,1.31635
304.95425,1.31766
304.71318,1.30263
304.47211,1.28079
304.23104,1.26612
303.98997,1.26379
303.74890,1.26708
303.50783,1.26604
303.26676,1.25816
303.02569,1.25022
302.78462,1.24974
302.54355,1.25630
302.30248,1.26282
302.06141,1.26409
301.82034,1.26136
301.57927,1.25713
301.33820,1.25041
301.09713,1.24040
300.85605,1.22935
300.61498,1.22093
300.37391,1.21650
300.13284,1.21332
299.89177,1.20890
299.65070,1.20464
299.40963,1.20307
299.16856,1.20383
298.92749,1.20476
298.68642,1.20441
298.44535,1.20199
298.20428,1.19755
297.96321,1.19191
297.72214,1.18525
297.48107,1.17718
297.24000,1.16917
296.99893,1.16383
296.75786,1.16158
296.51678,1.15977
296.27571,1.15591
296.03464,1.15083
295.79357,1.14733
295.55250,1.14575
295.31143,1.14293
295.07036,1.13651
294.82929,1.12852
294.58822,1.12271
294.34715,1.12075
294.10608,1.12191
293.86501,1.12458
293.62394,1.12658
293.38287,1.12650
293.14180,1.12533
292.90073,1.12457
292.65966,1.12331
292.41859,1.11913
292.17751,1.11106
291.93644,1.10095
291.69537,1.09262
291.45430,1.08981
291.21323,1.09306
290.97216,1.09771
290.73109,1.09783
290.49002,1.09334
290.24895,1.08971
290.00788,1.09006
289.76681,1.09072
289.52574,1.08673
289.28467,1.07957
289.04360,1.07529
288.80253,1.07628
288.56146,1.07854
288.32039,1.07628
288.07932,1.06819
287.83824,1.05912
287.59717,1.05527
287.35610,1.05734
287.11503,1.05994
286.87396,1.05879
286.63289,1.05578
286.39182,1.05445
286.15075,1.05447
285.90968,1.05392
285.66861,1.05333
285.42754,1.05367
285.18647,1.05345
284.94540,1.05094
284.70433,1.04665
284.46326,1.04210
284.22219,1.03879
283.98112,1.03855
283.74005,1.04203
283.49897,1.04700
283.25790,1.05039
283.01683,1.05078
282.77576,1.04861
282.53469,1.04569
282.29362,1.04430
282.05255,1.04550
281.81148,1.04857
281.57041,1.05218
281.32934,1.05508
281.08827,1.05659
280.84720,1.05685
280.60613,1.05627
280.36506,1.05541
280.12399,1.05541
279.88292,1.05647
279.64185,1.05684
279.40078,1.05559
279.15970,1.05443
278.91863,1.05490
278.67756,1.05639
278.43649,1.05779
278.19542,1.05823
277.95435,1.05663
277.71328,1.05360
277.47221,1.05214
277.23114,1.05450
276.99007,1.05963
276.74900,1.06445
276.50793,1.06677
276.26686,1.06681
276.02579,1.06672
275.78472,1.06820
275.54365,1.07014
275.30258,1.07012
275.06151,1.06830
274.82043,1.06702
274.57936,1.06595
274.33829,1.06215
274.09722,1.05617
273.85615,1.05301
273.61508,1.05607
273.37401,1.06362
273.13294,1.07115
272.89187,1.07477
272.65080,1.07339
272.40973,1.06944
272.16866,1.06713
271.92759,1.06874
271.68652,1.07277
271.44545,1.07616
271.20438,1.07851
270.96331,1.08280
270.72224,1.09029
270.48116,1.09681
270.24009,1.09745
269.99902,1.09399
269.75795,1.09305
269.51688,1.09726
269.27581,1.10243
269.03474,1.10336
268.79367,1.10035
268.55260,1.09905
268.31153,1.10433
268.07046,1.11551
267.82939,1.12809
267.58832,1.13828
267.34725,1.14428
267.10618,1.14609
266.86511,1.14661
266.62404,1.15004
266.38297,1.15727
266.14189,1.16553
265.90082,1.17273
265.65975,1.17865
265.41868,1.18265
265.17761,1.18483
264.93654,1.18801
264.69547,1.19501
264.45440,1.20524
264.21333,1.21611
263.97226,1.22620
263.73119,1.23641
263.49012,1.24900
263.24905,1.26503
263.00798,1.28260
262.76691,1.29930
262.52584,1.31520
262.28477,1.33072
262.04370,1.34444
261.80262,1.35671
261.56155,1.37306
261.32048,1.39944
261.07941,1.43365
260.83834,1.46411
260.59727,1.48093
260.35620,1.48709
260.11513,1.49440
259.87406,1.51200
259.63299,1.54121
259.39192,1.57472
259.15085,1.60344
258.90978,1.63071
258.66871,1.66544
258.42764,1.70562
258.18657,1.73649
257.94550,1.75208
257.70443,1.76851
257.46335,1.79040
257.22228,1.80070
256.98121,1.78988
256.74014,1.77098
256.49907,1.75972
256.25800,1.75999
256.01693,1.76700
255.77586,1.77193
255.53479,1.76249
255.29372,1.73330
255.05265,1.69563
254.81158,1.66503
254.57051,1.64289
254.32944,1.61851
254.08837,1.58683
253.84730,1.55610
253.60623,1.53628
253.36516,1.52885
253.12408,1.52857
252.88301,1.52881
252.64194,1.52586
252.40087,1.52090
252.15980,1.51639
251.91873,1.51121
251.67766,1.50465
251.43659,1.50175
251.19552,1.50751
250.95445,1.51929
250.71338,1.53011
250.47231,1.53613
250.23124,1.53653
249.99017,1.53001
249.74910,1.51547
249.50803,1.49742
249.26696,1.48517
249.02589,1.48414
248.78481,1.49141
248.54374,1.49722
248.30267,1.49208
248.06160,1.47752
247.82053,1.46539
247.57946,1.46396
247.33839,1.47058
247.09732,1.47912
246.85625,1.48942
246.61518,1.50749
246.37411,1.53600
246.13304,1.56679
245.89197,1.58755
245.65090,1.59627
245.40983,1.60271
245.16876,1.61470
244.92769,1.63367
244.68661,1.66049
244.44554,1.69271
244.20447,1.71952
243.96340,1.73465
243.72233,1.75069
243.48126,1.78776
243.24019,1.85114
242.99912,1.93559
242.75805,1.98420
242.51698,1.86601
242.27591,1.76055
242.03484,1.68494
241.79377,1.62306
241.55270,1.56360
241.31163,1.50178
241.07056,1.44089
240.82949,1.38387
240.58842,1.33270
240.34734,1.29070
240.10627,1.25774
239.86520,1.22720
239.62413,1.19427
239.38306,1.16224
239.14199,1.13509
238.90092,1.11090
238.65985,1.08637
238.41878,1.06231
238.17771,1.04151
237.93664,1.02484
237.69557,1.01121
237.45450,0.99889
237.21343,0.98621
236.97236,0.97195
236.73129,0.95609
236.49022,0.94099
236.24915,0.93046
236.00807,0.92570
235.76700,0.92255
235.52593,0.91568
235.28486,0.90551
235.04379,0.89743
234.80272,0.89407
234.56165,0.89221
234.32058,0.88788
234.07951,0.88133
233.83844,0.87549
233.59737,0.87138
233.35630,0.86726
233.11523,0.86218
232.87416,0.85797
232.63309,0.85637
232.39202,0.85550
232.15095,0.85189
231.90988,0.84515
231.66880,0.83803
231.42773,0.83256
231.18666,0.82911
230.94559,0.82833
230.70452,0.83062
230.46345,0.83412
230.22238,0.83576
229.98131,0.83415
229.74024,0.83026
229.49917,0.82544
229.25810,0.81948
229.01703,0.81157
228.77596,0.80302
228.53489,0.79724
228.29382,0.79636
228.05275,0.79878
227.81168,0.80087
227.57061,0.80069
227.32953,0.79930
227.08846,0.79899
226.84739,0.80060
226.60632,0.80268
226.36525,0.80335
226.12418,0.80199
225.88311,0.79841
225.64204,0.79287
225.40097,0.78759
225.15990,0.78509
224.91883,0.78469
224.67776,0.78405
224.43669,0.78343
224.19562,0.78483
223.95455,0.78817
223.71348,0.79190
223.47241,0.79573
223.23134,0.79955
222.99026,0.80185
222.74919,0.80203
222.50812,0.80212
222.26705,0.80402
222.02598,0.80715
221.78491,0.81047
221.54384,0.81437
221.30277,0.81951
221.06170,0.82553
220.82063,0.83187
220.57956,0.83882
220.33849,0.84663
220.09742,0.85495
219.85635,0.86355
219.61528,0.87247
219.37421,0.88071
219.13314,0.88666
218.89207,0.89105
218.65099,0.89716
218.40992,0.90705
218.16885,0.91957
217.92778,0.93237
217.68671,0.94437
217.44564,0.95613
217.20457,0.96846
216.96350,0.98092
216.72243,0.99258
216.48136,1.00377
216.24029,1.01573
215.99922,1.02911
215.75815,1.04419
215.51708,1.06072
215.27601,1.07588
215.03494,1.08570
214.79387,1.08985
214.55280,1.09265
214.31172,1.09920
214.07065,1.11189
213.82958,1.12953
213.58851,1.14860
213.34744,1.16541
213.10637,1.17739
212.86530,1.18325
212.62423,1.18427
212.38316,1.18418
212.14209,1.18620
211.90102,1.19064
211.65995,1.19476
211.41888,1.19510
211.17781,1.19077
210.93674,1.18387
210.69567,1.17837
210.45460,1.17847
210.21353,1.18562
209.97245,1.19633
209.73138,1.20417
209.49031,1.20447
209.24924,1.19715
209.00817,1.18598
208.76710,1.17546
208.52603,1.16786
208.28496,1.16314
208.04389,1.16033
207.80282,1.15713
207.56175,1.15092
207.32068,1.14201
207.07961,1.13312
206.83854,1.12606
206.59747,1.12103
206.35640,1.11704
206.11533,1.11123
205.87426,1.10061
205.63318,1.08588
205.39211,1.07026
205.15104,1.05514
204.90997,1.03992
204.66890,1.02473
204.42783,1.01069
204.18676,0.99813
203.94569,0.98594
203.70462,0.97322
203.46355,0.96139
203.22248,0.95320
202.98141,0.94842
202.74034,0.94193
202.49927,0.92905
202.25820,0.91184
202.01713,0.89577
201.77606,0.88274
201.53499,0.87036
201.29391,0.85603
201.05284,0.84029
200.81177,0.82622
200.57070,0.81613
200.32963,0.80949
200.08856,0.80373
199.84749,0.79669
199.60642,0.78773
199.36535,0.77707
199.12428,0.76568
198.88321,0.75531
198.64214,0.74693
198.40107,0.73961
198.16000,0.73176
197.91893,0.72309
197.67786,0.71416
197.43679,0.70506
197.19572,0.69573
196.95464,0.68655
196.71357,0.67781
196.47250,0.66971
196.23143,0.66311
195.99036,0.65869
195.74929,0.65505
195.50822,0.64958
195.26715,0.64173
195.02608,0.63361
194.78501,0.62737
194.54394,0.62281
194.30287,0.61824
194.06180,0.61321
193.82073,0.60899
193.57966,0.60590
193.33859,0.60245
193.09752,0.59775
192.85645,0.59295
192.61537,0.58903
192.37430,0.58539
192.13323,0.58116
191.89216,0.57627
191.65109,0.57146
191.41002,0.56785
191.16895,0.56587
190.92788,0.56398
190.68681,0.56022
190.44574,0.55517
190.20467,0.55133
189.96360,0.54950
189.72253,0.54814
189.48146,0.54616
189.24039,0.54422
188.99932,0.54307
188.75825,0.54254
188.51718,0.54243
188.27610,0.54272
188.03503,0.54272
187.79396,0.54112
187.55289,0.53740
187.31182,0.53309
187.07075,0.53057
186.82968,0.53047
186.58861,0.53080
186.34754,0.52993
186.10647,0.52880
185.86540,0.52883
185.62433,0.52941
185.38326,0.52897
185.14219,0.52762
184.90112,0.52689
184.66005,0.52751
184.41898,0.52885
184.17791,0.53032
183.93683,0.53211
183.69576,0.53421
183.45469,0.53618
183.21362,0.53827
182.97255,0.54103
182.73148,0.54374
182.49041,0.54528
182.24934,0.54635
182.00827,0.54844
181.76720,0.55086
181.52613,0.55153
181.28506,0.55028
181.04399,0.54891
180.80292,0.54847
180.56185,0.54901
180.32078,0.55073
180.07971,0.55337
179.83864,0.55592
179.59756,0.55858
179.35649,0.56327
179.11542,0.57094
178.87435,0.58009
178.63328,0.58864
178.39221,0.59572
178.15114,0.60167
177.91007,0.60771
177.66900,0.61540
177.42793,0.62556
177.18686,0.63807
176.94579,0.65212
176.70472,0.66623
176.46365,0.67908
176.22258,0.69077
175.98151,0.70240
175.74044,0.71510
175.49937,0.72960
175.25829,0.74600
175.01722,0.76416
174.77615,0.78378
174.53508,0.80338
174.29401,0.82101
174.05294,0.83749
173.81187,0.85545
173.57080,0.87415
173.32973,0.88943
173.08866,0.89923
172.84759,0.90539
172.60652,0.91002
172.36545,0.91310
172.12438,0.91347
171.88331,0.91151
171.64224,0.90966
171.40117,0.90986
171.16010,0.91223
170.91902,0.91624
170.67795,0.91964
170.43688,0.91773
170.19581,0.90906
169.95474,0.89899
169.71367,0.89234
169.47260,0.88819
169.23153,0.88406
168.99046,0.87959
168.74939,0.87471
168.50832,0.86857
168.26725,0.86151
168.02618,0.85556
167.78511,0.85233
167.54404,0.85192
167.30297,0.85414
167.06190,0.85884
166.82083,0.86480
166.57975,0.87015
166.33868,0.87380
166.09761,0.87543
165.85654,0.87540
165.61547,0.87586
165.37440,0.87939
165.13333,0.88556
164.89226,0.89140
164.65119,0.89569
164.41012,0.90082
164.16905,0.91032
163.92798,0.92526
163.68691,0.94214
163.44584,0.95508
163.20477,0.96106
162.96370,0.96232
162.72263,0.96284
162.48156,0.96470
162.24048,0.96893
161.99941,0.97662
161.75834,0.98719
161.51727,0.99727
161.27620,1.00263
161.03513,1.00138
160.79406,0.99527
160.55299,0.98830
160.31192,0.98385
160.07085,0.98280
159.82978,0.98370
159.58871,0.98414
159.34764,0.98218
159.10657,0.97707
158.86550,0.96911
158.62443,0.95976
158.38336,0.95198
158.14229,0.94832
157.90121,0.94802
157.66014,0.94754
157.41907,0.94431
157.17800,0.93844
156.93693,0.93096
156.69586,0.92220
156.45479,0.91290
156.21372,0.90515
155.97265,0.90008
155.73158,0.89565
155.49051,0.88827
155.24944,0.87680
155.00837,0.86351
154.76730,0.85125
154.52623,0.84124
154.28516,0.83342
154.04409,0.82646
153.80302,0.81773
153.56194,0.80489
153.32087,0.78869
153.07980,0.77295
152.83873,0.76051
152.59766,0.74999
152.35659,0.73733
152.11552,0.72020
151.87445,0.70023
151.63338,0.68129
151.39231,0.66628
151.15124,0.65520
150.91017,0.64579
150.66910,0.63560
150.42803,0.62401
150.18696,0.61236
149.94589,0.60200
149.70482,0.59251
149.46375,0.58251
149.22267,0.57182
148.98160,0.56192
148.74053,0.55438
148.49946,0.54951
148.25839,0.54591
148.01732,0.54130
147.77625,0.53465
147.53518,0.52775
147.29411,0.52376
147.05304,0.52391
146.81197,0.52631
146.57090,0.52836
146.32983,0.52970
146.08876,0.53190
145.84769,0.53565
145.60662,0.53962
145.36555,0.54229
145.12448,0.54416
144.88340,0.54712
144.64233,0.55209
144.40126,0.55762
144.16019,0.56151
143.91912,0.56339
143.67805,0.56453
143.43698,0.56546
143.19591,0.56515
142.95484,0.56238
142.71377,0.55700
142.47270,0.54947
142.23163,0.53999
141.99056,0.52874
141.74949,0.51708
141.50842,0.50707
141.26735,0.49974
141.02628,0.49481
140.78521,0.49176
140.54413,0.49003
140.30306,0.48859
140.06199,0.48679
139.82092,0.48550
139.57985,0.48654
139.33878,0.49069
139.09771,0.49632
138.85664,0.50079
138.61557,0.50385
138.37450,0.50805
138.13343,0.51531
137.89236,0.52501
137.65129,0.53606
137.41022,0.54823
137.16915,0.56121
136.92808,0.57453
136.68701,0.58892
136.44594,0.60563
136.20486,0.62460
135.96379,0.64523
135.72272,0.66811
135.48165,0.69408
135.24058,0.72210
134.99951,0.75012
134.75844,0.77743
134.51737,0.80499
134.27630,0.83415
134.03523,0.86549
133.79416,0.89763
133.55309,0.92780
133.31202,0.95582
133.07095,0.98548
132.82988,1.01964
132.58881,1.05472
132.34774,1.08224
132.10667,1.09652
131.86559,1.09966
131.62452,1.09867
131.38345,1.09860
131.14238,1.10045
130.90131,1.10352
130.66024,1.10518
130.41917,1.10001
130.17810,1.08275
129.93703,1.05292
129.69596,1.01561
129.45489,0.97789
129.21382,0.94413
128.97275,0.91429
128.73168,0.88569
128.49061,0.85575
128.24954,0.82339
128.00847,0.78932
127.76740,0.75571
127.52632,0.72479
127.28525,0.69717
127.04418,0.67203
126.80311,0.64897
126.56204,0.62854
126.32097,0.61073
126.07990,0.59404
125.83883,0.57704
125.59776,0.55992
125.35669,0.54380
125.11562,0.52946
124.87455,0.51692
124.63348,0.50576
124.39241,0.49533
124.15134,0.48508
123.91027,0.47510
123.66920,0.46641
123.42812,0.46018
123.18705,0.45629
122.94598,0.45298
122.70491,0.44883
122.46384,0.44477
122.22277,0.44285
121.98170,0.44284
121.74063,0.44209
121.49956,0.43939
121.25849,0.43679
121.01742,0.43671
120.77635,0.43991
120.53528,0.44637
120.29421,0.45606
120.05314,0.46843
119.81207,0.48286
119.57100,0.49958
119.32993,0.51936
119.08885,0.54257
118.84778,0.56881
118.60671,0.59723
118.36564,0.62675
118.12457,0.65557
117.88350,0.68054
117.64243,0.69939
117.40136,0.71425
117.16029,0.72986
116.91922,0.74732
116.67815,0.76186
116.43708,0.76828
116.19601,0.76664
115.95494,0.76041
115.71387,0.75150
115.47280,0.74026
115.23173,0.72803
114.99066,0.71670
114.74958,0.70647
114.50851,0.69578
114.26744,0.68383
114.02637,0.67201
113.78530,0.66234
113.54423,0.65550
113.30316,0.65107
113.06209,0.64872
112.82102,0.64829
112.57995,0.64931
112.33888,0.65160
112.09781,0.65581
111.85674,0.66336
111.61567,0.67525
111.37460,0.68997
111.13353,0.70258
110.89246,0.70821
110.65139,0.70627
110.41031,0.69933
110.16924,0.68921
109.92817,0.67623
109.68710,0.66130
109.44603,0.64727
109.20496,0.63765
108.96389,0.63285
108.72282,0.62825
108.48175,0.61741
108.24068,0.59798
107.99961,0.57304
107.75854,0.54697
107.51747,0.52252
107.27640,0.50163
107.03533,0.48609
106.79426,0.47615
106.55319,0.46938
106.31212,0.46176
106.07104,0.45056
105.82997,0.43572
105.58890,0.41921
105.34783,0.40434
105.10676,0.39435
104.86569,0.38979
104.62462,0.38738
104.38355,0.38166
104.14248,0.36954
103.90141,0.35377
103.66034,0.34025
103.41927,0.33275
103.17820,0.33062
102.93713,0.33004
102.69606,0.32666
102.45499,0.31898
102.21392,0.30979
101.97285,0.30341
101.73177,0.30097
101.49070,0.29955
101.24963,0.29578
101.00856,0.28973
100.76749,0.28374
100.52642,0.27908
100.28535,0.27562
100.04428,0.27325
99.80321,0.27137
99.56214,0.26838
99.32107,0.26398
99.08000,0.26050
98.83893,0.25990
98.59786,0.26095
98.35679,0.26028
98.11572,0.25648
97.87465,0.25241
97.63358,0.25211
97.39250,0.25603
97.15143,0.26025
96.91036,0.26085
96.66929,0.25917
96.42822,0.26041
96.18715,0.26708
95.94608,0.27582
95.70501,0.28172
95.46394,0.28518
95.22287,0.29081
94.98180,0.30009
94.74073,0.30870
94.49966,0.31219
94.25859,0.31203
94.01752,0.31253
93.77645,0.31437
93.53538,0.31458
93.29431,0.31279
93.05323,0.31290
92.81216,0.31656
92.57109,0.31970
92.33002,0.31909
92.08895,0.31738
91.84788,0.31766
91.60681,0.31894
91.36574,0.32083
91.12467,0.32728
90.88360,0.34112
90.64253,0.36040
90.40146,0.38354
90.16039,0.41250
89.91932,0.44761
89.67825,0.48628
89.43718,0.52835
89.19611,0.57432
88.95504,0.61911
88.71396,0.65662
88.47289,0.68576
88.23182,0.70381
87.99075,0.70387
87.74968,0.68356
87.50861,0.64752
87.26754,0.60362
87.02647,0.56026
86.78540,0.52291
86.54433,0.49123
86.30326,0.46149
86.06219,0.43131
85.82112,0.40144
85.58005,0.37402
85.33898,0.35028
85.09791,0.33021
84.85684,0.31328
84.61577,0.29842
84.37469,0.28461
84.13362,0.27247
83.89255,0.26329
83.65148,0.25651
83.41041,0.25030
83.16934,0.24381
82.92827,0.23720
82.68720,0.23070
82.44613,0.22475
82.20506,0.21973
81.96399,0.21537
81.72292,0.21141
81.48185,0.20821
81.24078,0.20630
80.99971,0.20574
80.75864,0.20579
80.51757,0.20505
80.27650,0.20274
80.03542,0.19936
79.79435,0.19597
79.55328,0.19326
79.31221,0.19151
79.07114,0.19046
78.83007,0.18937
78.58900,0.18757
78.34793,0.18486
78.10686,0.18152
77.86579,0.17791
77.62472,0.17417
77.38365,0.17036
77.14258,0.16688
76.90151,0.16417
76.66044,0.16220
76.41937,0.16082
76.17830,0.16000
75.93723,0.15920
75.69615,0.15752
75.45508,0.15486
75.21401,0.15204
74.97294,0.15000
74.73187,0.14966
74.49080,0.15181
74.24973,0.15623
74.00866,0.16150
73.76759,0.16592
73.52652,0.16799
73.28545,0.16689
73.04438,0.16386
72.80331,0.16185
72.56224,0.16238
72.32117,0.16420
72.08010,0.16519
71.83903,0.16417
71.59796,0.16097
71.35688,0.15647
71.11581,0.15298
70.87474,0.15330
70.63367,0.15894
70.39260,0.16943
70.15153,0.18359
69.91046,0.20074
69.66939,0.21969
69.42832,0.23690
69.18725,0.24713
68.94618,0.24705
68.70511,0.23779
68.46404,0.22378
68.22297,0.20933
67.98190,0.19649
67.74083,0.18602
67.49976,0.17847
67.25869,0.17327
67.01761,0.16804
66.77654,0.16072
66.53547,0.15220
66.29440,0.14545
66.05333,0.14212
65.81226,0.14113
65.57119,0.14086
65.33012,0.14148
65.08905,0.14442
64.84798,0.15039
64.60691,0.15880
64.36584,0.16852
64.12477,0.17795
63.88370,0.18539
63.64263,0.18974
63.40156,0.19051
63.16049,0.18779
62.91942,0.18287
62.67834,0.17734
62.43727,0.17117
62.19620,0.16319
61.95513,0.15343
61.71406,0.14365
61.47299,0.13545
61.23192,0.12915
60.99085,0.12417
60.74978,0.12002
60.50871,0.11685
60.26764,0.11501
60.02657,0.11470
59.78550,0.11613
59.54443,0.11972
59.30336,0.12552
59.06229,0.13255
58.82122,0.13922
58.58015,0.14490
58.33907,0.15082
58.09800,0.15867
57.85693,0.16803
57.61586,0.17553
57.37479,0.17648
57.13372,0.16827
56.89265,0.15295
56.65158,0.13615
56.41051,0.12294
56.16944,0.11499
55.92837,0.11163
55.68730,0.11330
55.44623,0.12281
55.20516,0.14196
54.96409,0.16642
54.72302,0.18496
54.48195,0.18574
54.24088,0.16666
53.99980,0.13787
53.75873,0.11353
53.51766,0.10375
53.27659,0.11277
53.03552,0.13904
52.79445,0.17175
52.55338,0.18902
52.31231,0.17581
52.07124,0.14434
51.83017,0.11734
51.58910,0.10940
51.34803,0.12309
51.10696,0.14681
50.86589,0.15752
50.62482,0.14297
50.38375,0.11943
50.14268,0.10937
49.90161,0.12349
49.66053,0.15611
49.41946,0.17730
49.17839,0.16014
48.93732,0.13044
48.69625,0.12335
48.45518,0.14381
48.21411,0.16461
47.97304,0.15257
47.73197,0.12569
47.49090,0.12178
47.24983,0.14426
47.00876,0.15695
46.76769,0.13496
46.52662,0.11346
46.28555,0.12055
46.04448,0.13704
45.80341,0.13375
45.56234,0.12298
45.32126,0.12465
45.08019,0.12745
44.83912,0.11936
44.59805,0.11560
44.35698,0.12281
44.11591,0.12576
43.87484,0.12272
43.63377,0.12752
43.39270,0.13817
43.15163,0.14096
42.91056,0.13375
42.66949,0.12383
42.42842,0.11824
42.18735,0.12175
41.94628,0.13303
41.70521,0.14552
41.46414,0.15419
41.22307,0.15846
40.98199,0.16210
40.74092,0.16907
40.49985,0.17641
40.25878,0.17822
40.01771,0.17508
39.77664,0.17108
39.53557,0.16912
39.29450,0.17174
39.05343,0.17688
38.81236,0.17767
38.57129,0.17336
38.33022,0.16862
38.08915,0.16347
37.84808,0.15826
37.60701,0.16042
37.36594,0.17309
37.12487,0.18712
36.88380,0.19300
36.64272,0.19013
36.40165,0.18351
36.16058,0.17655
35.91951,0.16920
35.67844,0.16329
35.43737,0.16327
35.19630,0.16796
34.95523,0.17026
34.71416,0.16878
34.47309,0.16902
34.23202,0.17118
33.99095,0.16597
33.74988,0.14560
33.50881,0.11720
33.26774,0.10024
33.02667,0.10592
32.78560,0.12400
32.54453,0.13560
32.30345,0.12987
32.06238,0.10789
31.82131,0.07865
31.58024,0.05108
31.33917,0.03060
31.09810,0.02067
30.85703,0.01840
30.61596,0.01213
30.37489,-0.00357
30.13382,-0.01992
29.89275,-0.02845
29.65168,-0.03016
29.41061,-0.02955
29.16954,-0.03022
28.92847,-0.03633
28.68740,-0.05126
28.44633,-0.07034
28.20526,-0.08236
27.96418,-0.08471
27.72311,-0.08583
27.48204,-0.09011
27.24097,-0.09300
26.99990,-0.09553
26.75883,-0.10753
26.51776,-0.13100
26.27669,-0.15108
26.03562,-0.15682
25.79455,-0.16221
25.55348,-0.18519
25.31241,-0.21786
25.07134,-0.23610
24.83027,-0.23802
24.58920,-0.23851
24.34813,-0.23887
24.10706,-0.23853
23.86599,-0.24798
23.62491,-0.27258
23.38384,-0.30335
23.14277,-0.32573
22.90170,-0.33071
22.66063,-0.32078
22.41956,-0.30219
22.17849,-0.28055
21.93742,-0.26544
21.69635,-0.26688
21.45528,-0.28636
21.21421,-0.31259
20.97314,-0.32979
20.73207,-0.33766
20.49100,-0.35198
20.24993,-0.37975
20.00886,-0.40357
19.76779,-0.40487
19.52672,-0.39158
19.28564,-0.38178
19.04457,-0.38557
18.80350,-0.40277
18.56243,-0.42935
18.32136,-0.46122
18.08029,-0.48507
17.83922,-0.48993
17.59815,-0.47628
17.35708,-0.45898
17.11601,-0.44708
16.87494,-0.43430
16.63387,-0.41491
16.39280,-0.39831
16.15173,-0.39072
15.91066,-0.37558
15.66959,-0.36942
15.42852,-0.37921
15.18745,-0.40115
14.94637,-0.42896
14.70530,-0.45085
14.46423,-0.44891
14.22316,-0.42651
13.98209,-0.40130
13.74102,-0.39213
13.49995,-0.40806
13.25888,-0.43663
13.01781,-0.45566
12.77674,-0.45558
12.53567,-0.43694
12.29460,-0.42387
12.05353,-0.42087
11.81246,-0.41412
11.57139,-0.40450
11.33032,-0.40879
11.08925,-0.43212
10.84818,-0.44995
10.60710,-0.45259
10.36603,-0.45421
10.12496,-0.44887
9.88389,-0.43253
9.64282,-0.41400
9.40175,-0.41285
9.16068,-0.43265
8.91961,-0.44847
8.67854,-0.43686
8.43747,-0.40885
8.19640,-0.38649
7.95533,-0.37435
7.71426,-0.36881
7.47319,-0.37046
7.23212,-0.37790
6.99105,-0.38419
6.74998,-0.38510
6.50891,-0.38036
6.26783,-0.37653
6.02676,-0.38735
5.78569,-0.41464
5.54462,-0.44019
5.30355,-0.44672
5.06248,-0.43199
4.82141,-0.40689
4.58034,-0.38265
4.33927,-0.36550
4.09820,-0.35414
3.85713,-0.34851
3.61606,-0.35562
3.37499,-0.37231
3.13392,-0.38565
2.89285,-0.39650
2.65178,-0.40153
2.41071,-0.39688
2.16964,-0.39240
1.92856,-0.38591
1.68749,-0.37112
1.44642,-0.36921
1.20535,-0.36944
0.96428,-0.36513
0.72321,-0.38761
0.48214,-0.42414
0.24107,-0.40739
-0.00000,-0.36836
