399.69498,1.86805
399.45391,1.84411
399.21284,1.81848
398.97177,1.79960
398.73070,1.81480
398.48963,1.88430
398.24856,1.99068
398.00749,2.06444
397.76642,2.07485
397.52535,2.07968
397.28428,2.14031
397.04321,2.26395
396.80214,2.33620
396.56107,2.28074
396.32000,2.10405
396.07892,1.93631
395.83785,1.90550
395.59678,1.98748
395.35571,2.09522
395.11464,2.10619
394.87357,2.02981
394.63250,1.98364
394.39143,2.00477
394.15036,2.08037
393.90929,2.15124
393.66822,2.05698
393.42715,1.92044
393.18608,1.89404
392.94501,1.92318
392.70394,1.92706
392.46287,1.94707
392.22180,2.08353
391.98073,2.32715
391.73965,2.44432
391.49858,2.64084
391.25751,2.41718
391.01644,2.22013
390.77537,2.16072
390.53430,2.11572
390.29323,2.08549
390.05216,2.19744
389.81109,2.31701
389.57002,2.09830
389.32895,1.95649
389.08788,1.94404
388.84681,2.02714
388.60574,2.11985
388.36467,2.19130
388.12360,2.27800
387.88253,2.47519
387.64146,2.59162
387.40038,2.44637
387.15931,2.22124
386.91824,2.18184
386.67717,2.13116
386.43610,1.96859
386.19503,1.85275
385.95396,1.78446
385.71289,1.73114
385.47182,1.71503
385.23075,1.80487
384.98968,2.01027
384.74861,2.22291
384.50754,2.28277
384.26647,2.08223
384.02540,2.01904
383.78433,2.06662
383.54326,2.00671
383.30219,1.99068
383.06111,2.11829
382.82004,2.27540
382.57897,2.10972
382.33790,1.89493
382.09683,1.77061
381.85576,1.75015
381.61469,1.79201
381.37362,1.84977
381.13255,1.91993
380.89148,1.88834
380.65041,1.79268
380.40934,1.85232
380.16827,2.12096
379.92720,2.44448
379.68613,2.24261
379.44506,2.06738
379.20399,2.04793
378.96292,1.91279
378.72184,1.84682
378.48077,1.89962
378.23970,1.89774
377.99863,1.89163
377.75756,1.90292
377.51649,1.92907
377.27542,1.96954
377.03435,1.93581
376.79328,1.82747
376.55221,1.81974
376.31114,1.99125
376.07007,2.23024
375.82900,2.22263
375.58793,2.11386
375.34686,2.08700
375.10579,2.09458
374.86472,2.02911
374.62365,2.00289
374.38257,2.02994
374.14150,2.15632
373.90043,2.38004
373.65936,2.31731
373.41829,2.33005
373.17722,2.13075
372.93615,1.85304
372.69508,1.71213
372.45401,1.75655
372.21294,1.94414
371.97187,2.08364
371.73080,2.01565
371.48973,1.99431
371.24866,1.98989
371.00759,1.94496
370.76652,1.86900
370.52545,1.80103
370.28437,1.77540
370.04330,1.79554
369.80223,1.81113
369.56116,1.77232
369.32009,1.73989
369.07902,1.73994
368.83795,1.74319
368.59688,1.74879
368.35581,1.77106
368.11474,1.79129
367.87367,1.76831
367.63260,1.72463
367.39153,1.68926
367.15046,1.65068
366.90939,1.59911
366.66832,1.55891
366.42725,1.56021
366.18618,1.59619
365.94510,1.62458
365.70403,1.61801
365.46296,1.59593
365.22189,1.59531
364.98082,1.62856
364.73975,1.67887
364.49868,1.72130
364.25761,1.74645
364.01654,1.75492
363.77547,1.74786
363.53440,1.72983
363.29333,1.69950
363.05226,1.65456
362.81119,1.60692
362.57012,1.57726
362.32905,1.56885
362.08798,1.56783
361.84691,1.56222
361.60583,1.54753
361.36476,1.53331
361.12369,1.53691
360.88262,1.55388
360.64155,1.56289
360.40048,1.56178
360.15941,1.56251
359.91834,1.56772
359.67727,1.56503
359.43620,1.55264
359.19513,1.54461
358.95406,1.54399
358.71299,1.54859
358.47192,1.56281
358.23085,1.58423
357.98978,1.58562
357.74871,1.54714
357.50764,1.49316
357.26656,1.46026
357.02549,1.46172
356.78442,1.49282
356.54335,1.53532
356.30228,1.55727
356.06121,1.54501
355.82014,1.52191
355.57907,1.51024
355.33800,1.51114
355.09693,1.51409
354.85586,1.50908
354.61479,1.49779
354.37372,1.49494
354.13265,1.51079
353.89158,1.53678
353.65051,1.55671
353.40944,1.57123
353.16837,1.59193
352.92729,1.61152
352.68622,1.60563
352.44515,1.57184
352.20408,1.53658
351.96301,1.52132
351.72194,1.52367
351.48087,1.52837
351.23980,1.52750
350.99873,1.52298
350.75766,1.51837
350.51659,1.51394
350.27552,1.50726
350.03445,1.49465
349.79338,1.48001
349.55231,1.47549
349.31124,1.48524
349.07017,1.49783
348.82910,1.49968
348.58802,1.48838
348.34695,1.47317
348.10588,1.46780
347.86481,1.47009
347.62374,1.46134
347.38267,1.44123
347.14160,1.43770
346.90053,1.46767
346.65946,1.51023
346.41839,1.53238
346.17732,1.53786
345.93625,1.55777
345.69518,1.60175
345.45411,1.63885
345.21304,1.63421
344.97197,1.60891
344.73090,1.59287
344.48983,1.58695
344.24875,1.59477
344.00768,1.62700
343.76661,1.67021
343.52554,1.68904
343.28447,1.66544
343.04340,1.61482
342.80233,1.57918
342.56126,1.58307
342.32019,1.61426
342.07912,1.64131
341.83805,1.64344
341.59698,1.62870
341.35591,1.62872
341.11484,1.65990
340.87377,1.70166
340.63270,1.71895
340.39163,1.70905
340.15056,1.72760
339.90948,1.82762
339.66841,1.99416
339.42734,2.07525
339.18627,1.92437
338.94520,1.77590
338.70413,1.70805
338.46306,1.68881
338.22199,1.69462
337.98092,1.71240
337.73985,1.73374
337.49878,1.76436
337.25771,1.80016
337.01664,1.81935
336.77557,1.83963
336.53450,1.87689
336.29343,1.88575
336.05236,1.83685
335.81129,1.76752
335.57021,1.73392
335.32914,1.73723
335.08807,1.75667
334.84700,1.80448
334.60593,1.90566
334.36486,2.05011
334.12379,2.16073
333.88272,2.13994
333.64165,2.08142
333.40058,2.04565
333.15951,1.96986
332.91844,1.85294
332.67737,1.76501
332.43630,1.73748
332.19523,1.74542
331.95416,1.75655
331.71309,1.76375
331.47202,1.75814
331.23094,1.72119
330.98987,1.65556
330.74880,1.58394
330.50773,1.54338
330.26666,1.56652
330.02559,1.64612
329.78452,1.70475
329.54345,1.69203
329.30238,1.65598
329.06131,1.61536
328.82024,1.61877
328.57917,1.69218
328.33810,1.79569
328.09703,1.85895
327.85596,1.85522
327.61489,1.86660
327.37382,1.89291
327.13275,1.86341
326.89167,1.78281
326.65060,1.69876
326.40953,1.64866
326.16846,1.62926
325.92739,1.63266
325.68632,1.67239
325.44525,1.75472
325.20418,1.86328
324.96311,2.02732
324.72204,2.20620
324.48097,2.09564
324.23990,1.96396
323.99883,1.90667
323.75776,1.82210
323.51669,1.76511
323.27562,1.72160
323.03455,1.65312
322.79348,1.59189
322.55240,1.59647
322.31133,1.65498
322.07026,1.68581
321.82919,1.69360
321.58812,1.75791
321.34705,1.87042
321.10598,1.94883
320.86491,1.94367
320.62384,1.82955
320.38277,1.75938
320.14170,1.77388
319.90063,1.83649
319.65956,1.90611
319.41849,1.93805
319.17742,1.89849
318.93635,1.88032
318.69528,1.91974
318.45421,2.02740
318.21313,2.14184
317.97206,2.16401
317.73099,2.26177
317.48992,2.26019
317.24885,2.09672
317.00778,1.96219
316.76671,1.91929
316.52564,1.90155
316.28457,1.86313
316.04350,1.87823
315.80243,1.97368
315.56136,2.00455
315.32029,1.90640
315.07922,1.80082
314.83815,1.77508
314.59708,1.83542
314.35601,1.90967
314.11494,1.92554
313.87386,1.94253
313.63279,2.06466
313.39172,2.32966
313.15065,2.42721
312.90958,2.32332
312.66851,2.23102
312.42744,2.11732
312.18637,2.05404
311.94530,2.07050
311.70423,2.09249
311.46316,2.05649
311.22209,1.96223
310.98102,1.91698
310.73995,2.02225
310.49888,2.27871
310.25781,2.35486
310.01674,2.31490
309.77567,2.18366
309.53459,2.00811
309.29352,1.88394
309.05245,1.80557
308.81138,1.76299
308.57031,1.74870
308.32924,1.74801
308.08817,1.76607
307.84710,1.80818
307.60603,1.85851
307.36496,1.89215
307.12389,1.90124
306.88282,1.90245
306.64175,1.87801
306.40068,1.80328
306.15961,1.72771
305.91854,1.68615
305.67747,1.68009
305.43640,1.69883
305.19532,1.71305
304.95425,1.69498
304.71318,1.64827
304.47211,1.59755
304.23104,1.56163
303.98997,1.54859
303.74890,1.56021
303.50783,1.58570
303.26676,1.59071
303.02569,1.54309
302.78462,1.46438
302.54355,1.40525
302.30248,1.38827
302.06141,1.40038
301.82034,1.41508
301.57927,1.41856
301.33820,1.41215
301.09713,1.39739
300.85605,1.37761
300.61498,1.36330
300.37391,1.36445
300.13284,1.38214
299.89177,1.40503
299.65070,1.41098
299.40963,1.38703
299.16856,1.34759
298.92749,1.31135
298.68642,1.28602
298.44535,1.27637
298.20428,1.28307
297.96321,1.29707
297.72214,1.30287
297.48107,1.28991
297.24000,1.26343
296.99893,1.24201
296.75786,1.24089
296.51678,1.25762
296.27571,1.27264
296.03464,1.27036
295.79357,1.25813
295.55250,1.24991
295.31143,1.24599
295.07036,1.24118
294.82929,1.23557
294.58822,1.22882
294.34715,1.21745
294.10608,1.20433
293.86501,1.19828
293.62394,1.19994
293.38287,1.19866
293.14180,1.18693
292.90073,1.16950
292.65966,1.15534
292.41859,1.14961
292.17751,1.15311
291.93644,1.16322
291.69537,1.17304
291.45430,1.17470
291.21323,1.16736
290.97216,1.15810
290.73109,1.15362
290.49002,1.15300
290.24895,1.15048
290.00788,1.14440
289.76681,1.13864
289.52574,1.13607
289.28467,1.13640
289.04360,1.13859
288.80253,1.14099
288.56146,1.14094
288.32039,1.13715
288.07932,1.13253
287.83824,1.13197
287.59717,1.13659
287.35610,1.14181
287.11503,1.14222
286.87396,1.13643
286.63289,1.12542
286.39182,1.11169
286.15075,1.10153
285.90968,1.10139
285.66861,1.10949
285.42754,1.11678
285.18647,1.11736
284.94540,1.11140
284.70433,1.09906
284.46326,1.08232
284.22219,1.06920
283.98112,1.06671
283.74005,1.07207
283.49897,1.07642
283.25790,1.07659
283.01683,1.07791
282.77576,1.08474
282.53469,1.09358
282.29362,1.09768
282.05255,1.09696
281.81148,1.09863
281.57041,1.10627
281.32934,1.11345
281.08827,1.11185
280.84720,1.10275
280.60613,1.09434
280.36506,1.09044
280.12399,1.08882
279.88292,1.08797
279.64185,1.08843
279.40078,1.08775
279.15970,1.08250
278.91863,1.07471
278.67756,1.07003
278.43649,1.07081
278.19542,1.07322
277.95435,1.07309
277.71328,1.07296
277.47221,1.07799
277.23114,1.08689
276.99007,1.09096
276.74900,1.08512
276.50793,1.07445
276.26686,1.06596
276.02579,1.06142
275.78472,1.06015
275.54365,1.06297
275.30258,1.07003
275.06151,1.07800
274.82043,1.08344
274.57936,1.08564
274.33829,1.08537
274.09722,1.08242
273.85615,1.07548
273.61508,1.06467
273.37401,1.05221
273.13294,1.04158
272.89187,1.03788
272.65080,1.04500
272.40973,1.05994
272.16866,1.07390
271.92759,1.08107
271.68652,1.08316
271.44545,1.08434
271.20438,1.08608
270.96331,1.08631
270.72224,1.08074
270.48116,1.06946
270.24009,1.06187
269.99902,1.06700
269.75795,1.08109
269.51688,1.09178
269.27581,1.09209
269.03474,1.08662
268.79367,1.08538
268.55260,1.09449
268.31153,1.11116
268.07046,1.12647
267.82939,1.13507
267.58832,1.13754
267.34725,1.13302
267.10618,1.12044
266.86511,1.10641
266.62404,1.10297
266.38297,1.11432
266.14189,1.13265
265.90082,1.14771
265.65975,1.15677
265.41868,1.16366
265.17761,1.16976
264.93654,1.17129
264.69547,1.16628
264.45440,1.15921
264.21333,1.15691
263.97226,1.16305
263.73119,1.17637
263.49012,1.19135
263.24905,1.20206
263.00798,1.20911
262.76691,1.21935
262.52584,1.23758
262.28477,1.25994
262.04370,1.27624
261.80262,1.28312
261.56155,1.28938
261.32048,1.30327
261.07941,1.32067
260.83834,1.33125
260.59727,1.33331
260.35620,1.33537
260.11513,1.34399
259.87406,1.35401
259.63299,1.35437
259.39192,1.34436
259.15085,1.33789
258.90978,1.34921
258.66871,1.38264
258.42764,1.43584
258.18657,1.50273
257.94550,1.57023
257.70443,1.62441
257.46335,1.65356
257.22228,1.65599
256.98121,1.65480
256.74014,1.66791
256.49907,1.69035
256.25800,1.71265
256.01693,1.72851
255.77586,1.73287
255.53479,1.74752
255.29372,1.81811
255.05265,1.95496
254.81158,2.06397
254.57051,2.03505
254.32944,1.95371
254.08837,1.92762
253.84730,1.97250
253.60623,2.05345
253.36516,2.14631
253.12408,2.21307
252.88301,2.20211
252.64194,2.14818
252.40087,2.07360
252.15980,2.04294
251.91873,2.07289
251.67766,2.16841
251.43659,2.23937
251.19552,2.16599
250.95445,2.09334
250.71338,2.08117
250.47231,2.13599
250.23124,2.22760
249.99017,2.27912
249.74910,2.26015
249.50803,2.22280
249.26696,2.21420
249.02589,2.24073
248.78481,2.30638
248.54374,2.28946
248.30267,2.19665
248.06160,2.18750
247.82053,2.28938
247.57946,2.41181
247.33839,2.42923
247.09732,2.37788
246.85625,2.26086
246.61518,2.14234
246.37411,2.07713
246.13304,2.06681
245.89197,2.09824
245.65090,2.13135
245.40983,2.09906
245.16876,1.99755
244.92769,1.88081
244.68661,1.79854
244.44554,1.77083
244.20447,1.77743
243.96340,1.77627
243.72233,1.74722
243.48126,1.70224
243.24019,1.65204
242.99912,1.59256
242.75805,1.52097
242.51698,1.44746
242.27591,1.39424
242.03484,1.36815
241.79377,1.35120
241.55270,1.32381
241.31163,1.28492
241.07056,1.24979
240.82949,1.22813
240.58842,1.20932
240.34734,1.17977
240.10627,1.14494
239.86520,1.11817
239.62413,1.10059
239.38306,1.08218
239.14199,1.05751
238.90092,1.03194
238.65985,1.01240
238.41878,0.99903
238.17771,0.98663
237.93664,0.97167
237.69557,0.95537
237.45450,0.94004
237.21343,0.92574
236.97236,0.91198
236.73129,0.90043
236.49022,0.89270
236.24915,0.88661
236.00807,0.87788
235.76700,0.86588
235.52593,0.85500
235.28486,0.84976
235.04379,0.84964
234.80272,0.84903
234.56165,0.84348
234.32058,0.83465
234.07951,0.82684
233.83844,0.82179
233.59737,0.81855
233.35630,0.81560
233.11523,0.81155
232.87416,0.80587
232.63309,0.79996
232.39202,0.79578
232.15095,0.79384
231.90988,0.79314
231.66880,0.79227
231.42773,0.78997
231.18666,0.78573
230.94559,0.78089
230.70452,0.77769
230.46345,0.77669
230.22238,0.77632
229.98131,0.77514
229.74024,0.77303
229.49917,0.76992
229.25810,0.76528
229.01703,0.75954
228.77596,0.75488
228.53489,0.75336
228.29382,0.75455
228.05275,0.75506
227.81168,0.75198
227.57061,0.74769
227.32953,0.74719
227.08846,0.74975
226.84739,0.74900
226.60632,0.74299
226.36525,0.73768
226.12418,0.73829
225.88311,0.74336
225.64204,0.74791
225.40097,0.74856
225.15990,0.74597
224.91883,0.74404
224.67776,0.74564
224.43669,0.74906
224.19562,0.75041
223.95455,0.74852
223.71348,0.74580
223.47241,0.74514
223.23134,0.74753
222.99026,0.75157
222.74919,0.75476
222.50812,0.75682
222.26705,0.76045
222.02598,0.76726
221.78491,0.77477
221.54384,0.77883
221.30277,0.77864
221.06170,0.77803
220.82063,0.78090
220.57956,0.78697
220.33849,0.79358
220.09742,0.79989
219.85635,0.80718
219.61528,0.81591
219.37421,0.82484
219.13314,0.83320
218.89207,0.84098
218.65099,0.84801
218.40992,0.85521
218.16885,0.86484
217.92778,0.87770
217.68671,0.89164
217.44564,0.90387
217.20457,0.91416
216.96350,0.92503
216.72243,0.93756
216.48136,0.94801
216.24029,0.95185
215.99922,0.94982
215.75815,0.94770
215.51708,0.95090
215.27601,0.96053
215.03494,0.97365
214.79387,0.98549
214.55280,0.99309
214.31172,0.99704
214.07065,0.99930
213.82958,1.00127
213.58851,1.00494
213.34744,1.01306
213.10637,1.02517
212.86530,1.03544
212.62423,1.03756
212.38316,1.03240
212.14209,1.02776
211.90102,1.03019
211.65995,1.03981
211.41888,1.05131
211.17781,1.05883
210.93674,1.05975
210.69567,1.05542
210.45460,1.05022
210.21353,1.04783
209.97245,1.04697
209.73138,1.04427
209.49031,1.04064
209.24924,1.03927
209.00817,1.04001
208.76710,1.04058
208.52603,1.04094
208.28496,1.04225
208.04389,1.04217
207.80282,1.03664
207.56175,1.02711
207.32068,1.01936
207.07961,1.01538
206.83854,1.01200
206.59747,1.00502
206.35640,0.99181
206.11533,0.97385
205.87426,0.95828
205.63318,0.95235
205.39211,0.95448
205.15104,0.95447
204.90997,0.94480
204.66890,0.92904
204.42783,0.91477
204.18676,0.90422
203.94569,0.89577
203.70462,0.88881
203.46355,0.88392
203.22248,0.88080
202.98141,0.87675
202.74034,0.86891
202.49927,0.85780
202.25820,0.84586
202.01713,0.83358
201.77606,0.82037
201.53499,0.80722
201.29391,0.79591
201.05284,0.78642
200.81177,0.77637
200.57070,0.76379
200.32963,0.74960
200.08856,0.73661
199.84749,0.72729
199.60642,0.72257
199.36535,0.72108
199.12428,0.71934
198.88321,0.71469
198.64214,0.70752
198.40107,0.69935
198.16000,0.69073
197.91893,0.68153
197.67786,0.67157
197.43679,0.66144
197.19572,0.65300
196.95464,0.64743
196.71357,0.64328
196.47250,0.63802
196.23143,0.63092
195.99036,0.62353
195.74929,0.61779
195.50822,0.61434
195.26715,0.61149
195.02608,0.60659
194.78501,0.59894
194.54394,0.59089
194.30287,0.58570
194.06180,0.58475
193.82073,0.58629
193.57966,0.58646
193.33859,0.58237
193.09752,0.57493
192.85645,0.56766
192.61537,0.56261
192.37430,0.55891
192.13323,0.55507
191.89216,0.55060
191.65109,0.54593
191.41002,0.54206
191.16895,0.53938
190.92788,0.53653
190.68681,0.53191
190.44574,0.52636
190.20467,0.52231
189.96360,0.52039
189.72253,0.51897
189.48146,0.51672
189.24039,0.51411
188.99932,0.51268
188.75825,0.51368
188.51718,0.51636
188.27610,0.51785
188.03503,0.51622
187.79396,0.51310
187.55289,0.51102
187.31182,0.50941
187.07075,0.50587
186.82968,0.50062
186.58861,0.49661
186.34754,0.49528
186.10647,0.49503
185.86540,0.49432
185.62433,0.49389
185.38326,0.49548
185.14219,0.49916
184.90112,0.50266
184.66005,0.50346
184.41898,0.50138
184.17791,0.49887
183.93683,0.49873
183.69576,0.50173
183.45469,0.50635
183.21362,0.51022
182.97255,0.51201
182.73148,0.51178
182.49041,0.51008
182.24934,0.50759
182.00827,0.50572
181.76720,0.50659
181.52613,0.51087
181.28506,0.51602
181.04399,0.51888
180.80292,0.51978
180.56185,0.52199
180.32078,0.52689
180.07971,0.53192
179.83864,0.53415
179.59756,0.53404
179.35649,0.53425
179.11542,0.53601
178.87435,0.53881
178.63328,0.54288
178.39221,0.54956
178.15114,0.55881
177.91007,0.56856
177.66900,0.57703
177.42793,0.58467
177.18686,0.59339
176.94579,0.60411
176.70472,0.61575
176.46365,0.62671
176.22258,0.63678
175.98151,0.64739
175.74044,0.66068
175.49937,0.67831
175.25829,0.69966
175.01722,0.72042
174.77615,0.73616
174.53508,0.74787
174.29401,0.76021
174.05294,0.77432
173.81187,0.78620
173.57080,0.79250
173.32973,0.79504
173.08866,0.79840
172.84759,0.80480
172.60652,0.81250
172.36545,0.81827
172.12438,0.82030
171.88331,0.81893
171.64224,0.81611
171.40117,0.81453
171.16010,0.81600
170.91902,0.81993
170.67795,0.82396
170.43688,0.82548
170.19581,0.82234
169.95474,0.81412
169.71367,0.80406
169.47260,0.79688
169.23153,0.79384
168.99046,0.79202
168.74939,0.78919
168.50832,0.78687
168.26725,0.78729
168.02618,0.78931
167.78511,0.78927
167.54404,0.78609
167.30297,0.78324
167.06190,0.78375
166.82083,0.78564
166.57975,0.78534
166.33868,0.78372
166.09761,0.78487
165.85654,0.79023
165.61547,0.79764
165.37440,0.80467
165.13333,0.80990
164.89226,0.81200
164.65119,0.81138
164.41012,0.81202
164.16905,0.81786
163.92798,0.82790
163.68691,0.83829
163.44584,0.84807
163.20477,0.85888
162.96370,0.86936
162.72263,0.87518
162.48156,0.87531
162.24048,0.87390
161.99941,0.87487
161.75834,0.87768
161.51727,0.87922
161.27620,0.87670
161.03513,0.86851
160.79406,0.85665
160.55299,0.84820
160.31192,0.84873
160.07085,0.85481
159.82978,0.85770
159.58871,0.85468
159.34764,0.85122
159.10657,0.85106
158.86550,0.85026
158.62443,0.84347
158.38336,0.83245
158.14229,0.82347
157.90121,0.81879
157.66014,0.81597
157.41907,0.81435
157.17800,0.81640
156.93693,0.82224
156.69586,0.82726
156.45479,0.82641
156.21372,0.81958
155.97265,0.81184
155.73158,0.80759
155.49051,0.80547
155.24944,0.80118
155.00837,0.79316
154.76730,0.78201
154.52623,0.76737
154.28516,0.74973
154.04409,0.73252
153.80302,0.71887
153.56194,0.70893
153.32087,0.70142
153.07980,0.69503
152.83873,0.68770
152.59766,0.67757
152.35659,0.66554
152.11552,0.65454
151.87445,0.64489
151.63338,0.63311
151.39231,0.61714
151.15124,0.59992
150.91017,0.58577
150.66910,0.57575
150.42803,0.56783
150.18696,0.55967
149.94589,0.55043
149.70482,0.54132
149.46375,0.53412
149.22267,0.52866
148.98160,0.52282
148.74053,0.51585
148.49946,0.50953
148.25839,0.50475
148.01732,0.49985
147.77625,0.49389
147.53518,0.48886
147.29411,0.48668
147.05304,0.48609
146.81197,0.48525
146.57090,0.48506
146.32983,0.48737
146.08876,0.49145
145.84769,0.49502
145.60662,0.49784
145.36555,0.50166
145.12448,0.50723
144.88340,0.51312
144.64233,0.51783
144.40126,0.52135
144.16019,0.52387
143.91912,0.52451
143.67805,0.52257
143.43698,0.51903
143.19591,0.51560
142.95484,0.51239
142.71377,0.50765
142.47270,0.50019
142.23163,0.49126
141.99056,0.48317
141.74949,0.47695
141.50842,0.47181
141.26735,0.46659
141.02628,0.46102
140.78521,0.45588
140.54413,0.45206
140.30306,0.44995
140.06199,0.44962
139.82092,0.45090
139.57985,0.45316
139.33878,0.45535
139.09771,0.45700
138.85664,0.45898
138.61557,0.46261
138.37450,0.46808
138.13343,0.47415
137.89236,0.47984
137.65129,0.48617
137.41022,0.49514
137.16915,0.50750
136.92808,0.52249
136.68701,0.53916
136.44594,0.55725
136.20486,0.57724
135.96379,0.59940
135.72272,0.62205
135.48165,0.64143
135.24058,0.65539
134.99951,0.66713
134.75844,0.68248
134.51737,0.70356
134.27630,0.72793
134.03523,0.75341
133.79416,0.78013
133.55309,0.80752
133.31202,0.83222
133.07095,0.85001
132.82988,0.86026
132.58881,0.86780
132.34774,0.87869
132.10667,0.89476
131.86559,0.91302
131.62452,0.92839
131.38345,0.93516
131.14238,0.92963
130.90131,0.91447
130.66024,0.89733
130.41917,0.88438
130.17810,0.87622
129.93703,0.86801
129.69596,0.85361
129.45489,0.83154
129.21382,0.80610
128.97275,0.78195
128.73168,0.75989
128.49061,0.73813
128.24954,0.71591
128.00847,0.69466
127.76740,0.67536
127.52632,0.65575
127.28525,0.63248
127.04418,0.60636
126.80311,0.58234
126.56204,0.56358
126.32097,0.54857
126.07990,0.53466
125.83883,0.52109
125.59776,0.50747
125.35669,0.49247
125.11562,0.47560
124.87455,0.45869
124.63348,0.44440
124.39241,0.43396
124.15134,0.42651
123.91027,0.42019
123.66920,0.41388
123.42812,0.40838
123.18705,0.40505
122.94598,0.40343
122.70491,0.40123
122.46384,0.39721
122.22277,0.39298
121.98170,0.39107
121.74063,0.39177
121.49956,0.39345
121.25849,0.39561
121.01742,0.39955
120.77635,0.40548
120.53528,0.41153
120.29421,0.41606
120.05314,0.41921
119.81207,0.42353
119.57100,0.43245
119.32993,0.44673
119.08885,0.46362
118.84778,0.48107
118.60671,0.50060
118.36564,0.52396
118.12457,0.54924
117.88350,0.57151
117.64243,0.58718
117.40136,0.59828
117.16029,0.61066
116.91922,0.62620
116.67815,0.63990
116.43708,0.64645
116.19601,0.64646
115.95494,0.64425
115.71387,0.64140
115.47280,0.63514
115.23173,0.62298
114.99066,0.60714
114.74958,0.59338
114.50851,0.58539
114.26744,0.58149
114.02637,0.57672
113.78530,0.56830
113.54423,0.55825
113.30316,0.55023
113.06209,0.54555
112.82102,0.54336
112.57995,0.54312
112.33888,0.54492
112.09781,0.54785
111.85674,0.55059
111.61567,0.55406
111.37460,0.56083
111.13353,0.57112
110.89246,0.58094
110.65139,0.58614
110.41031,0.58648
110.16924,0.58356
109.92817,0.57769
109.68710,0.56844
109.44603,0.55648
109.20496,0.54273
108.96389,0.52694
108.72282,0.50897
108.48175,0.49065
108.24068,0.47480
107.99961,0.46207
107.75854,0.45083
107.51747,0.44042
107.27640,0.43134
107.03533,0.42311
106.79426,0.41460
106.55319,0.40510
106.31212,0.39346
106.07104,0.37874
105.82997,0.36274
105.58890,0.34927
105.34783,0.34009
105.10676,0.33391
104.86569,0.32919
104.62462,0.32550
104.38355,0.32202
104.14248,0.31692
103.90141,0.30896
103.66034,0.29858
103.41927,0.28720
103.17820,0.27631
102.93713,0.26735
102.69606,0.26123
102.45499,0.25732
102.21392,0.25391
101.97285,0.24979
101.73177,0.24488
101.49070,0.23962
101.24963,0.23476
101.00856,0.23156
100.76749,0.23106
100.52642,0.23268
100.28535,0.23429
100.04428,0.23420
99.80321,0.23261
99.56214,0.23015
99.32107,0.22653
99.08000,0.22152
98.83893,0.21638
98.59786,0.21289
98.35679,0.21177
98.11572,0.21245
97.87465,0.21382
97.63358,0.21511
97.39250,0.21655
97.15143,0.21857
96.91036,0.22080
96.66929,0.22248
96.42822,0.22379
96.18715,0.22585
95.94608,0.22962
95.70501,0.23507
95.46394,0.24100
95.22287,0.24536
94.98180,0.24631
94.74073,0.24443
94.49966,0.24306
94.25859,0.24523
94.01752,0.25069
93.77645,0.25673
93.53538,0.26097
93.29431,0.26268
93.05323,0.26226
92.81216,0.26039
92.57109,0.25813
92.33002,0.25742
92.08895,0.25971
91.84788,0.26371
91.60681,0.26665
91.36574,0.26873
91.12467,0.27372
90.88360,0.28448
90.64253,0.30086
90.40146,0.32204
90.16039,0.34807
89.91932,0.37854
89.67825,0.41186
89.43718,0.44628
89.19611,0.48036
88.95504,0.51271
88.71396,0.54114
88.47289,0.56195
88.23182,0.57136
87.99075,0.56764
87.74968,0.55219
87.50861,0.52892
87.26754,0.50270
87.02647,0.47691
86.78540,0.45150
86.54433,0.42457
86.30326,0.39612
86.06219,0.36862
85.82112,0.34425
85.58005,0.32341
85.33898,0.30563
85.09791,0.29028
84.85684,0.27597
84.61577,0.26135
84.37469,0.24694
84.13362,0.23462
83.89255,0.22463
83.65148,0.21535
83.41041,0.20603
83.16934,0.19723
82.92827,0.18883
82.68720,0.18054
82.44613,0.17357
82.20506,0.16937
81.96399,0.16745
81.72292,0.16609
81.48185,0.16445
81.24078,0.16269
80.99971,0.16059
80.75864,0.15762
80.51757,0.15412
80.27650,0.15080
80.03542,0.14745
79.79435,0.14364
79.55328,0.14002
79.31221,0.13729
79.07114,0.13532
78.83007,0.13438
78.58900,0.13536
78.34793,0.13745
78.10686,0.13765
77.86579,0.13411
77.62472,0.12817
77.38365,0.12261
77.14258,0.11898
76.90151,0.11707
76.66044,0.11611
76.41937,0.11582
76.17830,0.11617
75.93723,0.11684
75.69615,0.11754
75.45508,0.11820
75.21401,0.11832
74.97294,0.11701
74.73187,0.11471
74.49080,0.11366
74.24973,0.11551
74.00866,0.11850
73.76759,0.11901
73.52652,0.11618
73.28545,0.11296
73.04438,0.11199
72.80331,0.11286
72.56224,0.11396
72.32117,0.11483
72.08010,0.11587
71.83903,0.11689
71.59796,0.11719
71.35688,0.11652
71.11581,0.11530
70.87474,0.11437
70.63367,0.11490
70.39260,0.11750
70.15153,0.12150
69.91046,0.12666
69.66939,0.13476
69.42832,0.14655
69.18725,0.15812
68.94618,0.16357
68.70511,0.16104
68.46404,0.15358
68.22297,0.14486
67.98190,0.13680
67.74083,0.12967
67.49976,0.12276
67.25869,0.11597
67.01761,0.11050
66.77654,0.10694
66.53547,0.10387
66.29440,0.09993
66.05333,0.09579
65.81226,0.09307
65.57119,0.09236
65.33012,0.09334
65.08905,0.09574
64.84798,0.09955
64.60691,0.10490
64.36584,0.11199
64.12477,0.12027
63.88370,0.12760
63.64263,0.13115
63.40156,0.13001
63.16049,0.12595
62.91942,0.12151
62.67834,0.11814
62.43727,0.11608
62.19620,0.11454
61.95513,0.11167
61.71406,0.10606
61.47299,0.09873
61.23192,0.09227
60.99085,0.08795
60.74978,0.08505
60.50871,0.08251
60.26764,0.08028
60.02657,0.07933
59.78550,0.08070
59.54443,0.08386
59.30336,0.08611
59.06229,0.08441
58.82122,0.07874
58.58015,0.07266
58.33907,0.06947
58.09800,0.06884
57.85693,0.06879
57.61586,0.06906
57.37479,0.07051
57.13372,0.07263
56.89265,0.07394
56.65158,0.07423
56.41051,0.07416
56.16944,0.07311
55.92837,0.06972
55.68730,0.06458
55.44623,0.05998
55.20516,0.05716
54.96409,0.05562
54.72302,0.05542
54.48195,0.05761
54.24088,0.06163
53.99980,0.06500
53.75873,0.06664
53.51766,0.06853
53.27659,0.07301
53.03552,0.07884
52.79445,0.08222
52.55338,0.08257
52.31231,0.08317
52.07124,0.08514
51.83017,0.08574
51.58910,0.08404
51.34803,0.08201
51.10696,0.08063
50.86589,0.07971
50.62482,0.07955
50.38375,0.08059
50.14268,0.08262
49.90161,0.08467
49.66053,0.08420
49.41946,0.07886
49.17839,0.07051
48.93732,0.06445
48.69625,0.06415
48.45518,0.06846
48.21411,0.07400
47.97304,0.07767
47.73197,0.07693
47.49090,0.07101
47.24983,0.06170
47.00876,0.05136
46.76769,0.04172
46.52662,0.03439
46.28555,0.03017
46.04448,0.02749
45.80341,0.02450
45.56234,0.02234
45.32126,0.02285
45.08019,0.02392
44.83912,0.02225
44.59805,0.01905
44.35698,0.01688
44.11591,0.01361
43.87484,0.00811
43.63377,0.00746
43.39270,0.01787
43.15163,0.03142
42.91056,0.03534
42.66949,0.03038
42.42842,0.02756
42.18735,0.03260
41.94628,0.04271
41.70521,0.05283
41.46414,0.05856
41.22307,0.05797
40.98199,0.05414
40.74092,0.05317
40.49985,0.05800
40.25878,0.06550
40.01771,0.06968
39.77664,0.06805
39.53557,0.06485
39.29450,0.06644
39.05343,0.07373
38.81236,0.08306
38.57129,0.09385
38.33022,0.10742
38.08915,0.12029
37.84808,0.12530
37.60701,0.11830
37.36594,0.10255
37.12487,0.08769
36.88380,0.08105
36.64272,0.08046
36.40165,0.07970
36.16058,0.07636
35.91951,0.07234
35.67844,0.07110
35.43737,0.07491
35.19630,0.08228
34.95523,0.08816
34.71416,0.08761
34.47309,0.07907
34.23202,0.06594
33.99095,0.05755
33.74988,0.06337
33.50881,0.07917
33.26774,0.09050
33.02667,0.09611
32.78560,0.11009
32.54453,0.13609
32.30345,0.15379
32.06238,0.14239
31.82131,0.11154
31.58024,0.09469
31.33917,0.11421
31.09810,0.15197
30.85703,0.17152
30.61596,0.16878
30.37489,0.16765
30.13382,0.17318
29.89275,0.17190
29.65168,0.16838
29.41061,0.18697
29.16954,0.23521
28.92847,0.28788
28.68740,0.31356
28.44633,0.30794
28.20526,0.28928
27.96418,0.27118
27.72311,0.25767
27.48204,0.24767
27.24097,0.23584
26.99990,0.22496
26.75883,0.23600
26.51776,0.26332
26.27669,0.26813
26.03562,0.24738
25.79455,0.22881
25.55348,0.22922
25.31241,0.24325
25.07134,0.24788
24.83027,0.22070
24.58920,0.17664
24.34813,0.16185
24.10706,0.19793
23.86599,0.25901
23.62491,0.29547
23.38384,0.30230
23.14277,0.33576
22.90170,0.41766
22.66063,0.48718
22.41956,0.47027
22.17849,0.38672
21.93742,0.33164
21.69635,0.35925
21.45528,0.46436
21.21421,0.60706
20.97314,0.71925
20.73207,0.74826
20.49100,0.68672
20.24993,0.57866
20.00886,0.49727
19.76779,0.45928
19.52672,0.46087
19.28564,0.49695
19.04457,0.55833
18.80350,0.63174
18.56243,0.69148
18.32136,0.69625
18.08029,0.64927
17.83922,0.57973
17.59815,0.52721
17.35708,0.54910
17.11601,0.65615
16.87494,0.85497
16.63387,1.04290
16.39280,0.96264
16.15173,0.96840
15.91066,1.11002
15.66959,1.17681
15.42852,1.18768
15.18745,1.09797
14.94637,0.97010
14.70530,0.80576
14.46423,0.66578
14.22316,0.61628
13.98209,0.66313
13.74102,0.74236
13.49995,0.83024
13.25888,0.97656
13.01781,0.93385
12.77674,0.97611
12.53567,1.12324
12.29460,0.89451
12.05353,0.80063
11.81246,0.87123
11.57139,0.86433
11.33032,0.71907
11.08925,0.61962
10.84818,0.56346
10.60710,0.52150
10.36603,0.53735
10.12496,0.60713
9.88389,0.64473
9.64282,0.67675
9.40175,0.71472
9.16068,0.68827
8.91961,0.65298
8.67854,0.75577
8.43747,0.77024
8.19640,0.85135
7.95533,0.90389
7.71426,0.57408
7.47319,0.40342
7.23212,0.41263
6.99105,0.42517
6.74998,0.34995
6.50891,0.32965
6.26783,0.42327
6.02676,0.54670
5.78569,0.57807
5.54462,0.66732
5.30355,0.92398
5.06248,0.78341
4.82141,0.59802
4.58034,0.56561
4.33927,0.68689
4.09820,0.88906
3.85713,0.81792
3.61606,0.64571
3.37499,0.58134
3.13392,0.61810
2.89285,0.64601
2.65178,0.54005
2.41071,0.42306
2.16964,0.39017
1.92856,0.40216
1.68749,0.42441
1.44642,0.49870
1.20535,0.71678
0.96428,0.82199
0.72321,0.80666
0.48214,0.76804
0.24107,0.83423
-0.00000,0.32975
