399.69498,2.26484
399.45391,2.34978
399.21284,2.42972
398.97177,2.41780
398.73070,2.30492
398.48963,2.20268
398.24856,2.14511
398.00749,2.12722
397.76642,2.16187
397.52535,2.23180
397.28428,2.28918
397.04321,2.30475
396.80214,2.26633
396.56107,2.20201
396.32000,2.17884
396.07892,2.21350
395.83785,2.28123
395.59678,2.42752
395.35571,2.72718
395.11464,2.81984
394.87357,2.67681
394.63250,2.63833
394.39143,2.69683
394.15036,2.92600
393.90929,2.72757
393.66822,2.45657
393.42715,2.42108
393.18608,2.48543
392.94501,2.75335
392.70394,3.31930
392.46287,2.58277
392.22180,2.28813
391.98073,2.20738
391.73965,2.13129
391.49858,2.13162
391.25751,2.23433
391.01644,2.33661
390.77537,2.29056
390.53430,2.22298
390.29323,2.28853
390.05216,2.43524
389.81109,2.72761
389.57002,3.44990
389.32895,2.97923
389.08788,3.07135
388.84681,2.89115
388.60574,2.62608
388.36467,2.71657
388.12360,2.50876
387.88253,2.31857
387.64146,2.39280
387.40038,2.46291
387.15931,2.28108
386.91824,2.18306
386.67717,2.16776
386.43610,2.17979
386.19503,2.20701
385.95396,2.25415
385.71289,2.39327
385.47182,2.61828
385.23075,2.61284
384.98968,2.40780
384.74861,2.21091
384.50754,2.07075
384.26647,1.97572
384.02540,1.94738
383.78433,2.05784
383.54326,2.17920
383.30219,2.00571
383.06111,1.88263
382.82004,1.87632
382.57897,1.95026
382.33790,2.09279
382.09683,2.24197
381.85576,2.31918
381.61469,2.31252
381.37362,2.21236
381.13255,2.15723
380.89148,2.20159
380.65041,2.16449
380.40934,1.97634
380.16827,1.81945
379.92720,1.75496
379.68613,1.77229
379.44506,1.79889
379.20399,1.80269
378.96292,1.86576
378.72184,1.98390
378.48077,2.00775
378.23970,1.98813
377.99863,2.08209
377.75756,2.46894
377.51649,3.13709
377.27542,2.44134
377.03435,1.94143
376.79328,1.79008
376.55221,1.77562
376.31114,1.81426
376.07007,1.87455
375.82900,1.96741
375.58793,2.05446
375.34686,2.05028
375.10579,1.99061
374.86472,1.98931
374.62365,2.21183
374.38257,2.73942
374.14150,2.56709
373.90043,2.30156
373.65936,2.14168
373.41829,2.02107
373.17722,1.95612
372.93615,2.06171
372.69508,2.45138
372.45401,2.52471
372.21294,2.48609
371.97187,2.63943
371.73080,2.21776
371.48973,2.04827
371.24866,2.03483
371.00759,1.92623
370.76652,1.81960
370.52545,1.84547
370.28437,2.02941
370.04330,2.29488
369.80223,2.24767
369.56116,1.96128
369.32009,1.81445
369.07902,1.83601
368.83795,1.96831
368.59688,2.08435
368.35581,2.09355
368.11474,2.01588
367.87367,1.99446
367.63260,2.06830
367.39153,2.04900
367.15046,2.06903
366.90939,2.41839
366.66832,2.92645
366.42725,2.40597
366.18618,2.12735
365.94510,2.05711
365.70403,2.06148
365.46296,2.05180
365.22189,2.03175
364.98082,2.11092
364.73975,2.27106
364.49868,2.27171
364.25761,2.21508
364.01654,2.23146
363.77547,2.27388
363.53440,2.34317
363.29333,2.34671
363.05226,2.17013
362.81119,1.99280
362.57012,1.89719
362.32905,1.86316
362.08798,1.85069
361.84691,1.85817
361.60583,1.92682
361.36476,2.10210
361.12369,2.28389
360.88262,2.24444
360.64155,2.13068
360.40048,1.95793
360.15941,1.84241
359.91834,1.81991
359.67727,1.84543
359.43620,1.87352
359.19513,1.93210
358.95406,2.06442
358.71299,2.24063
358.47192,2.34953
358.23085,2.28837
357.98978,2.24305
357.74871,2.28776
357.50764,2.48523
357.26656,2.60539
357.02549,2.32354
356.78442,2.22299
356.54335,2.17411
356.30228,2.05452
356.06121,1.91734
355.82014,1.80801
355.57907,1.73039
355.33800,1.70038
355.09693,1.74995
354.85586,1.88237
354.61479,2.01046
354.37372,2.01155
354.13265,1.95120
353.89158,1.95657
353.65051,2.03319
353.40944,2.05760
353.16837,1.94695
352.92729,1.84348
352.68622,1.85937
352.44515,1.96623
352.20408,1.91817
351.96301,1.73331
351.72194,1.63573
351.48087,1.62519
351.23980,1.64323
350.99873,1.66704
350.75766,1.71887
350.51659,1.83854
350.27552,2.03602
350.03445,2.24383
349.79338,2.52086
349.55231,2.94801
349.31124,2.63997
349.07017,2.64840
348.82910,2.36215
348.58802,2.18984
348.34695,2.22709
348.10588,2.19042
347.86481,1.98530
347.62374,1.83745
347.38267,1.82437
347.14160,1.90029
346.90053,1.92096
346.65946,1.87058
346.41839,1.83680
346.17732,1.89445
345.93625,1.93143
345.69518,1.85630
345.45411,1.84184
345.21304,1.93069
344.97197,2.04566
344.73090,2.02696
344.48983,1.96028
344.24875,1.97699
344.00768,1.98627
343.76661,1.87319
343.52554,1.73194
343.28447,1.67195
343.04340,1.69202
342.80233,1.70973
342.56126,1.68381
342.32019,1.69690
342.07912,1.79611
341.83805,1.93500
341.59698,2.01827
341.35591,2.10872
341.11484,2.28877
340.87377,2.60310
340.63270,2.84800
340.39163,2.28983
340.15056,2.05899
339.90948,2.02264
339.66841,1.96769
339.42734,1.91051
339.18627,1.90191
338.94520,1.94077
338.70413,2.00976
338.46306,2.14424
338.22199,2.25617
337.98092,2.13042
337.73985,2.02743
337.49878,2.04890
337.25771,2.14280
337.01664,2.20259
336.77557,2.21060
336.53450,2.14507
336.29343,2.08012
336.05236,2.28077
335.81129,2.88545
335.57021,2.41997
335.32914,2.11333
335.08807,1.95643
334.84700,1.88478
334.60593,2.02953
334.36486,2.53166
334.12379,3.05026
333.88272,2.77743
333.64165,2.51261
333.40058,2.73136
333.15951,2.72707
332.91844,2.51931
332.67737,2.25326
332.43630,2.25635
332.19523,2.39889
331.95416,2.38669
331.71309,2.31334
331.47202,2.20644
331.23094,1.98374
330.98987,1.80993
330.74880,1.73043
330.50773,1.70061
330.26666,1.68957
330.02559,1.67175
329.78452,1.60966
329.54345,1.53873
329.30238,1.52964
329.06131,1.60800
328.82024,1.76051
328.57917,1.93990
328.33810,2.00589
328.09703,1.83650
327.85596,1.65597
327.61489,1.56703
327.37382,1.54173
327.13275,1.53955
326.89167,1.53757
326.65060,1.56419
326.40953,1.79657
326.16846,2.33408
325.92739,2.03138
325.68632,1.75207
325.44525,1.60257
325.20418,1.52867
324.96311,1.55683
324.72204,1.63357
324.48097,1.71581
324.23990,1.81186
323.99883,1.85828
323.75776,1.92276
323.51669,2.05153
323.27562,2.07858
323.03455,1.91248
322.79348,1.78842
322.55240,1.78561
322.31133,1.81304
322.07026,1.77770
321.82919,1.68394
321.58812,1.59030
321.34705,1.55505
321.10598,1.62323
320.86491,1.76698
320.62384,1.93990
320.38277,2.15908
320.14170,2.00893
319.90063,1.97204
319.65956,2.24841
319.41849,2.09219
319.17742,1.95735
318.93635,2.08068
318.69528,2.20783
318.45421,2.13833
318.21313,2.02802
317.97206,2.03831
317.73099,2.36113
317.48992,2.88070
317.24885,2.37886
317.00778,2.13255
316.76671,2.08584
316.52564,2.28427
316.28457,2.35040
316.04350,2.08008
315.80243,2.10566
315.56136,2.06120
315.32029,1.82950
315.07922,1.79034
314.83815,2.07766
314.59708,2.64448
314.35601,2.44262
314.11494,2.50990
313.87386,2.21790
313.63279,2.02628
313.39172,2.05312
313.15065,1.84286
312.90958,1.67990
312.66851,1.71555
312.42744,1.81927
312.18637,1.79268
311.94530,1.76315
311.70423,1.90509
311.46316,2.23144
311.22209,2.15539
310.98102,1.83890
310.73995,1.70212
310.49888,1.68970
310.25781,1.70653
310.01674,1.69931
309.77567,1.69500
309.53459,1.76583
309.29352,1.95162
309.05245,2.13204
308.81138,2.04306
308.57031,1.84423
308.32924,1.74713
308.08817,1.74808
307.84710,1.74109
307.60603,1.65480
307.36496,1.57304
307.12389,1.57200
306.88282,1.66721
306.64175,1.81471
306.40068,1.90698
306.15961,1.94708
305.91854,2.06529
305.67747,2.35898
305.43640,2.50307
305.19532,2.12869
304.95425,2.00837
304.71318,2.20519
304.47211,2.40510
304.23104,2.07438
303.98997,1.70161
303.74890,1.51248
303.50783,1.45200
303.26676,1.46383
303.02569,1.52600
302.78462,1.63204
302.54355,1.73381
302.30248,1.74155
302.06141,1.65868
301.82034,1.59764
301.57927,1.62475
301.33820,1.74419
301.09713,1.90146
300.85605,2.13276
300.61498,2.59783
300.37391,2.31090
300.13284,1.97792
299.89177,1.84608
299.65070,1.76397
299.40963,1.73111
299.16856,1.78675
298.92749,1.95308
298.68642,2.09552
298.44535,1.98277
298.20428,1.80341
297.96321,1.76890
297.72214,1.87965
297.48107,1.99615
297.24000,1.96265
296.99893,1.86363
296.75786,1.82852
296.51678,1.91097
296.27571,2.09271
296.03464,2.16900
295.79357,1.94464
295.55250,1.73661
295.31143,1.62963
295.07036,1.57375
294.82929,1.53590
294.58822,1.51351
294.34715,1.51527
294.10608,1.53816
293.86501,1.57049
293.62394,1.61624
293.38287,1.70129
293.14180,1.85140
292.90073,2.03742
292.65966,2.12114
292.41859,2.03095
292.17751,1.86812
291.93644,1.72779
291.69537,1.64047
291.45430,1.60720
291.21323,1.62500
290.97216,1.67379
290.73109,1.69701
290.49002,1.66440
290.24895,1.61839
290.00788,1.61719
289.76681,1.66610
289.52574,1.70850
289.28467,1.70128
289.04360,1.66359
288.80253,1.61858
288.56146,1.57773
288.32039,1.55434
288.07932,1.55104
287.83824,1.55995
287.59717,1.58169
287.35610,1.62122
287.11503,1.65755
286.87396,1.65574
286.63289,1.62509
286.39182,1.59673
286.15075,1.57738
285.90968,1.56456
285.66861,1.55565
285.42754,1.54374
285.18647,1.53122
284.94540,1.53427
284.70433,1.55910
284.46326,1.59173
284.22219,1.61415
283.98112,1.61785
283.74005,1.60554
283.49897,1.59323
283.25790,1.60560
283.01683,1.65456
282.77576,1.72241
282.53469,1.76007
282.29362,1.72627
282.05255,1.65098
281.81148,1.59867
281.57041,1.59304
281.32934,1.60471
281.08827,1.59262
280.84720,1.56575
280.60613,1.56571
280.36506,1.61045
280.12399,1.69031
279.88292,1.75475
279.64185,1.69806
279.40078,1.55791
279.15970,1.46205
278.91863,1.43211
278.67756,1.44168
278.43649,1.48041
278.19542,1.53992
277.95435,1.58483
277.71328,1.59218
277.47221,1.58009
277.23114,1.57380
276.99007,1.58365
276.74900,1.60361
276.50793,1.60075
276.26686,1.54601
276.02579,1.47673
275.78472,1.44687
275.54365,1.47185
275.30258,1.52387
275.06151,1.55077
274.82043,1.53766
274.57936,1.51745
274.33829,1.51337
274.09722,1.52595
273.85615,1.55076
273.61508,1.58190
273.37401,1.60645
273.13294,1.60849
272.89187,1.58339
272.65080,1.55195
272.40973,1.54009
272.16866,1.54812
271.92759,1.55493
271.68652,1.54566
271.44545,1.52759
271.20438,1.52391
270.96331,1.55050
270.72224,1.59290
270.48116,1.61199
270.24009,1.59067
269.99902,1.55867
269.75795,1.54629
269.51688,1.54899
269.27581,1.55538
269.03474,1.57544
268.79367,1.61551
268.55260,1.65481
268.31153,1.67163
268.07046,1.68931
267.82939,1.74596
267.58832,1.82536
267.34725,1.86119
267.10618,1.84647
266.86511,1.83086
266.62404,1.82142
266.38297,1.79951
266.14189,1.74638
265.90082,1.65601
265.65975,1.57523
265.41868,1.54782
265.17761,1.58562
264.93654,1.68049
264.69547,1.76957
264.45440,1.76197
264.21333,1.70020
263.97226,1.68126
263.73119,1.73883
263.49012,1.83503
263.24905,1.91793
263.00798,1.98643
262.76691,1.96085
262.52584,1.85694
262.28477,1.79093
262.04370,1.76836
261.80262,1.78598
261.56155,1.87101
261.32048,2.00679
261.07941,2.07225
260.83834,2.02080
260.59727,1.95348
260.35620,1.94321
260.11513,2.04017
259.87406,2.28984
259.63299,2.76055
259.39192,3.16147
259.15085,2.70265
258.90978,2.28834
258.66871,2.05647
258.42764,1.91532
258.18657,1.84631
257.94550,1.85076
257.70443,1.93105
257.46335,2.08032
257.22228,2.23552
256.98121,2.30608
256.74014,2.25749
256.49907,2.08725
256.25800,1.94577
256.01693,1.83079
255.77586,1.74025
255.53479,1.71435
255.29372,1.76956
255.05265,1.89236
254.81158,2.01451
254.57051,2.05460
254.32944,2.08670
254.08837,2.11900
253.84730,2.01455
253.60623,1.86438
253.36516,1.76901
253.12408,1.73212
252.88301,1.73843
252.64194,1.76671
252.40087,1.80771
252.15980,1.87443
251.91873,1.96776
251.67766,2.07097
251.43659,2.16463
251.19552,2.20281
250.95445,2.20109
250.71338,2.22673
250.47231,2.29346
250.23124,2.35786
249.99017,2.60766
249.74910,3.23809
249.50803,2.56577
249.26696,2.24189
249.02589,2.20040
248.78481,2.18176
248.54374,2.05314
248.30267,1.89705
248.06160,1.84235
247.82053,1.95112
247.57946,2.16247
247.33839,2.11315
247.09732,1.94509
246.85625,1.86453
246.61518,1.84443
246.37411,1.85690
246.13304,1.91012
245.89197,2.24681
245.65090,3.07613
245.40983,2.39195
245.16876,2.18446
244.92769,2.19700
244.68661,2.14980
244.44554,2.13685
244.20447,2.16187
243.96340,2.03466
243.72233,1.90145
243.48126,1.89975
243.24019,2.03794
242.99912,2.22440
242.75805,2.20037
242.51698,2.05255
242.27591,1.95190
242.03484,1.94696
241.79377,1.97991
241.55270,1.84884
241.31163,1.65267
241.07056,1.53084
240.82949,1.47935
240.58842,1.46868
240.34734,1.47294
240.10627,1.46732
239.86520,1.44537
239.62413,1.42314
239.38306,1.41267
239.14199,1.41604
238.90092,1.43469
238.65985,1.46186
238.41878,1.46991
238.17771,1.43956
237.93664,1.39428
237.69557,1.36403
237.45450,1.35556
237.21343,1.36020
236.97236,1.36359
236.73129,1.34558
236.49022,1.29765
236.24915,1.24325
236.00807,1.21089
235.76700,1.20804
235.52593,1.22623
235.28486,1.25256
235.04379,1.27888
234.80272,1.30211
234.56165,1.30359
234.32058,1.25576
234.07951,1.17808
233.83844,1.12194
233.59737,1.11974
233.35630,1.17626
233.11523,1.27679
232.87416,1.36813
232.63309,1.33653
232.39202,1.20036
232.15095,1.08737
231.90988,1.04403
231.66880,1.07749
231.42773,1.19385
231.18666,1.36373
230.94559,1.45981
230.70452,1.43068
230.46345,1.38483
230.22238,1.36707
229.98131,1.36976
229.74024,1.36754
229.49917,1.34316
229.25810,1.30806
229.01703,1.28163
228.77596,1.26737
228.53489,1.25702
228.29382,1.24541
228.05275,1.22614
227.81168,1.18561
227.57061,1.13158
227.32953,1.09728
227.08846,1.10514
226.84739,1.14477
226.60632,1.17140
226.36525,1.15176
226.12418,1.12126
225.88311,1.12839
225.64204,1.16749
225.40097,1.17865
225.15990,1.13584
224.91883,1.09653
224.67776,1.10551
224.43669,1.15079
224.19562,1.18138
223.95455,1.17559
223.71348,1.17112
223.47241,1.19412
223.23134,1.21850
222.99026,1.20348
222.74919,1.16784
222.50812,1.14938
222.26705,1.15356
222.02598,1.15950
221.78491,1.15821
221.54384,1.16667
221.30277,1.18434
221.06170,1.19205
220.82063,1.18869
220.57956,1.19073
220.33849,1.19816
220.09742,1.20141
219.85635,1.21363
219.61528,1.25101
219.37421,1.28035
219.13314,1.25739
218.89207,1.22275
218.65099,1.24135
218.40992,1.32744
218.16885,1.40434
217.92778,1.37651
217.68671,1.31029
217.44564,1.28339
217.20457,1.30592
216.96350,1.34066
216.72243,1.33337
216.48136,1.29783
216.24029,1.28688
215.99922,1.31493
215.75815,1.34982
215.51708,1.33781
215.27601,1.28987
215.03494,1.26968
214.79387,1.30346
214.55280,1.36791
214.31172,1.41208
214.07065,1.41557
213.82958,1.40246
213.58851,1.39486
213.34744,1.42918
213.10637,1.53038
212.86530,1.59427
212.62423,1.48557
212.38316,1.36549
212.14209,1.32140
211.90102,1.33639
211.65995,1.38317
211.41888,1.42689
211.17781,1.45863
210.93674,1.46219
210.69567,1.42623
210.45460,1.41024
210.21353,1.46193
209.97245,1.56787
209.73138,1.67421
209.49031,1.73937
209.24924,1.77764
209.00817,1.79914
208.76710,1.76597
208.52603,1.69472
208.28496,1.63076
208.04389,1.59456
207.80282,1.56752
207.56175,1.49845
207.32068,1.39870
207.07961,1.32394
206.83854,1.28938
206.59747,1.27370
206.35640,1.25228
206.11533,1.21939
205.87426,1.18205
205.63318,1.14379
205.39211,1.11169
205.15104,1.09990
204.90997,1.10837
204.66890,1.11944
204.42783,1.12631
204.18676,1.14127
203.94569,1.17649
203.70462,1.23449
203.46355,1.31833
203.22248,1.43436
202.98141,1.55502
202.74034,1.59802
202.49927,1.55524
202.25820,1.48074
202.01713,1.40128
201.77606,1.33481
201.53499,1.28635
201.29391,1.24295
201.05284,1.18730
200.81177,1.12720
200.57070,1.08572
200.32963,1.07270
200.08856,1.07826
199.84749,1.07902
199.60642,1.05927
199.36535,1.03189
199.12428,1.02219
198.88321,1.04369
198.64214,1.09497
198.40107,1.16414
198.16000,1.22716
197.91893,1.26114
197.67786,1.25101
197.43679,1.19501
197.19572,1.12204
196.95464,1.05745
196.71357,1.00699
196.47250,0.96740
196.23143,0.93695
195.99036,0.91986
195.74929,0.92630
195.50822,0.96742
195.26715,1.04860
195.02608,1.16106
194.78501,1.26606
194.54394,1.29886
194.30287,1.23869
194.06180,1.13276
193.82073,1.02472
193.57966,0.93787
193.33859,0.88878
193.09752,0.88322
192.85645,0.90810
192.61537,0.93811
192.37430,0.95661
192.13323,0.96336
191.89216,0.96267
191.65109,0.96102
191.41002,0.96541
191.16895,0.96682
190.92788,0.94696
190.68681,0.91651
190.44574,0.90454
190.20467,0.92081
189.96360,0.94940
189.72253,0.96635
189.48146,0.96796
189.24039,0.97452
188.99932,0.99395
188.75825,1.00046
188.51718,0.97976
188.27610,0.95075
188.03503,0.91840
187.79396,0.88154
187.55289,0.85945
187.31182,0.87951
187.07075,0.94479
186.82968,0.97873
186.58861,0.89511
186.34754,0.78697
186.10647,0.73637
185.86540,0.75242
185.62433,0.82768
185.38326,0.95257
185.14219,1.07329
184.90112,1.06829
184.66005,0.95464
184.41898,0.85247
184.17791,0.80375
183.93683,0.80642
183.69576,0.84569
183.45469,0.89145
183.21362,0.91469
182.97255,0.92192
182.73148,0.94042
182.49041,0.98529
182.24934,1.03532
182.00827,1.02695
181.76720,0.94901
181.52613,0.87701
181.28506,0.85637
181.04399,0.87431
180.80292,0.88563
180.56185,0.87517
180.32078,0.87997
180.07971,0.91795
179.83864,0.95825
179.59756,0.97928
179.35649,1.01215
179.11542,1.07981
178.87435,1.14960
178.63328,1.14665
178.39221,1.07878
178.15114,1.03695
177.91007,1.05512
177.66900,1.07259
177.42793,1.02284
177.18686,0.96905
176.94579,0.97080
176.70472,1.01547
176.46365,1.05868
176.22258,1.07897
175.98151,1.08709
175.74044,1.08975
175.49937,1.09975
175.25829,1.13493
175.01722,1.16878
174.77615,1.15007
174.53508,1.11685
174.29401,1.13376
174.05294,1.20688
173.81187,1.26970
173.57080,1.21198
173.32973,1.11681
173.08866,1.09571
172.84759,1.15609
172.60652,1.25609
172.36545,1.31735
172.12438,1.30345
171.88331,1.27002
171.64224,1.28129
171.40117,1.35903
171.16010,1.43598
170.91902,1.42919
170.67795,1.38943
170.43688,1.37844
170.19581,1.37992
169.95474,1.33520
169.71367,1.26215
169.47260,1.20049
169.23153,1.14889
168.99046,1.11992
168.74939,1.13129
168.50832,1.16387
168.26725,1.16512
168.02618,1.13254
167.78511,1.11678
167.54404,1.13707
167.30297,1.17627
167.06190,1.20565
166.82083,1.21335
166.57975,1.20634
166.33868,1.19541
166.09761,1.19280
165.85654,1.20471
165.61547,1.22226
165.37440,1.23518
165.13333,1.23702
164.89226,1.22104
164.65119,1.19965
164.41012,1.19358
164.16905,1.20062
163.92798,1.20507
163.68691,1.20630
163.44584,1.21173
163.20477,1.21563
162.96370,1.20831
162.72263,1.20071
162.48156,1.21098
162.24048,1.24016
161.99941,1.27498
161.75834,1.29863
161.51727,1.29500
161.27620,1.27026
161.03513,1.25460
160.79406,1.26043
160.55299,1.27165
160.31192,1.27037
160.07085,1.25935
159.82978,1.24997
159.58871,1.24397
159.34764,1.24318
159.10657,1.25467
158.86550,1.27709
158.62443,1.29892
158.38336,1.31610
158.14229,1.33936
157.90121,1.37651
157.66014,1.41647
157.41907,1.44125
157.17800,1.44344
156.93693,1.42532
156.69586,1.39703
156.45479,1.37373
156.21372,1.36555
155.97265,1.37173
155.73158,1.37888
155.49051,1.36335
155.24944,1.30708
155.00837,1.22550
154.76730,1.14932
154.52623,1.09064
154.28516,1.04660
154.04409,1.01266
153.80302,0.98558
153.56194,0.96071
153.32087,0.93361
153.07980,0.90536
152.83873,0.88426
152.59766,0.87945
152.35659,0.89172
152.11552,0.91074
151.87445,0.92368
151.63338,0.92632
151.39231,0.92305
151.15124,0.92030
150.91017,0.92312
150.66910,0.93163
150.42803,0.93868
150.18696,0.93670
149.94589,0.92555
149.70482,0.90665
149.46375,0.87666
149.22267,0.83738
148.98160,0.80200
148.74053,0.78201
148.49946,0.77660
148.25839,0.78051
148.01732,0.79380
147.77625,0.81785
147.53518,0.84867
147.29411,0.88083
147.05304,0.91264
146.81197,0.93878
146.57090,0.94455
146.32983,0.92175
146.08876,0.88444
145.84769,0.85360
145.60662,0.83672
145.36555,0.82900
145.12448,0.82757
144.88340,0.83688
144.64233,0.85934
144.40126,0.89009
144.16019,0.92364
143.91912,0.95595
143.67805,0.97417
143.43698,0.96306
143.19591,0.93106
142.95484,0.90182
142.71377,0.88739
142.47270,0.88368
142.23163,0.88189
141.99056,0.87899
141.74949,0.87841
141.50842,0.88370
141.26735,0.88403
141.02628,0.86133
140.78521,0.81650
140.54413,0.77163
140.30306,0.75542
140.06199,0.78174
139.82092,0.83479
139.57985,0.87152
139.33878,0.85613
139.09771,0.80628
138.85664,0.77270
138.61557,0.77789
138.37450,0.80814
138.13343,0.84313
137.89236,0.86921
137.65129,0.87300
137.41022,0.86360
137.16915,0.86063
136.92808,0.86526
136.68701,0.87078
136.44594,0.87531
136.20486,0.88436
135.96379,0.90066
135.72272,0.91266
135.48165,0.90947
135.24058,0.90755
134.99951,0.93741
134.75844,0.99781
134.51737,1.03835
134.27630,1.03176
134.03523,1.01591
133.79416,1.02785
133.55309,1.06297
133.31202,1.07564
133.07095,1.07840
132.82988,1.13711
132.58881,1.24649
132.34774,1.29861
132.10667,1.22306
131.86559,1.13361
131.62452,1.13093
131.38345,1.23138
131.14238,1.39925
130.90131,1.51205
130.66024,1.42362
130.41917,1.23404
130.17810,1.10636
129.93703,1.07315
129.69596,1.08184
129.45489,1.07480
129.21382,1.08196
128.97275,1.14568
128.73168,1.23839
128.49061,1.27321
128.24954,1.20899
128.00847,1.11161
127.76740,1.05128
127.52632,1.05760
127.28525,1.11987
127.04418,1.18498
126.80311,1.20333
126.56204,1.16332
126.32097,1.08279
126.07990,0.99006
125.83883,0.90184
125.59776,0.83841
125.35669,0.80931
125.11562,0.80690
124.87455,0.82157
124.63348,0.84478
124.39241,0.85872
124.15134,0.84280
123.91027,0.79888
123.66920,0.75117
123.42812,0.71934
123.18705,0.70372
122.94598,0.69797
122.70491,0.70682
122.46384,0.73877
122.22277,0.78987
121.98170,0.83871
121.74063,0.85821
121.49956,0.84366
121.25849,0.81497
121.01742,0.78569
120.77635,0.75227
120.53528,0.71121
120.29421,0.66911
120.05314,0.63318
119.81207,0.60833
119.57100,0.60400
119.32993,0.62670
119.08885,0.66818
118.84778,0.71457
118.60671,0.76492
118.36564,0.82561
118.12457,0.89505
117.88350,0.96882
117.64243,1.04361
117.40136,1.11068
117.16029,1.16112
116.91922,1.18822
116.67815,1.18110
116.43708,1.14301
116.19601,1.10246
115.95494,1.07982
115.71387,1.06776
115.47280,1.05213
115.23173,1.03545
114.99066,1.02761
114.74958,1.02684
114.50851,1.02353
114.26744,1.01235
114.02637,0.99663
113.78530,0.98639
113.54423,0.98619
113.30316,0.98146
113.06209,0.95315
112.82102,0.91167
112.57995,0.88501
112.33888,0.88355
112.09781,0.89793
111.85674,0.91157
111.61567,0.90926
111.37460,0.89887
111.13353,0.90848
110.89246,0.94289
110.65139,0.96694
110.41031,0.95602
110.16924,0.94242
109.92817,0.95945
109.68710,1.00345
109.44603,1.05243
109.20496,1.09240
108.96389,1.12291
108.72282,1.14881
108.48175,1.18065
108.24068,1.20599
107.99961,1.17170
107.75854,1.08403
107.51747,1.00097
107.27640,0.94916
107.03533,0.93193
106.79426,0.94267
106.55319,0.95733
106.31212,0.94026
106.07104,0.88641
105.82997,0.82914
105.58890,0.79111
105.34783,0.76465
105.10676,0.73229
104.86569,0.68778
104.62462,0.63678
104.38355,0.58833
104.14248,0.54887
103.90141,0.51983
103.66034,0.50023
103.41927,0.49031
103.17820,0.49051
102.93713,0.49888
102.69606,0.51152
102.45499,0.52431
102.21392,0.53610
101.97285,0.55209
101.73177,0.57819
101.49070,0.61153
101.24963,0.64536
101.00856,0.68519
100.76749,0.75215
100.52642,0.86355
100.28535,0.98267
100.04428,0.98783
99.80321,0.86037
99.56214,0.70764
99.32107,0.58170
99.08000,0.49379
98.83893,0.44497
98.59786,0.42915
98.35679,0.43343
98.11572,0.44507
97.87465,0.46523
97.63358,0.51186
97.39250,0.60587
97.15143,0.74647
96.91036,0.85824
96.66929,0.83094
96.42822,0.72094
96.18715,0.60903
95.94608,0.51473
95.70501,0.44460
95.46394,0.40500
95.22287,0.40064
94.98180,0.43797
94.74073,0.52719
94.49966,0.73173
94.25859,1.05869
94.01752,0.89728
93.77645,0.57423
93.53538,0.41371
93.29431,0.36169
93.05323,0.39064
92.81216,0.52698
92.57109,0.78912
92.33002,0.91288
92.08895,0.67351
91.84788,0.51154
91.60681,0.46291
91.36574,0.47236
91.12467,0.52539
90.88360,0.64345
90.64253,0.80277
90.40146,0.77756
90.16039,0.62306
89.91932,0.57473
89.67825,0.68862
89.43718,0.87443
89.19611,0.78229
88.95504,0.63375
88.71396,0.62657
88.47289,0.81866
88.23182,1.23863
87.99075,1.20344
87.74968,0.93044
87.50861,0.85887
87.26754,0.91791
87.02647,0.97008
86.78540,0.92693
86.54433,0.83689
86.30326,0.73112
86.06219,0.65318
85.82112,0.66186
85.58005,0.75655
85.33898,0.78383
85.09791,0.68120
84.85684,0.62339
84.61577,0.64440
84.37469,0.68663
84.13362,0.69229
83.89255,0.65163
83.65148,0.59810
83.41041,0.57887
83.16934,0.61716
82.92827,0.67448
82.68720,0.66318
82.44613,0.59992
82.20506,0.56244
81.96399,0.56479
81.72292,0.58420
81.48185,0.59843
81.24078,0.60229
80.99971,0.59618
80.75864,0.58114
80.51757,0.56825
80.27650,0.56610
80.03542,0.56417
79.79435,0.54446
79.55328,0.51395
79.31221,0.49722
79.07114,0.50357
78.83007,0.51464
78.58900,0.50356
78.34793,0.47422
78.10686,0.45703
77.86579,0.46516
77.62472,0.48174
77.38365,0.48373
77.14258,0.46816
76.90151,0.44316
76.66044,0.41446
76.41937,0.39382
76.17830,0.39183
75.93723,0.40083
75.69615,0.40220
75.45508,0.39296
75.21401,0.38419
74.97294,0.37812
74.73187,0.37157
74.49080,0.36816
74.24973,0.36898
74.00866,0.36513
73.76759,0.35680
73.52652,0.35476
73.28545,0.35630
73.04438,0.35158
72.80331,0.34419
72.56224,0.33936
72.32117,0.33113
72.08010,0.32220
71.83903,0.33305
71.59796,0.36579
71.35688,0.37600
71.11581,0.34207
70.87474,0.31337
70.63367,0.32475
70.39260,0.36036
70.15153,0.36737
69.91046,0.33425
69.66939,0.31826
69.42832,0.36330
69.18725,0.45877
68.94618,0.50362
68.70511,0.43990
68.46404,0.37887
68.22297,0.40441
67.98190,0.53451
67.74083,0.66353
67.49976,0.58913
67.25869,0.44813
67.01761,0.36042
66.77654,0.35435
66.53547,0.46126
66.29440,0.66330
66.05333,0.69201
65.81226,0.48406
65.57119,0.32902
65.33012,0.27000
65.08905,0.28463
64.84798,0.36226
64.60691,0.53005
64.36584,0.85695
64.12477,1.04103
63.88370,0.66959
63.64263,0.44029
63.40156,0.33849
63.16049,0.29840
62.91942,0.31721
62.67834,0.38871
62.43727,0.50655
62.19620,0.72854
61.95513,1.00929
61.71406,0.69153
61.47299,0.37589
61.23192,0.21265
60.99085,0.12419
60.74978,0.07656
60.50871,0.04862
60.26764,0.02822
60.02657,0.01427
59.78550,0.00959
59.54443,0.01942
59.30336,0.04906
59.06229,0.09541
58.82122,0.15016
58.58015,0.21375
58.33907,0.29254
58.09800,0.38522
57.85693,0.48869
57.61586,0.60603
57.37479,0.72492
57.13372,0.80012
56.89265,0.77604
56.65158,0.68328
56.41051,0.62792
56.16944,0.64948
55.92837,0.72787
55.68730,0.83290
55.44623,0.93565
55.20516,0.96340
54.96409,0.86710
54.72302,0.73197
54.48195,0.62429
54.24088,0.52447
53.99980,0.40588
53.75873,0.29002
53.51766,0.20830
53.27659,0.16246
53.03552,0.12959
52.79445,0.08635
52.55338,0.02950
52.31231,-0.03063
52.07124,-0.08789
51.83017,-0.13802
51.58910,-0.17209
51.34803,-0.18448
51.10696,-0.18117
50.86589,-0.17381
50.62482,-0.16974
50.38375,-0.16941
50.14268,-0.16796
49.90161,-0.15752
49.66053,-0.13186
49.41946,-0.09196
49.17839,-0.04832
48.93732,-0.01534
48.69625,-0.00701
48.45518,-0.04455
48.21411,-0.13337
47.97304,-0.23376
47.73197,-0.30722
47.49090,-0.33843
47.24983,-0.31941
47.00876,-0.25017
46.76769,-0.15122
46.52662,-0.06550
46.28555,-0.04221
46.04448,-0.09406
45.80341,-0.16526
45.56234,-0.19316
45.32126,-0.13774
45.08019,0.01807
44.83912,0.14017
44.59805,0.05662
44.35698,-0.01127
44.11591,0.05867
43.87484,0.38997
43.63377,0.73031
43.39270,0.24793
43.15163,0.07189
42.91056,0.12802
42.66949,0.36422
42.42842,0.77555
42.18735,0.64517
41.94628,0.26913
41.70521,0.14110
41.46414,0.21311
41.22307,0.37195
40.98199,0.32777
40.74092,0.18688
40.49985,0.16137
40.25878,0.25442
40.01771,0.43355
39.77664,0.51414
39.53557,0.30692
39.29450,0.12587
39.05343,0.05537
38.81236,0.07572
38.57129,0.14803
38.33022,0.16949
38.08915,0.11552
37.84808,0.07342
37.60701,0.09206
37.36594,0.16904
37.12487,0.26765
36.88380,0.33450
36.64272,0.32614
36.40165,0.28966
36.16058,0.30870
35.91951,0.41171
35.67844,0.54991
35.43737,0.57311
35.19630,0.44022
34.95523,0.33680
34.71416,0.33132
34.47309,0.37165
34.23202,0.37084
33.99095,0.31490
33.74988,0.29803
33.50881,0.33761
33.26774,0.33458
33.02667,0.26379
32.78560,0.22764
32.54453,0.26747
32.30345,0.34062
32.06238,0.39596
31.82131,0.39275
31.58024,0.27250
31.33917,0.12484
31.09810,0.06450
30.85703,0.11199
30.61596,0.23016
30.37489,0.34187
30.13382,0.35988
29.89275,0.32822
29.65168,0.32672
29.41061,0.35854
29.16954,0.41205
28.92847,0.46037
28.68740,0.43841
28.44633,0.33119
28.20526,0.20265
27.96418,0.12235
27.72311,0.14262
27.48204,0.25627
27.24097,0.37617
26.99990,0.44179
26.75883,0.44551
26.51776,0.34085
26.27669,0.14371
26.03562,0.00287
25.79455,-0.07991
25.55348,-0.18117
25.31241,-0.19514
25.07134,-0.09376
24.83027,-0.03156
24.58920,-0.08809
24.34813,-0.31615
24.10706,-0.79999
23.86599,-1.32343
23.62491,-1.02105
23.38384,-0.54879
23.14277,-0.38069
22.90170,-0.40394
22.66063,-0.42854
22.41956,-0.37298
22.17849,-0.28290
21.93742,-0.19812
21.69635,-0.12277
21.45528,0.00305
21.21421,0.17710
20.97314,0.36480
20.73207,0.50132
20.49100,0.37771
20.24993,0.15018
20.00886,-0.04955
19.76779,-0.20747
19.52672,-0.23286
19.28564,-0.12105
19.04457,0.01796
18.80350,0.10639
18.56243,0.15541
18.32136,0.27894
18.08029,0.36185
17.83922,0.32054
17.59815,0.28121
17.35708,0.33971
17.11601,0.40237
16.87494,0.35101
16.63387,0.22072
16.39280,0.14849
16.15173,0.21093
15.91066,0.31713
15.66959,0.38714
15.42852,0.39942
15.18745,0.37032
14.94637,0.34871
14.70530,0.31891
14.46423,0.26105
14.22316,0.20926
13.98209,0.15631
13.74102,0.10766
13.49995,0.16401
13.25888,0.26494
13.01781,0.54266
12.77674,0.85698
12.53567,0.80111
12.29460,0.50768
12.05353,0.24491
11.81246,0.14720
11.57139,0.15595
11.33032,0.16994
11.08925,0.14034
10.84818,0.00787
10.60710,-0.17241
10.36603,-0.19789
10.12496,-0.33155
9.88389,-0.14787
9.64282,0.04475
9.40175,0.02030
9.16068,-0.15124
8.91961,-0.25914
8.67854,-0.28391
8.43747,-0.29844
8.19640,-0.30802
7.95533,-0.29316
7.71426,-0.10891
7.47319,0.25216
7.23212,0.46250
6.99105,0.31444
6.74998,0.48007
6.50891,0.71628
6.26783,0.88797
6.02676,0.89086
5.78569,0.80709
5.54462,0.74813
5.30355,0.67326
5.06248,0.51102
4.82141,0.38404
4.58034,0.36419
4.33927,0.31795
4.09820,0.20749
3.85713,0.06039
3.61606,0.16501
3.37499,0.48633
3.13392,0.23875
2.89285,-0.22394
2.65178,-0.25571
2.41071,-0.04367
2.16964,-0.04555
1.92856,-0.24501
1.68749,-0.30424
1.44642,-0.13060
1.20535,0.03495
0.96428,0.14937
0.72321,-0.02130
0.48214,-0.49939
0.24107,-0.12524
-0.00000,0.12156
