399.69498,1.49084
399.45391,1.50186
399.21284,1.49634
398.97177,1.48033
398.73070,1.46798
398.48963,1.46700
398.24856,1.47616
398.00749,1.48717
397.76642,1.49122
397.52535,1.48939
397.28428,1.49056
397.04321,1.49781
396.80214,1.50358
396.56107,1.50105
396.32000,1.49420
396.07892,1.48927
395.83785,1.48370
395.59678,1.47281
395.35571,1.46296
395.11464,1.46545
394.87357,1.48007
394.63250,1.49406
394.39143,1.49851
394.15036,1.49958
393.90929,1.50733
393.66822,1.51855
393.42715,1.51871
393.18608,1.50141
392.94501,1.47865
392.70394,1.46744
392.46287,1.47259
392.22180,1.48295
391.98073,1.48302
391.73965,1.47041
391.49858,1.45829
391.25751,1.45917
391.01644,1.47129
390.77537,1.48235
390.53430,1.48516
390.29323,1.48271
390.05216,1.47855
389.81109,1.47285
389.57002,1.46527
389.32895,1.46079
389.08788,1.46501
388.84681,1.47061
388.60574,1.46555
388.36467,1.45207
388.12360,1.44268
387.88253,1.44033
387.64146,1.43445
387.40038,1.41898
387.15931,1.40331
386.91824,1.39790
386.67717,1.39870
386.43610,1.39412
386.19503,1.38185
385.95396,1.37161
385.71289,1.37044
385.47182,1.37252
385.23075,1.36960
384.98968,1.36319
384.74861,1.35933
384.50754,1.35763
384.26647,1.35121
384.02540,1.33759
383.78433,1.32486
383.54326,1.32166
383.30219,1.32364
383.06111,1.31792
382.82004,1.29975
382.57897,1.27707
382.33790,1.26156
382.09683,1.26131
381.85576,1.27531
381.61469,1.29007
381.37362,1.28988
381.13255,1.27369
380.89148,1.25624
380.65041,1.25155
380.40934,1.25904
380.16827,1.26523
379.92720,1.25919
379.68613,1.24665
379.44506,1.24207
379.20399,1.25138
378.96292,1.26866
378.72184,1.28454
378.48077,1.29688
378.23970,1.31068
377.99863,1.32475
377.75756,1.32771
377.51649,1.31179
377.27542,1.28626
377.03435,1.26793
376.79328,1.26549
376.55221,1.27718
376.31114,1.29686
376.07007,1.31953
375.82900,1.34331
375.58793,1.36537
375.34686,1.37898
375.10579,1.38033
374.86472,1.37464
374.62365,1.37146
374.38257,1.37386
374.14150,1.37538
373.90043,1.36928
373.65936,1.35772
373.41829,1.34894
373.17722,1.34786
372.93615,1.35341
372.69508,1.36341
372.45401,1.37678
372.21294,1.39069
371.97187,1.39925
371.73080,1.39799
371.48973,1.38873
371.24866,1.37487
371.00759,1.35709
370.76652,1.33813
370.52545,1.32691
370.28437,1.32922
370.04330,1.33774
369.80223,1.33862
369.56116,1.32775
369.32009,1.31389
369.07902,1.30540
368.83795,1.30139
368.59688,1.29647
368.35581,1.28983
368.11474,1.28523
367.87367,1.28442
367.63260,1.28705
367.39153,1.29402
367.15046,1.30528
366.90939,1.31586
366.66832,1.31867
366.42725,1.31242
366.18618,1.30327
365.94510,1.29754
365.70403,1.29494
365.46296,1.29111
365.22189,1.28512
364.98082,1.28078
364.73975,1.28035
364.49868,1.28145
364.25761,1.28170
364.01654,1.28263
363.77547,1.28532
363.53440,1.28597
363.29333,1.28084
363.05226,1.27281
362.81119,1.26766
362.57012,1.26549
362.32905,1.26028
362.08798,1.24862
361.84691,1.23611
361.60583,1.23131
361.36476,1.23469
361.12369,1.23709
360.88262,1.23075
360.64155,1.21797
360.40048,1.20674
360.15941,1.20216
359.91834,1.20339
359.67727,1.20553
359.43620,1.20499
359.19513,1.20301
358.95406,1.20259
358.71299,1.20403
358.47192,1.20555
358.23085,1.20610
357.98978,1.20620
357.74871,1.20768
357.50764,1.21179
357.26656,1.21628
357.02549,1.21688
356.78442,1.21391
356.54335,1.21283
356.30228,1.21679
356.06121,1.22261
355.82014,1.22572
355.57907,1.22526
355.33800,1.22213
355.09693,1.21607
354.85586,1.20699
354.61479,1.19680
354.37372,1.18841
354.13265,1.18422
353.89158,1.18527
353.65051,1.19047
353.40944,1.19654
353.16837,1.20011
352.92729,1.20060
352.68622,1.20002
352.44515,1.19919
352.20408,1.19732
351.96301,1.19646
351.72194,1.20072
351.48087,1.20922
351.23980,1.21546
350.99873,1.21557
350.75766,1.21090
350.51659,1.20384
350.27552,1.19723
350.03445,1.19513
349.79338,1.19880
349.55231,1.20444
349.31124,1.20684
349.07017,1.20373
348.82910,1.19739
348.58802,1.19331
348.34695,1.19543
348.10588,1.20200
347.86481,1.20779
347.62374,1.20981
347.38267,1.21044
347.14160,1.21389
346.90053,1.21922
346.65946,1.22260
346.41839,1.22566
346.17732,1.23268
345.93625,1.24234
345.69518,1.25046
345.45411,1.25670
345.21304,1.26099
344.97197,1.26064
344.73090,1.25772
344.48983,1.25895
344.24875,1.26414
344.00768,1.26572
343.76661,1.26176
343.52554,1.25901
343.28447,1.26117
343.04340,1.26372
342.80233,1.26373
342.56126,1.26720
342.32019,1.28032
342.07912,1.29875
341.83805,1.31118
341.59698,1.31191
341.35591,1.30434
341.11484,1.29559
340.87377,1.29275
340.63270,1.30086
340.39163,1.31915
340.15056,1.33813
339.90948,1.34690
339.66841,1.34404
339.42734,1.33679
339.18627,1.33216
338.94520,1.33300
338.70413,1.33984
338.46306,1.35164
338.22199,1.36507
337.98092,1.37631
337.73985,1.38176
337.49878,1.37672
337.25771,1.36099
337.01664,1.34436
336.77557,1.33661
336.53450,1.33716
336.29343,1.34023
336.05236,1.34282
335.81129,1.34284
335.57021,1.33642
335.32914,1.32187
335.08807,1.30414
334.84700,1.29264
334.60593,1.29486
334.36486,1.31149
334.12379,1.33358
333.88272,1.34464
333.64165,1.33355
333.40058,1.30764
333.15951,1.28568
332.91844,1.27846
332.67737,1.28257
332.43630,1.29025
332.19523,1.29725
331.95416,1.29999
331.71309,1.29428
331.47202,1.28195
331.23094,1.27062
330.98987,1.26311
330.74880,1.25506
330.50773,1.24426
330.26666,1.23591
330.02559,1.23659
329.78452,1.24686
329.54345,1.26117
329.30238,1.27055
329.06131,1.26705
328.82024,1.25278
328.57917,1.24051
328.33810,1.23993
328.09703,1.24772
327.85596,1.25237
327.61489,1.24838
327.37382,1.24205
327.13275,1.24225
326.89167,1.25123
326.65060,1.26494
326.40953,1.27698
326.16846,1.28088
325.92739,1.27406
325.68632,1.26156
325.44525,1.25230
325.20418,1.25024
324.96311,1.25218
324.72204,1.25513
324.48097,1.26047
324.23990,1.26888
323.99883,1.27615
323.75776,1.27715
323.51669,1.27287
323.27562,1.27038
323.03455,1.27363
322.79348,1.27752
322.55240,1.27399
322.31133,1.26526
322.07026,1.26416
321.82919,1.27583
321.58812,1.28761
321.34705,1.28378
321.10598,1.26533
320.86491,1.24527
320.62384,1.23222
320.38277,1.22961
320.14170,1.24059
319.90063,1.26221
319.65956,1.28024
319.41849,1.28287
319.17742,1.27451
318.93635,1.26310
318.69528,1.24953
318.45421,1.23686
318.21313,1.23305
317.97206,1.23931
317.73099,1.24955
317.48992,1.25904
317.24885,1.26560
317.00778,1.26712
316.76671,1.26336
316.52564,1.25865
316.28457,1.25813
316.04350,1.26326
315.80243,1.27127
315.56136,1.27581
315.32029,1.27348
315.07922,1.27081
314.83815,1.27734
314.59708,1.29238
314.35601,1.30420
314.11494,1.30489
313.87386,1.29900
313.63279,1.29335
313.39172,1.28889
313.15065,1.28491
312.90958,1.28434
312.66851,1.28980
312.42744,1.29802
312.18637,1.30435
311.94530,1.30797
311.70423,1.30793
311.46316,1.30370
311.22209,1.29970
310.98102,1.30011
310.73995,1.30475
310.49888,1.31336
310.25781,1.32738
310.01674,1.34473
309.77567,1.35865
309.53459,1.36641
309.29352,1.37309
309.05245,1.37699
308.81138,1.36592
308.57031,1.33966
308.32924,1.31585
308.08817,1.30986
307.84710,1.32032
307.60603,1.33326
307.36496,1.33897
307.12389,1.34034
306.88282,1.34180
306.64175,1.33932
306.40068,1.32965
306.15961,1.32182
305.91854,1.32783
305.67747,1.34597
305.43640,1.36070
305.19532,1.35833
304.95425,1.33910
304.71318,1.31501
304.47211,1.29918
304.23104,1.29718
303.98997,1.30548
303.74890,1.31473
303.50783,1.31580
303.26676,1.30443
303.02569,1.28473
302.78462,1.26748
302.54355,1.25989
302.30248,1.25986
302.06141,1.26128
301.82034,1.26089
301.57927,1.25954
301.33820,1.25973
301.09713,1.26277
300.85605,1.26736
300.61498,1.27049
300.37391,1.27007
300.13284,1.26586
299.89177,1.25881
299.65070,1.25152
299.40963,1.24667
299.16856,1.24320
298.92749,1.23704
298.68642,1.22659
298.44535,1.21466
298.20428,1.20538
297.96321,1.20169
297.72214,1.20407
297.48107,1.20914
297.24000,1.21105
296.99893,1.20658
296.75786,1.19783
296.51678,1.18958
296.27571,1.18495
296.03464,1.18342
295.79357,1.18246
295.55250,1.18029
295.31143,1.17660
295.07036,1.17174
294.82929,1.16623
294.58822,1.16146
294.34715,1.16039
294.10608,1.16439
293.86501,1.16881
293.62394,1.16564
293.38287,1.15304
293.14180,1.13808
292.90073,1.12877
292.65966,1.12767
292.41859,1.13196
292.17751,1.13634
291.93644,1.13705
291.69537,1.13439
291.45430,1.13044
291.21323,1.12616
290.97216,1.12212
290.73109,1.11969
290.49002,1.12007
290.24895,1.12303
290.00788,1.12592
289.76681,1.12489
289.52574,1.11957
289.28467,1.11448
289.04360,1.11279
288.80253,1.11170
288.56146,1.10758
288.32039,1.10238
288.07932,1.10021
287.83824,1.10073
287.59717,1.10015
287.35610,1.09705
287.11503,1.09372
286.87396,1.09303
286.63289,1.09575
286.39182,1.09947
286.15075,1.09953
285.90968,1.09354
285.66861,1.08504
285.42754,1.07997
285.18647,1.08036
284.94540,1.08318
284.70433,1.08440
284.46326,1.08305
284.22219,1.08133
283.98112,1.08096
283.74005,1.08064
283.49897,1.07853
283.25790,1.07607
283.01683,1.07680
282.77576,1.08140
282.53469,1.08589
282.29362,1.08597
282.05255,1.08260
281.81148,1.08110
281.57041,1.08416
281.32934,1.08829
281.08827,1.08873
280.84720,1.08539
280.60613,1.08165
280.36506,1.07996
280.12399,1.08089
279.88292,1.08377
279.64185,1.08659
279.40078,1.08791
279.15970,1.08888
278.91863,1.09074
278.67756,1.09201
278.43649,1.09121
278.19542,1.08970
277.95435,1.08918
277.71328,1.08897
277.47221,1.08796
277.23114,1.08682
276.99007,1.08682
276.74900,1.08764
276.50793,1.08708
276.26686,1.08366
276.02579,1.07919
275.78472,1.07725
275.54365,1.07917
275.30258,1.08285
275.06151,1.08511
274.82043,1.08454
274.57936,1.08291
274.33829,1.08354
274.09722,1.08746
273.85615,1.09286
273.61508,1.09831
273.37401,1.10336
273.13294,1.10634
272.89187,1.10575
272.65080,1.10324
272.40973,1.10179
272.16866,1.10231
271.92759,1.10429
271.68652,1.10754
271.44545,1.11126
271.20438,1.11388
270.96331,1.11555
270.72224,1.11851
270.48116,1.12343
270.24009,1.12784
269.99902,1.12982
269.75795,1.13062
269.51688,1.13200
269.27581,1.13391
269.03474,1.13628
268.79367,1.14040
268.55260,1.14754
268.31153,1.15669
268.07046,1.16412
267.82939,1.16613
267.58832,1.16338
267.34725,1.16101
267.10618,1.16330
266.86511,1.16958
266.62404,1.17672
266.38297,1.18356
266.14189,1.19133
265.90082,1.20139
265.65975,1.21400
265.41868,1.22798
265.17761,1.24082
264.93654,1.25017
264.69547,1.25567
264.45440,1.25947
264.21333,1.26394
263.97226,1.27021
263.73119,1.27862
263.49012,1.28901
263.24905,1.30087
263.00798,1.31360
262.76691,1.32725
262.52584,1.34359
262.28477,1.36472
262.04370,1.38929
261.80262,1.41218
261.56155,1.42973
261.32048,1.44322
261.07941,1.45597
260.83834,1.46999
260.59727,1.48716
260.35620,1.50868
260.11513,1.53232
259.87406,1.55700
259.63299,1.58623
259.39192,1.62134
259.15085,1.65443
258.90978,1.67412
258.66871,1.68312
258.42764,1.69727
258.18657,1.72290
257.94550,1.75285
257.70443,1.78243
257.46335,1.80866
257.22228,1.82609
256.98121,1.83494
256.74014,1.83686
256.49907,1.82113
256.25800,1.78254
256.01693,1.73989
255.77586,1.71079
255.53479,1.69439
255.29372,1.68468
255.05265,1.68010
254.81158,1.67684
254.57051,1.66517
254.32944,1.63952
254.08837,1.60727
253.84730,1.58337
253.60623,1.57602
253.36516,1.57929
253.12408,1.58216
252.88301,1.58012
252.64194,1.57489
252.40087,1.57087
252.15980,1.57100
251.91873,1.57277
251.67766,1.57267
251.43659,1.56807
251.19552,1.55556
250.95445,1.53689
250.71338,1.52172
250.47231,1.51695
250.23124,1.51898
249.99017,1.51974
249.74910,1.51668
249.50803,1.51409
249.26696,1.51342
249.02589,1.51099
248.78481,1.50888
248.54374,1.51531
248.30267,1.53159
248.06160,1.54662
247.82053,1.54956
247.57946,1.54244
247.33839,1.53361
247.09732,1.52719
246.85625,1.52349
246.61518,1.52425
246.37411,1.53159
246.13304,1.54393
245.89197,1.55804
245.65090,1.57495
245.40983,1.60075
245.16876,1.63828
244.92769,1.67961
244.68661,1.71223
244.44554,1.73264
244.20447,1.75176
243.96340,1.78414
243.72233,1.82820
243.48126,1.86466
243.24019,1.88107
242.99912,1.89224
242.75805,1.92128
242.51698,1.94383
242.27591,1.86439
242.03484,1.75902
241.79377,1.67881
241.55270,1.61189
241.31163,1.54664
241.07056,1.48426
240.82949,1.42754
240.58842,1.37506
240.34734,1.32672
240.10627,1.28588
239.86520,1.25415
239.62413,1.22865
239.38306,1.20458
239.14199,1.17789
238.90092,1.14771
238.65985,1.11774
238.41878,1.09292
238.17771,1.07414
237.93664,1.05835
237.69557,1.04307
237.45450,1.02804
237.21343,1.01310
236.97236,0.99771
236.73129,0.98289
236.49022,0.97062
236.24915,0.96103
236.00807,0.95162
235.76700,0.94038
235.52593,0.92897
235.28486,0.92101
235.04379,0.91724
234.80272,0.91468
234.56165,0.91040
234.32058,0.90433
234.07951,0.89841
233.83844,0.89425
233.59737,0.89167
233.35630,0.88907
233.11523,0.88564
232.87416,0.88188
232.63309,0.87788
232.39202,0.87334
232.15095,0.86912
231.90988,0.86662
231.66880,0.86569
231.42773,0.86459
231.18666,0.86147
230.94559,0.85598
230.70452,0.85003
230.46345,0.84570
230.22238,0.84263
229.98131,0.83970
229.74024,0.83804
229.49917,0.83877
229.25810,0.83931
229.01703,0.83588
228.77596,0.82891
228.53489,0.82242
228.29382,0.81958
228.05275,0.82043
227.81168,0.82263
227.57061,0.82330
227.32953,0.82142
227.08846,0.81854
226.84739,0.81637
226.60632,0.81507
226.36525,0.81380
226.12418,0.81170
225.88311,0.80837
225.64204,0.80465
225.40097,0.80244
225.15990,0.80262
224.91883,0.80404
224.67776,0.80557
224.43669,0.80798
224.19562,0.81179
223.95455,0.81497
223.71348,0.81538
223.47241,0.81434
223.23134,0.81488
222.99026,0.81803
222.74919,0.82278
222.50812,0.82757
222.26705,0.83024
222.02598,0.82930
221.78491,0.82687
221.54384,0.82795
221.30277,0.83494
221.06170,0.84530
220.82063,0.85547
220.57956,0.86422
220.33849,0.87137
220.09742,0.87689
219.85635,0.88234
219.61528,0.88983
219.37421,0.89919
219.13314,0.90881
218.89207,0.91827
218.65099,0.92781
218.40992,0.93720
218.16885,0.94714
217.92778,0.95932
217.68671,0.97345
217.44564,0.98623
217.20457,0.99462
216.96350,0.99977
216.72243,1.00661
216.48136,1.01877
216.24029,1.03467
215.99922,1.05000
215.75815,1.06283
215.51708,1.07457
215.27601,1.08713
215.03494,1.10121
214.79387,1.11611
214.55280,1.12995
214.31172,1.14127
214.07065,1.15030
213.82958,1.15774
213.58851,1.16333
213.34744,1.16661
213.10637,1.16872
212.86530,1.17263
212.62423,1.18095
212.38316,1.19281
212.14209,1.20279
211.90102,1.20574
211.65995,1.20375
211.41888,1.20522
211.17781,1.21567
210.93674,1.23073
210.69567,1.24000
210.45460,1.23975
210.21353,1.23577
209.97245,1.23203
209.73138,1.22641
209.49031,1.21819
209.24924,1.21068
209.00817,1.20557
208.76710,1.20135
208.52603,1.19636
208.28496,1.18994
208.04389,1.18279
207.80282,1.17721
207.56175,1.17429
207.32068,1.17210
207.07961,1.16781
206.83854,1.15957
206.59747,1.14658
206.35640,1.13008
206.11533,1.11426
205.87426,1.10411
205.63318,1.10215
205.39211,1.10556
205.15104,1.10541
204.90997,1.09343
204.66890,1.07139
204.42783,1.04789
204.18676,1.02802
203.94569,1.01211
203.70462,0.99971
203.46355,0.99014
203.22248,0.98188
202.98141,0.97323
202.74034,0.96213
202.49927,0.94694
202.25820,0.92990
202.01713,0.91582
201.77606,0.90649
201.53499,0.89885
201.29391,0.88830
201.05284,0.87328
200.81177,0.85656
200.57070,0.84164
200.32963,0.82931
200.08856,0.81832
199.84749,0.80822
199.60642,0.79967
199.36535,0.79222
199.12428,0.78370
198.88321,0.77232
198.64214,0.75905
198.40107,0.74688
198.16000,0.73838
197.91893,0.73372
197.67786,0.73016
197.43679,0.72431
197.19572,0.71570
196.95464,0.70704
196.71357,0.70071
196.47250,0.69579
196.23143,0.68890
195.99036,0.67851
195.74929,0.66767
195.50822,0.66101
195.26715,0.65972
195.02608,0.66017
194.78501,0.65719
194.54394,0.64915
194.30287,0.63923
194.06180,0.63134
193.82073,0.62618
193.57966,0.62151
193.33859,0.61559
193.09752,0.60921
192.85645,0.60442
192.61537,0.60179
192.37430,0.59993
192.13323,0.59714
191.89216,0.59305
191.65109,0.58884
191.41002,0.58555
191.16895,0.58276
190.92788,0.57930
190.68681,0.57519
190.44574,0.57172
190.20467,0.56948
189.96360,0.56727
189.72253,0.56409
189.48146,0.56083
189.24039,0.55892
188.99932,0.55830
188.75825,0.55739
188.51718,0.55501
188.27610,0.55196
188.03503,0.55012
187.79396,0.54969
187.55289,0.54863
187.31182,0.54551
187.07075,0.54157
186.82968,0.53906
186.58861,0.53844
186.34754,0.53831
186.10647,0.53788
185.86540,0.53821
185.62433,0.54006
185.38326,0.54186
185.14219,0.54172
184.90112,0.54075
184.66005,0.54162
184.41898,0.54441
184.17791,0.54682
183.93683,0.54768
183.69576,0.54795
183.45469,0.54882
183.21362,0.55058
182.97255,0.55296
182.73148,0.55576
182.49041,0.55865
182.24934,0.56051
182.00827,0.56006
181.76720,0.55782
181.52613,0.55619
181.28506,0.55669
181.04399,0.55847
180.80292,0.56062
180.56185,0.56368
180.32078,0.56763
180.07971,0.57082
179.83864,0.57295
179.59756,0.57631
179.35649,0.58196
179.11542,0.58770
178.87435,0.59213
178.63328,0.59679
178.39221,0.60290
178.15114,0.60987
177.91007,0.61789
177.66900,0.62805
177.42793,0.63993
177.18686,0.65198
176.94579,0.66384
176.70472,0.67683
176.46365,0.69233
176.22258,0.71043
175.98151,0.72955
175.74044,0.74782
175.49937,0.76466
175.25829,0.78084
175.01722,0.79755
174.77615,0.81481
174.53508,0.83069
174.29401,0.84472
174.05294,0.86038
173.81187,0.88018
173.57080,0.90024
173.32973,0.91432
173.08866,0.92142
172.84759,0.92558
172.60652,0.92979
172.36545,0.93336
172.12438,0.93469
171.88331,0.93425
171.64224,0.93386
171.40117,0.93467
171.16010,0.93674
170.91902,0.93936
170.67795,0.94063
170.43688,0.93851
170.19581,0.93265
169.95474,0.92413
169.71367,0.91466
169.47260,0.90649
169.23153,0.90066
168.99046,0.89524
168.74939,0.88785
168.50832,0.87973
168.26725,0.87461
168.02618,0.87380
167.78511,0.87481
167.54404,0.87534
167.30297,0.87624
167.06190,0.87888
166.82083,0.88215
166.57975,0.88417
166.33868,0.88484
166.09761,0.88520
165.85654,0.88580
165.61547,0.88725
165.37440,0.89039
165.13333,0.89510
164.89226,0.90031
164.65119,0.90635
164.41012,0.91575
164.16905,0.93001
163.92798,0.94660
163.68691,0.96126
163.44584,0.97250
163.20477,0.98113
162.96370,0.98710
162.72263,0.98981
162.48156,0.99029
162.24048,0.99129
161.99941,0.99496
161.75834,1.00063
161.51727,1.00550
161.27620,1.00740
161.03513,1.00630
160.79406,1.00326
160.55299,0.99921
160.31192,0.99504
160.07085,0.99235
159.82978,0.99255
159.58871,0.99491
159.34764,0.99660
159.10657,0.99532
158.86550,0.99052
158.62443,0.98267
158.38336,0.97330
158.14229,0.96499
157.90121,0.95905
157.66014,0.95425
157.41907,0.94907
157.17800,0.94349
156.93693,0.93798
156.69586,0.93225
156.45479,0.92594
156.21372,0.91966
155.97265,0.91395
155.73158,0.90750
155.49051,0.89821
155.24944,0.88600
155.00837,0.87311
154.76730,0.86195
154.52623,0.85360
154.28516,0.84747
154.04409,0.84156
153.80302,0.83353
153.56194,0.82228
153.32087,0.80816
153.07980,0.79204
152.83873,0.77493
152.59766,0.75807
152.35659,0.74231
152.11552,0.72745
151.87445,0.71255
151.63338,0.69700
151.39231,0.68112
151.15124,0.66594
150.91017,0.65240
150.66910,0.64057
150.42803,0.63000
150.18696,0.62046
149.94589,0.61160
149.70482,0.60238
149.46375,0.59217
149.22267,0.58199
148.98160,0.57354
148.74053,0.56748
148.49946,0.56300
148.25839,0.55856
148.01732,0.55313
147.77625,0.54730
147.53518,0.54292
147.29411,0.54123
147.05304,0.54152
146.81197,0.54176
146.57090,0.54087
146.32983,0.54016
146.08876,0.54207
145.84769,0.54756
145.60662,0.55491
145.36555,0.56098
145.12448,0.56410
144.88340,0.56543
144.64233,0.56738
144.40126,0.57094
144.16019,0.57493
143.91912,0.57757
143.67805,0.57803
143.43698,0.57628
143.19591,0.57236
142.95484,0.56673
142.71377,0.56048
142.47270,0.55414
142.23163,0.54677
141.99056,0.53752
141.74949,0.52744
141.50842,0.51858
141.26735,0.51198
141.02628,0.50720
140.78521,0.50334
140.54413,0.49999
140.30306,0.49757
140.06199,0.49667
139.82092,0.49719
139.57985,0.49903
139.33878,0.50276
139.09771,0.50819
138.85664,0.51322
138.61557,0.51615
138.37450,0.51865
138.13343,0.52435
137.89236,0.53491
137.65129,0.54871
137.41022,0.56289
137.16915,0.57624
136.92808,0.58990
136.68701,0.60541
136.44594,0.62257
136.20486,0.64009
135.96379,0.65812
135.72272,0.67867
135.48165,0.70319
135.24058,0.73106
134.99951,0.76088
134.75844,0.79174
134.51737,0.82284
134.27630,0.85379
134.03523,0.88533
133.79416,0.91724
133.55309,0.94664
133.31202,0.97214
133.07095,0.99749
132.82988,1.02650
132.58881,1.05659
132.34774,1.08243
132.10667,1.10418
131.86559,1.12528
131.62452,1.14395
131.38345,1.15432
131.14238,1.15444
130.90131,1.14632
130.66024,1.13094
130.41917,1.10963
130.17810,1.08638
129.93703,1.06371
129.69596,1.03880
129.45489,1.00676
129.21382,0.96671
128.97275,0.92332
128.73168,0.88257
128.49061,0.84713
128.24954,0.81566
128.00847,0.78612
127.76740,0.75846
127.52632,0.73355
127.28525,0.71063
127.04418,0.68754
126.80311,0.66328
126.56204,0.63929
126.32097,0.61751
126.07990,0.59834
125.83883,0.58103
125.59776,0.56509
125.35669,0.55050
125.11562,0.53734
124.87455,0.52539
124.63348,0.51391
124.39241,0.50229
124.15134,0.49109
123.91027,0.48132
123.66920,0.47295
123.42812,0.46554
123.18705,0.45969
122.94598,0.45601
122.70491,0.45352
122.46384,0.45077
122.22277,0.44782
121.98170,0.44594
121.74063,0.44601
121.49956,0.44819
121.25849,0.45233
121.01742,0.45801
120.77635,0.46452
120.53528,0.47129
120.29421,0.47845
120.05314,0.48681
119.81207,0.49731
119.57100,0.51046
119.32993,0.52627
119.08885,0.54459
118.84778,0.56546
118.60671,0.58906
118.36564,0.61533
118.12457,0.64335
117.88350,0.67125
117.64243,0.69720
117.40136,0.72054
117.16029,0.74142
116.91922,0.75966
116.67815,0.77406
116.43708,0.78231
116.19601,0.78309
115.95494,0.77896
115.71387,0.77405
115.47280,0.76878
115.23173,0.76040
114.99066,0.74820
114.74958,0.73407
114.50851,0.71915
114.26744,0.70362
114.02637,0.68892
113.78530,0.67730
113.54423,0.66971
113.30316,0.66551
113.06209,0.66403
112.82102,0.66614
112.57995,0.67297
112.33888,0.68309
112.09781,0.69283
111.85674,0.70024
111.61567,0.70649
111.37460,0.71286
111.13353,0.71784
110.89246,0.71761
110.65139,0.71032
110.41031,0.69917
110.16924,0.68912
109.92817,0.68127
109.68710,0.67270
109.44603,0.66153
109.20496,0.64963
108.96389,0.63999
108.72282,0.63278
108.48175,0.62411
108.24068,0.60896
107.99961,0.58617
107.75854,0.55986
107.51747,0.53521
107.27640,0.51454
107.03533,0.49751
106.79426,0.48322
106.55319,0.47126
106.31212,0.46140
106.07104,0.45306
105.82997,0.44504
105.58890,0.43575
105.34783,0.42401
105.10676,0.41017
104.86569,0.39613
104.62462,0.38370
104.38355,0.37324
104.14248,0.36451
103.90141,0.35820
103.66034,0.35491
103.41927,0.35257
103.17820,0.34719
102.93713,0.33732
102.69606,0.32583
102.45499,0.31644
102.21392,0.31042
101.97285,0.30712
101.73177,0.30555
101.49070,0.30479
101.24963,0.30365
101.00856,0.30058
100.76749,0.29454
100.52642,0.28678
100.28535,0.28078
100.04428,0.27914
99.80321,0.28131
99.56214,0.28401
99.32107,0.28322
99.08000,0.27695
98.83893,0.26785
98.59786,0.26149
98.35679,0.26140
98.11572,0.26587
97.87465,0.26950
97.63358,0.26883
97.39250,0.26608
97.15143,0.26594
96.91036,0.27008
96.66929,0.27533
96.42822,0.27736
96.18715,0.27636
95.94608,0.27720
95.70501,0.28417
95.46394,0.29618
95.22287,0.30724
94.98180,0.31330
94.74073,0.31650
94.49966,0.31993
94.25859,0.32260
94.01752,0.32253
93.77645,0.32133
93.53538,0.32195
93.29431,0.32420
93.05323,0.32549
92.81216,0.32512
92.57109,0.32525
92.33002,0.32698
92.08895,0.32799
91.84788,0.32570
91.60681,0.32242
91.36574,0.32439
91.12467,0.33487
90.88360,0.35061
90.64253,0.36793
90.40146,0.38979
90.16039,0.41966
89.91932,0.45355
89.67825,0.48742
89.43718,0.52686
89.19611,0.57677
88.95504,0.62989
88.71396,0.67533
88.47289,0.70814
88.23182,0.72125
87.99075,0.70743
87.74968,0.67387
87.50861,0.63563
87.26754,0.59944
87.02647,0.56317
86.78540,0.52491
86.54433,0.48740
86.30326,0.45423
86.06219,0.42588
85.82112,0.40133
85.58005,0.38044
85.33898,0.36247
85.09791,0.34498
84.85684,0.32666
84.61577,0.30888
84.37469,0.29377
84.13362,0.28246
83.89255,0.27461
83.65148,0.26847
83.41041,0.26183
83.16934,0.25371
82.92827,0.24480
82.68720,0.23670
82.44613,0.23042
82.20506,0.22563
81.96399,0.22173
81.72292,0.21883
81.48185,0.21698
81.24078,0.21544
80.99971,0.21371
80.75864,0.21191
80.51757,0.20989
80.27650,0.20718
80.03542,0.20368
79.79435,0.19979
79.55328,0.19615
79.31221,0.19383
79.07114,0.19355
78.83007,0.19418
78.58900,0.19345
78.34793,0.19064
78.10686,0.18680
77.86579,0.18227
77.62472,0.17662
77.38365,0.17118
77.14258,0.16849
76.90151,0.16908
76.66044,0.17057
76.41937,0.17032
76.17830,0.16787
75.93723,0.16436
75.69615,0.16046
75.45508,0.15621
75.21401,0.15246
74.97294,0.15064
74.73187,0.15112
74.49080,0.15317
74.24973,0.15616
74.00866,0.15992
73.76759,0.16453
73.52652,0.16992
73.28545,0.17430
73.04438,0.17436
72.80331,0.16914
72.56224,0.16192
72.32117,0.15742
72.08010,0.15874
71.83903,0.16599
71.59796,0.17584
71.35688,0.18309
71.11581,0.18453
70.87474,0.18145
70.63367,0.17827
70.39260,0.17900
70.15153,0.18474
69.91046,0.19428
69.66939,0.20663
69.42832,0.22152
69.18725,0.23699
68.94618,0.24867
68.70511,0.25236
68.46404,0.24675
68.22297,0.23407
67.98190,0.21870
67.74083,0.20452
67.49976,0.19267
67.25869,0.18198
67.01761,0.17123
66.77654,0.16084
66.53547,0.15214
66.29440,0.14580
66.05333,0.14186
65.81226,0.14104
65.57119,0.14465
65.33012,0.15284
65.08905,0.16378
64.84798,0.17518
64.60691,0.18593
64.36584,0.19579
64.12477,0.20392
63.88370,0.20851
63.64263,0.20745
63.40156,0.19942
63.16049,0.18551
62.91942,0.16999
62.67834,0.15765
62.43727,0.15011
62.19620,0.14568
61.95513,0.14238
61.71406,0.13951
61.47299,0.13676
61.23192,0.13357
60.99085,0.12999
60.74978,0.12758
60.50871,0.12867
60.26764,0.13415
60.02657,0.14247
59.78550,0.15166
59.54443,0.16156
59.30336,0.17261
59.06229,0.18295
58.82122,0.18895
58.58015,0.18924
58.33907,0.18645
58.09800,0.18386
57.85693,0.18190
57.61586,0.17841
57.37479,0.17091
57.13372,0.15864
56.89265,0.14338
56.65158,0.12901
56.41051,0.11944
56.16944,0.11689
55.92837,0.12190
55.68730,0.13374
55.44623,0.15016
55.20516,0.16773
54.96409,0.18364
54.72302,0.19625
54.48195,0.20236
54.24088,0.19687
53.99980,0.17945
53.75873,0.15757
53.51766,0.14015
53.27659,0.13253
53.03552,0.13704
52.79445,0.15411
52.55338,0.18083
52.31231,0.20807
52.07124,0.22061
51.83017,0.20849
51.58910,0.17807
51.34803,0.14424
51.10696,0.12090
50.86589,0.11752
50.62482,0.13734
50.38375,0.17620
50.14268,0.21210
49.90161,0.20528
49.66053,0.15911
49.41946,0.11839
49.17839,0.10981
48.93732,0.13751
48.69625,0.18092
48.45518,0.19329
48.21411,0.16399
47.97304,0.13844
47.73197,0.14538
47.49090,0.17651
47.24983,0.19188
47.00876,0.16943
46.76769,0.14359
46.52662,0.14470
46.28555,0.16292
46.04448,0.16594
45.80341,0.15498
45.56234,0.15899
45.32126,0.17554
45.08019,0.17341
44.83912,0.15550
44.59805,0.15373
44.35698,0.16852
44.11591,0.17173
43.87484,0.16171
43.63377,0.16364
43.39270,0.17614
43.15163,0.18118
42.91056,0.17848
42.66949,0.17942
42.42842,0.18572
42.18735,0.19085
41.94628,0.19146
41.70521,0.18976
41.46414,0.18778
41.22307,0.18546
40.98199,0.18595
40.74092,0.19278
40.49985,0.20107
40.25878,0.20422
40.01771,0.20566
39.77664,0.20998
39.53557,0.21402
39.29450,0.21489
39.05343,0.21495
38.81236,0.21659
38.57129,0.22230
38.33022,0.23497
38.08915,0.25238
37.84808,0.26524
37.60701,0.26444
37.36594,0.25315
37.12487,0.24092
36.88380,0.23139
36.64272,0.22302
36.40165,0.21613
36.16058,0.21579
35.91951,0.22394
35.67844,0.23261
35.43737,0.23194
35.19630,0.22128
34.95523,0.20653
34.71416,0.19346
34.47309,0.18906
34.23202,0.19880
33.99095,0.21680
33.74988,0.22792
33.50881,0.22476
33.26774,0.21434
33.02667,0.20600
32.78560,0.20350
32.54453,0.20615
32.30345,0.20956
32.06238,0.20879
31.82131,0.20165
31.58024,0.18629
31.33917,0.16340
31.09810,0.13631
30.85703,0.10937
30.61596,0.09020
30.37489,0.08472
30.13382,0.08817
29.89275,0.08771
29.65168,0.07489
29.41061,0.05176
29.16954,0.02638
28.92847,0.00468
28.68740,-0.01303
28.44633,-0.02909
28.20526,-0.04446
27.96418,-0.05719
27.72311,-0.06712
27.48204,-0.07774
27.24097,-0.09060
26.99990,-0.10142
26.75883,-0.10393
26.51776,-0.09774
26.27669,-0.09116
26.03562,-0.09580
25.79455,-0.11569
25.55348,-0.14425
25.31241,-0.17161
25.07134,-0.19260
24.83027,-0.20916
24.58920,-0.22230
24.34813,-0.22749
24.10706,-0.22630
23.86599,-0.23193
23.62491,-0.25391
23.38384,-0.28333
23.14277,-0.30443
22.90170,-0.31572
22.66063,-0.32378
22.41956,-0.32873
22.17849,-0.33154
21.93742,-0.34096
21.69635,-0.36034
21.45528,-0.37818
21.21421,-0.37941
20.97314,-0.36535
20.73207,-0.35308
20.49100,-0.35305
20.24993,-0.36032
20.00886,-0.36524
19.76779,-0.36962
19.52672,-0.37869
19.28564,-0.38801
19.04457,-0.39117
18.80350,-0.39056
18.56243,-0.39076
18.32136,-0.39087
18.08029,-0.38948
17.83922,-0.38729
17.59815,-0.39012
17.35708,-0.41236
17.11601,-0.45469
16.87494,-0.48618
16.63387,-0.47890
16.39280,-0.44812
16.15173,-0.42302
15.91066,-0.41245
15.66959,-0.41024
15.42852,-0.41463
15.18745,-0.43410
14.94637,-0.47158
14.70530,-0.52058
14.46423,-0.57239
14.22316,-0.60905
13.98209,-0.62065
13.74102,-0.62909
13.49995,-0.62189
13.25888,-0.58420
13.01781,-0.53737
12.77674,-0.52012
12.53567,-0.53281
12.29460,-0.52110
12.05353,-0.48894
11.81246,-0.47959
11.57139,-0.49481
11.33032,-0.51852
11.08925,-0.53379
10.84818,-0.52974
10.60710,-0.52014
10.36603,-0.50506
10.12496,-0.48445
9.88389,-0.47177
9.64282,-0.47643
9.40175,-0.48910
9.16068,-0.49621
8.91961,-0.49611
8.67854,-0.48701
8.43747,-0.48306
8.19640,-0.49540
7.95533,-0.51147
7.71426,-0.52860
7.47319,-0.53731
7.23212,-0.52683
6.99105,-0.52341
6.74998,-0.52820
6.50891,-0.51664
6.26783,-0.49045
6.02676,-0.48371
5.78569,-0.51370
5.54462,-0.55433
5.30355,-0.55343
5.06248,-0.51923
4.82141,-0.50539
4.58034,-0.51284
4.33927,-0.49633
4.09820,-0.46066
3.85713,-0.42957
3.61606,-0.42614
3.37499,-0.44884
3.13392,-0.47837
2.89285,-0.50181
2.65178,-0.50810
2.41071,-0.49789
2.16964,-0.49336
1.92856,-0.50753
1.68749,-0.53577
1.44642,-0.55703
1.20535,-0.56054
0.96428,-0.54840
0.72321,-0.55202
0.48214,-0.57214
0.24107,-0.54334
-0.00000,-0.15316
