399.69498,1.58889
399.45391,1.58575
399.21284,1.59524
398.97177,1.60784
398.73070,1.61277
398.48963,1.60500
398.24856,1.59031
398.00749,1.57999
397.76642,1.58209
397.52535,1.59648
397.28428,1.61499
397.04321,1.62364
396.80214,1.61282
396.56107,1.59328
396.32000,1.58630
396.07892,1.59980
395.83785,1.62473
395.59678,1.64382
395.35571,1.64067
395.11464,1.61444
394.87357,1.58391
394.63250,1.56832
394.39143,1.57103
394.15036,1.57970
393.90929,1.57991
393.66822,1.56737
393.42715,1.54746
393.18608,1.53140
392.94501,1.53222
392.70394,1.55075
392.46287,1.56726
392.22180,1.56225
391.98073,1.54168
391.73965,1.52344
391.49858,1.51527
391.25751,1.51500
391.01644,1.51973
390.77537,1.53017
390.53430,1.54605
390.29323,1.56151
390.05216,1.56652
389.81109,1.55488
389.57002,1.53503
389.32895,1.52214
389.08788,1.52185
388.84681,1.53106
388.60574,1.53933
388.36467,1.53491
388.12360,1.51864
387.88253,1.49775
387.64146,1.48247
387.40038,1.47931
387.15931,1.48449
386.91824,1.49389
386.67717,1.50651
386.43610,1.51984
386.19503,1.52281
385.95396,1.50684
385.71289,1.48386
385.47182,1.47402
385.23075,1.47858
384.98968,1.47708
384.74861,1.45873
384.50754,1.44049
384.26647,1.43925
384.02540,1.44480
383.78433,1.43640
383.54326,1.41332
383.30219,1.38908
383.06111,1.36504
382.82004,1.33333
382.57897,1.30018
382.33790,1.28516
382.09683,1.29815
381.85576,1.32672
381.61469,1.34669
381.37362,1.34573
381.13255,1.33086
380.89148,1.31367
380.65041,1.30098
380.40934,1.29880
380.16827,1.31220
379.92720,1.33402
379.68613,1.34261
379.44506,1.33033
379.20399,1.31624
378.96292,1.31517
378.72184,1.32043
378.48077,1.32243
378.23970,1.32532
377.99863,1.33521
377.75756,1.34869
377.51649,1.36004
377.27542,1.37015
377.03435,1.38150
376.79328,1.39386
376.55221,1.40614
376.31114,1.41583
376.07007,1.42129
375.82900,1.42574
375.58793,1.43210
375.34686,1.43977
375.10579,1.44754
374.86472,1.45177
374.62365,1.44852
374.38257,1.44073
374.14150,1.43778
373.90043,1.44354
373.65936,1.45498
373.41829,1.46709
373.17722,1.47186
372.93615,1.46485
372.69508,1.45176
372.45401,1.44322
372.21294,1.44652
371.97187,1.46112
371.73080,1.47844
371.48973,1.48794
371.24866,1.48827
371.00759,1.48597
370.76652,1.48487
370.52545,1.48230
370.28437,1.47452
370.04330,1.46464
369.80223,1.46048
369.56116,1.46362
369.32009,1.46580
369.07902,1.45761
368.83795,1.43960
368.59688,1.42179
368.35581,1.41347
368.11474,1.41592
367.87367,1.42348
367.63260,1.43009
367.39153,1.43389
367.15046,1.43523
366.90939,1.43317
366.66832,1.42760
366.42725,1.41985
366.18618,1.40972
365.94510,1.39767
365.70403,1.38676
365.46296,1.37965
365.22189,1.37703
364.98082,1.37929
364.73975,1.38543
364.49868,1.38957
364.25761,1.38556
364.01654,1.37642
363.77547,1.37110
363.53440,1.37215
363.29333,1.37381
363.05226,1.37242
362.81119,1.37236
362.57012,1.37741
362.32905,1.38170
362.08798,1.37585
361.84691,1.36216
361.60583,1.35536
361.36476,1.36342
361.12369,1.37512
360.88262,1.37387
360.64155,1.36055
360.40048,1.35010
360.15941,1.35015
359.91834,1.35509
359.67727,1.35773
359.43620,1.35943
359.19513,1.36471
358.95406,1.36818
358.71299,1.35677
358.47192,1.33187
358.23085,1.31233
357.98978,1.31099
357.74871,1.32281
357.50764,1.33547
357.26656,1.34417
357.02549,1.35077
356.78442,1.35407
356.54335,1.35062
356.30228,1.34219
356.06121,1.33331
355.82014,1.32618
355.57907,1.32200
355.33800,1.32206
355.09693,1.32578
354.85586,1.33226
354.61479,1.34080
354.37372,1.34745
354.13265,1.34855
353.89158,1.34696
353.65051,1.34630
353.40944,1.34232
353.16837,1.33025
352.92729,1.31665
352.68622,1.31095
352.44515,1.31274
352.20408,1.31577
351.96301,1.31656
351.72194,1.31429
351.48087,1.31098
351.23980,1.31287
350.99873,1.32302
350.75766,1.33662
350.51659,1.34553
350.27552,1.34625
350.03445,1.34308
349.79338,1.33962
349.55231,1.33315
349.31124,1.32306
349.07017,1.31621
348.82910,1.31898
348.58802,1.33020
348.34695,1.34175
348.10588,1.34392
347.86481,1.33444
347.62374,1.32311
347.38267,1.32480
347.14160,1.34443
346.90053,1.37113
346.65946,1.39078
346.41839,1.39861
346.17732,1.39829
345.93625,1.39416
345.69518,1.38771
345.45411,1.38100
345.21304,1.37758
344.97197,1.37784
344.73090,1.37622
344.48983,1.36790
344.24875,1.35792
344.00768,1.35664
343.76661,1.36623
343.52554,1.37754
343.28447,1.38173
343.04340,1.37993
342.80233,1.37865
342.56126,1.38238
342.32019,1.39197
342.07912,1.40384
341.83805,1.41205
341.59698,1.41515
341.35591,1.41831
341.11484,1.42470
340.87377,1.43270
340.63270,1.44212
340.39163,1.45315
340.15056,1.46177
339.90948,1.46225
339.66841,1.45262
339.42734,1.43896
339.18627,1.43015
338.94520,1.42785
338.70413,1.42855
338.46306,1.43310
338.22199,1.44635
337.98092,1.46750
337.73985,1.48777
337.49878,1.49573
337.25771,1.48321
337.01664,1.45951
336.77557,1.44895
336.53450,1.45747
336.29343,1.46296
336.05236,1.44618
335.81129,1.41836
335.57021,1.40536
335.32914,1.41715
335.08807,1.43990
334.84700,1.45206
334.60593,1.44931
334.36486,1.44594
334.12379,1.45039
333.88272,1.45368
333.64165,1.44468
333.40058,1.42311
333.15951,1.39971
332.91844,1.39066
332.67737,1.40100
332.43630,1.41588
332.19523,1.41484
331.95416,1.39436
331.71309,1.36798
331.47202,1.35221
331.23094,1.35649
330.98987,1.37259
330.74880,1.37967
330.50773,1.37150
330.26666,1.36308
330.02559,1.36451
329.78452,1.36686
329.54345,1.35914
329.30238,1.34739
329.06131,1.34227
328.82024,1.34274
328.57917,1.34383
328.33810,1.34513
328.09703,1.34803
327.85596,1.35175
327.61489,1.35712
327.37382,1.36876
327.13275,1.38378
326.89167,1.38862
326.65060,1.37686
326.40953,1.35724
326.16846,1.33834
325.92739,1.32179
325.68632,1.31104
325.44525,1.31139
325.20418,1.31963
324.96311,1.32468
324.72204,1.32304
324.48097,1.32272
324.23990,1.32536
323.99883,1.32281
323.75776,1.31534
323.51669,1.31454
323.27562,1.32523
323.03455,1.33863
322.79348,1.34590
322.55240,1.34808
322.31133,1.34836
322.07026,1.34913
321.82919,1.35505
321.58812,1.36371
321.34705,1.36522
321.10598,1.35779
320.86491,1.35694
320.62384,1.37636
320.38277,1.40563
320.14170,1.41890
319.90063,1.40551
319.65956,1.38315
319.41849,1.37180
319.17742,1.37004
318.93635,1.36029
318.69528,1.34312
318.45421,1.34127
318.21313,1.36678
317.97206,1.40168
317.73099,1.41543
317.48992,1.40421
317.24885,1.38734
317.00778,1.37504
316.76671,1.36465
316.52564,1.35325
316.28457,1.34645
316.04350,1.35133
315.80243,1.36179
315.56136,1.36407
315.32029,1.35957
315.07922,1.36034
314.83815,1.36937
314.59708,1.38010
314.35601,1.38159
314.11494,1.36897
313.87386,1.35203
313.63279,1.34461
313.39172,1.35217
313.15065,1.37237
312.90958,1.39484
312.66851,1.40640
312.42744,1.40803
312.18637,1.41147
311.94530,1.41679
311.70423,1.41637
311.46316,1.41068
311.22209,1.40687
310.98102,1.40945
310.73995,1.41550
310.49888,1.42074
310.25781,1.42417
310.01674,1.42702
309.77567,1.43058
309.53459,1.43244
309.29352,1.42522
309.05245,1.40804
308.81138,1.39463
308.57031,1.39744
308.32924,1.41354
308.08817,1.42983
307.84710,1.43497
307.60603,1.43076
307.36496,1.42592
307.12389,1.42284
306.88282,1.42085
306.64175,1.42256
306.40068,1.43127
306.15961,1.44370
305.91854,1.44942
305.67747,1.44051
305.43640,1.42146
305.19532,1.40648
304.95425,1.40683
304.71318,1.42260
304.47211,1.44461
304.23104,1.46513
303.98997,1.47826
303.74890,1.47105
303.50783,1.43911
303.26676,1.39826
303.02569,1.36883
302.78462,1.36254
302.54355,1.37626
302.30248,1.39545
302.06141,1.40676
301.82034,1.40916
301.57927,1.40949
301.33820,1.40836
301.09713,1.40115
300.85605,1.38853
300.61498,1.37499
300.37391,1.36290
300.13284,1.35228
299.89177,1.34478
299.65070,1.34414
299.40963,1.35034
299.16856,1.35610
298.92749,1.35231
298.68642,1.33841
298.44535,1.32189
298.20428,1.30765
297.96321,1.29478
297.72214,1.28272
297.48107,1.27565
297.24000,1.27859
296.99893,1.29073
296.75786,1.30410
296.51678,1.30929
296.27571,1.30328
296.03464,1.29245
295.79357,1.28633
295.55250,1.28937
295.31143,1.29808
295.07036,1.30395
294.82929,1.29942
294.58822,1.28402
294.34715,1.26623
294.10608,1.25583
293.86501,1.25555
293.62394,1.26197
293.38287,1.26891
293.14180,1.27024
292.90073,1.26574
292.65966,1.26099
292.41859,1.25820
292.17751,1.25354
291.93644,1.24544
291.69537,1.23820
291.45430,1.23483
291.21323,1.23227
290.97216,1.22809
290.73109,1.22804
290.49002,1.23769
290.24895,1.24975
290.00788,1.25037
289.76681,1.23701
289.52574,1.22023
289.28467,1.20924
289.04360,1.20526
288.80253,1.20586
288.56146,1.20886
288.32039,1.21255
288.07932,1.21642
287.83824,1.22004
287.59717,1.22136
287.35610,1.22040
287.11503,1.22089
286.87396,1.22339
286.63289,1.22233
286.39182,1.21472
286.15075,1.20540
285.90968,1.20053
285.66861,1.20151
285.42754,1.20587
285.18647,1.21023
284.94540,1.21199
284.70433,1.20997
284.46326,1.20501
284.22219,1.19944
283.98112,1.19491
283.74005,1.19143
283.49897,1.18979
283.25790,1.19329
283.01683,1.20313
282.77576,1.21309
282.53469,1.21452
282.29362,1.20762
282.05255,1.20172
281.81148,1.20329
281.57041,1.20933
281.32934,1.21225
281.08827,1.20731
280.84720,1.19663
280.60613,1.18808
280.36506,1.18928
280.12399,1.19961
279.88292,1.20924
279.64185,1.21056
279.40078,1.20778
279.15970,1.20851
278.91863,1.21212
278.67756,1.21351
278.43649,1.21324
278.19542,1.21575
277.95435,1.22075
277.71328,1.22307
277.47221,1.21923
277.23114,1.21037
276.99007,1.20066
276.74900,1.19471
276.50793,1.19436
276.26686,1.19673
276.02579,1.19733
275.78472,1.19594
275.54365,1.19601
275.30258,1.19840
275.06151,1.20018
274.82043,1.20025
274.57936,1.20195
274.33829,1.20778
274.09722,1.21610
273.85615,1.22421
273.61508,1.23066
273.37401,1.23380
273.13294,1.23178
272.89187,1.22556
272.65080,1.21997
272.40973,1.21946
272.16866,1.22327
271.92759,1.22610
271.68652,1.22427
271.44545,1.22070
271.20438,1.22177
270.96331,1.22927
270.72224,1.23752
270.48116,1.24039
270.24009,1.23885
269.99902,1.23830
269.75795,1.24150
269.51688,1.24752
269.27581,1.25464
269.03474,1.26094
268.79367,1.26422
268.55260,1.26396
268.31153,1.26252
268.07046,1.26314
267.82939,1.26834
267.58832,1.27833
267.34725,1.28888
267.10618,1.29528
266.86511,1.29858
266.62404,1.30413
266.38297,1.31507
266.14189,1.32876
265.90082,1.33854
265.65975,1.34024
265.41868,1.33637
265.17761,1.33273
264.93654,1.33466
264.69547,1.34600
264.45440,1.36644
264.21333,1.38837
263.97226,1.40196
263.73119,1.40587
263.49012,1.40776
263.24905,1.41473
263.00798,1.42859
262.76691,1.44782
262.52584,1.46775
262.28477,1.48315
262.04370,1.49362
261.80262,1.50222
261.56155,1.51148
261.32048,1.52827
261.07941,1.56379
260.83834,1.62047
260.59727,1.67876
260.35620,1.70972
260.11513,1.71047
259.87406,1.70483
259.63299,1.71463
259.39192,1.74673
259.15085,1.79038
258.90978,1.82255
258.66871,1.83684
258.42764,1.83858
258.18657,1.82277
257.94550,1.80166
257.70443,1.79986
257.46335,1.82618
257.22228,1.86565
256.98121,1.90404
256.74014,1.93902
256.49907,1.96656
256.25800,1.98108
256.01693,1.97665
255.77586,1.95241
255.53479,1.92679
255.29372,1.92001
255.05265,1.91890
254.81158,1.87902
254.57051,1.79434
254.32944,1.71996
254.08837,1.69499
253.84730,1.71258
253.60623,1.73158
253.36516,1.71394
253.12408,1.66787
252.88301,1.62668
252.64194,1.60420
252.40087,1.59698
252.15980,1.60225
251.91873,1.61329
251.67766,1.61738
251.43659,1.61768
251.19552,1.63113
250.95445,1.65905
250.71338,1.67712
250.47231,1.66857
250.23124,1.64856
249.99017,1.63606
249.74910,1.63094
249.50803,1.62770
249.26696,1.62781
249.02589,1.63335
248.78481,1.63999
248.54374,1.64030
248.30267,1.63144
248.06160,1.61426
247.82053,1.59270
247.57946,1.57694
247.33839,1.57741
247.09732,1.59433
246.85625,1.61839
246.61518,1.64252
246.37411,1.66785
246.13304,1.69103
245.89197,1.69792
245.65090,1.68507
245.40983,1.67279
245.16876,1.68292
244.92769,1.71577
244.68661,1.75225
244.44554,1.77577
244.20447,1.78786
243.96340,1.79844
243.72233,1.81710
243.48126,1.84665
243.24019,1.88987
242.99912,1.95965
242.75805,2.02970
242.51698,2.01831
242.27591,1.91752
242.03484,1.80500
241.79377,1.72405
241.55270,1.67072
241.31163,1.62763
241.07056,1.58090
240.82949,1.52796
240.58842,1.47664
240.34734,1.43281
240.10627,1.39594
239.86520,1.36205
239.62413,1.32789
239.38306,1.29308
239.14199,1.26011
238.90092,1.23158
238.65985,1.20690
238.41878,1.18372
238.17771,1.16260
237.93664,1.14578
237.69557,1.13185
237.45450,1.11598
237.21343,1.09607
236.97236,1.07478
236.73129,1.05629
236.49022,1.04419
236.24915,1.04017
236.00807,1.04103
235.76700,1.03988
235.52593,1.03235
235.28486,1.01981
235.04379,1.00638
234.80272,0.99468
234.56165,0.98469
234.32058,0.97614
234.07951,0.97087
233.83844,0.97033
233.59737,0.97153
233.35630,0.96928
233.11523,0.96290
232.87416,0.95610
232.63309,0.95080
232.39202,0.94578
232.15095,0.94009
231.90988,0.93391
231.66880,0.92722
231.42773,0.92004
231.18666,0.91358
230.94559,0.90955
230.70452,0.90769
230.46345,0.90598
230.22238,0.90424
229.98131,0.90509
229.74024,0.90922
229.49917,0.91239
229.25810,0.91024
229.01703,0.90344
228.77596,0.89436
228.53489,0.88368
228.29382,0.87470
228.05275,0.87396
227.81168,0.88213
227.57061,0.88934
227.32953,0.88613
227.08846,0.87587
226.84739,0.86847
226.60632,0.86799
226.36525,0.87089
226.12418,0.87307
225.88311,0.87459
225.64204,0.87726
225.40097,0.88044
225.15990,0.88196
224.91883,0.88223
224.67776,0.88332
224.43669,0.88480
224.19562,0.88412
223.95455,0.87991
223.71348,0.87323
223.47241,0.86735
223.23134,0.86620
222.99026,0.87047
222.74919,0.87625
222.50812,0.88028
222.26705,0.88420
222.02598,0.89158
221.78491,0.90387
221.54384,0.91921
221.30277,0.93325
221.06170,0.94254
220.82063,0.94760
220.57956,0.94981
220.33849,0.94880
220.09742,0.94580
219.85635,0.94519
219.61528,0.94916
219.37421,0.95565
219.13314,0.96327
218.89207,0.97376
218.65099,0.98752
218.40992,1.00114
218.16885,1.01216
217.92778,1.02239
217.68671,1.03346
217.44564,1.04429
217.20457,1.05552
216.96350,1.07019
216.72243,1.08855
216.48136,1.10823
216.24029,1.12841
215.99922,1.14711
215.75815,1.15880
215.51708,1.16238
215.27601,1.16393
215.03494,1.16837
214.79387,1.17656
214.55280,1.18931
214.31172,1.20626
214.07065,1.22270
213.82958,1.23359
213.58851,1.23822
213.34744,1.23818
213.10637,1.23617
212.86530,1.23634
212.62423,1.24042
212.38316,1.24612
212.14209,1.25172
211.90102,1.25733
211.65995,1.26096
211.41888,1.25966
211.17781,1.25494
210.93674,1.25134
210.69567,1.25138
210.45460,1.25452
210.21353,1.25944
209.97245,1.26553
209.73138,1.27315
209.49031,1.28328
209.24924,1.29434
209.00817,1.29774
208.76710,1.28563
208.52603,1.26405
208.28496,1.24637
208.04389,1.23954
207.80282,1.24112
207.56175,1.24295
207.32068,1.23819
207.07961,1.22809
206.83854,1.21957
206.59747,1.21464
206.35640,1.20670
206.11533,1.18931
205.87426,1.16617
205.63318,1.14726
205.39211,1.13787
205.15104,1.13637
204.90997,1.13824
204.66890,1.13814
204.42783,1.12937
204.18676,1.10787
203.94569,1.07862
203.70462,1.05341
203.46355,1.04079
203.22248,1.03954
202.98141,1.04045
202.74034,1.03295
202.49927,1.01387
202.25820,0.98922
202.01713,0.96626
201.77606,0.94864
201.53499,0.93764
201.29391,0.93254
201.05284,0.92999
200.81177,0.92513
200.57070,0.91408
200.32963,0.89687
200.08856,0.87761
199.84749,0.86147
199.60642,0.85156
199.36535,0.84798
199.12428,0.84776
198.88321,0.84458
198.64214,0.83247
198.40107,0.81334
198.16000,0.79598
197.91893,0.78650
197.67786,0.78360
197.43679,0.78221
197.19572,0.77820
196.95464,0.76961
196.71357,0.75718
196.47250,0.74457
196.23143,0.73577
195.99036,0.73168
195.74929,0.72916
195.50822,0.72284
195.26715,0.71053
195.02608,0.69700
194.78501,0.68893
194.54394,0.68749
194.30287,0.68712
194.06180,0.68210
193.82073,0.67354
193.57966,0.66683
193.33859,0.66455
193.09752,0.66372
192.85645,0.65933
192.61537,0.65091
192.37430,0.64290
192.13323,0.63816
191.89216,0.63553
191.65109,0.63336
191.41002,0.63097
191.16895,0.62706
190.92788,0.62102
190.68681,0.61529
190.44574,0.61254
190.20467,0.61172
189.96360,0.60960
189.72253,0.60532
189.48146,0.60103
189.24039,0.59873
188.99932,0.59834
188.75825,0.59800
188.51718,0.59610
188.27610,0.59354
188.03503,0.59260
187.79396,0.59310
187.55289,0.59251
187.31182,0.59062
187.07075,0.58988
186.82968,0.59096
186.58861,0.59143
186.34754,0.58903
186.10647,0.58532
185.86540,0.58398
185.62433,0.58533
185.38326,0.58535
185.14219,0.58216
184.90112,0.57979
184.66005,0.58168
184.41898,0.58533
184.17791,0.58743
183.93683,0.58890
183.69576,0.59089
183.45469,0.59153
183.21362,0.58999
182.97255,0.58891
182.73148,0.59036
182.49041,0.59371
182.24934,0.59788
182.00827,0.60210
181.76720,0.60477
181.52613,0.60492
181.28506,0.60423
181.04399,0.60482
180.80292,0.60590
180.56185,0.60528
180.32078,0.60333
180.07971,0.60345
179.83864,0.60791
179.59756,0.61466
179.35649,0.61994
179.11542,0.62338
178.87435,0.62768
178.63328,0.63425
178.39221,0.64223
178.15114,0.65034
177.91007,0.65847
177.66900,0.66827
177.42793,0.68132
177.18686,0.69598
176.94579,0.70902
176.70472,0.72072
176.46365,0.73360
176.22258,0.74739
175.98151,0.76060
175.74044,0.77456
175.49937,0.79097
175.25829,0.80930
175.01722,0.82898
174.77615,0.84986
174.53508,0.86991
174.29401,0.88713
174.05294,0.90258
173.81187,0.91807
173.57080,0.93213
173.32973,0.94214
173.08866,0.94954
172.84759,0.95839
172.60652,0.96890
172.36545,0.97684
172.12438,0.97946
171.88331,0.97803
171.64224,0.97555
171.40117,0.97475
171.16010,0.97610
170.91902,0.97777
170.67795,0.97913
170.43688,0.98098
170.19581,0.98070
169.95474,0.97428
169.71367,0.96344
169.47260,0.95260
169.23153,0.94205
168.99046,0.93012
168.74939,0.91823
168.50832,0.90933
168.26725,0.90462
168.02618,0.90382
167.78511,0.90672
167.54404,0.91331
167.30297,0.92207
167.06190,0.92945
166.82083,0.93258
166.57975,0.93200
166.33868,0.93090
166.09761,0.93198
165.85654,0.93518
165.61547,0.93806
165.37440,0.93876
165.13333,0.93814
164.89226,0.93874
164.65119,0.94290
164.41012,0.95184
164.16905,0.96489
163.92798,0.97910
163.68691,0.99106
163.44584,1.00021
163.20477,1.00895
162.96370,1.01900
162.72263,1.02908
162.48156,1.03665
162.24048,1.04127
161.99941,1.04491
161.75834,1.04853
161.51727,1.05165
161.27620,1.05377
161.03513,1.05396
160.79406,1.05153
160.55299,1.04722
160.31192,1.04212
160.07085,1.03578
159.82978,1.02795
159.58871,1.02064
159.34764,1.01411
159.10657,1.00514
158.86550,0.99224
158.62443,0.97896
158.38336,0.97084
158.14229,0.97101
157.90121,0.97756
157.66014,0.98355
157.41907,0.98183
157.17800,0.97144
156.93693,0.95708
156.69586,0.94410
156.45479,0.93589
156.21372,0.93300
155.97265,0.93300
155.73158,0.93229
155.49051,0.92876
155.24944,0.92259
155.00837,0.91522
154.76730,0.90765
154.52623,0.89944
154.28516,0.88941
154.04409,0.87743
153.80302,0.86423
153.56194,0.85023
153.32087,0.83595
153.07980,0.82184
152.83873,0.80709
152.59766,0.79050
152.35659,0.77242
152.11552,0.75479
151.87445,0.73975
151.63338,0.72835
151.39231,0.72007
151.15124,0.71274
150.91017,0.70275
150.66910,0.68722
150.42803,0.66757
150.18696,0.64928
149.94589,0.63667
149.70482,0.62930
149.46375,0.62369
149.22267,0.61680
148.98160,0.60746
148.74053,0.59602
148.49946,0.58416
148.25839,0.57458
148.01732,0.56971
147.77625,0.56937
147.53518,0.56979
147.29411,0.56681
147.05304,0.56068
146.81197,0.55586
146.57090,0.55588
146.32983,0.55985
146.08876,0.56422
145.84769,0.56719
145.60662,0.56990
145.36555,0.57379
145.12448,0.57877
144.88340,0.58400
144.64233,0.58893
144.40126,0.59349
144.16019,0.59795
143.91912,0.60237
143.67805,0.60577
143.43698,0.60622
143.19591,0.60242
142.95484,0.59530
142.71377,0.58727
142.47270,0.57990
142.23163,0.57278
141.99056,0.56434
141.74949,0.55392
141.50842,0.54324
141.26735,0.53507
141.02628,0.53038
140.78521,0.52740
140.54413,0.52423
140.30306,0.52083
140.06199,0.51751
139.82092,0.51403
139.57985,0.51108
139.33878,0.51120
139.09771,0.51616
138.85664,0.52447
138.61557,0.53334
138.37450,0.54243
138.13343,0.55279
137.89236,0.56342
137.65129,0.57230
137.41022,0.57986
137.16915,0.58876
136.92808,0.60058
136.68701,0.61530
136.44594,0.63320
136.20486,0.65472
135.96379,0.67816
135.72272,0.70040
135.48165,0.72119
135.24058,0.74430
134.99951,0.77209
134.75844,0.80262
134.51737,0.83399
134.27630,0.86725
134.03523,0.90236
133.79416,0.93662
133.55309,0.96837
133.31202,0.99744
133.07095,1.02321
132.82988,1.04630
132.58881,1.06802
132.34774,1.08763
132.10667,1.10563
131.86559,1.12319
131.62452,1.13533
131.38345,1.13680
131.14238,1.13231
130.90131,1.12927
130.66024,1.12616
130.41917,1.11776
130.17810,1.10411
129.93703,1.08627
129.69596,1.06174
129.45489,1.03005
129.21382,0.99660
128.97275,0.96579
128.73168,0.93522
128.49061,0.90124
128.24954,0.86498
128.00847,0.82935
127.76740,0.79531
127.52632,0.76338
127.28525,0.73448
127.04418,0.70801
126.80311,0.68217
126.56204,0.65637
126.32097,0.63183
126.07990,0.61037
125.83883,0.59324
125.59776,0.57996
125.35669,0.56850
125.11562,0.55724
124.87455,0.54604
124.63348,0.53532
124.39241,0.52518
124.15134,0.51551
123.91027,0.50610
123.66920,0.49644
123.42812,0.48618
123.18705,0.47627
122.94598,0.46860
122.70491,0.46355
122.46384,0.45954
122.22277,0.45588
121.98170,0.45374
121.74063,0.45338
121.49956,0.45321
121.25849,0.45274
121.01742,0.45372
120.77635,0.45777
120.53528,0.46503
120.29421,0.47515
120.05314,0.48810
119.81207,0.50365
119.57100,0.52122
119.32993,0.54068
119.08885,0.56234
118.84778,0.58614
118.60671,0.61144
118.36564,0.63821
118.12457,0.66742
117.88350,0.69934
117.64243,0.73111
117.40136,0.75751
117.16029,0.77571
116.91922,0.78866
116.67815,0.80072
116.43708,0.81085
116.19601,0.81378
115.95494,0.80748
115.71387,0.79556
115.47280,0.78288
115.23173,0.77174
114.99066,0.76163
114.74958,0.75080
114.50851,0.73788
114.26744,0.72264
114.02637,0.70658
113.78530,0.69266
113.54423,0.68294
113.30316,0.67636
113.06209,0.66965
112.82102,0.66110
112.57995,0.65327
112.33888,0.65068
112.09781,0.65487
111.85674,0.66444
111.61567,0.67912
111.37460,0.69943
111.13353,0.72196
110.89246,0.73983
110.65139,0.74928
110.41031,0.75141
110.16924,0.74785
109.92817,0.73901
109.68710,0.72533
109.44603,0.70706
109.20496,0.68505
108.96389,0.66138
108.72282,0.63683
108.48175,0.61037
108.24068,0.58321
107.99961,0.56044
107.75854,0.54661
107.51747,0.54109
107.27640,0.53783
107.03533,0.52937
106.79426,0.51230
106.55319,0.48924
106.31212,0.46580
106.07104,0.44593
105.82997,0.43038
105.58890,0.41859
105.34783,0.41077
105.10676,0.40749
104.86569,0.40800
104.62462,0.40928
104.38355,0.40657
104.14248,0.39621
103.90141,0.37954
103.66034,0.36177
103.41927,0.34682
103.17820,0.33597
102.93713,0.32976
102.69606,0.32846
102.45499,0.33077
102.21392,0.33298
101.97285,0.33018
101.73177,0.32010
101.49070,0.30599
101.24963,0.29365
101.00856,0.28630
100.76749,0.28348
100.52642,0.28353
100.28535,0.28497
100.04428,0.28487
99.80321,0.27936
99.56214,0.26923
99.32107,0.26122
99.08000,0.26092
98.83893,0.26713
98.59786,0.27301
98.35679,0.27197
98.11572,0.26392
97.87465,0.25500
97.63358,0.25166
97.39250,0.25631
97.15143,0.26614
96.91036,0.27446
96.66929,0.27620
96.42822,0.27397
96.18715,0.27494
95.94608,0.28318
95.70501,0.29621
95.46394,0.30613
95.22287,0.30744
94.98180,0.30496
94.74073,0.30859
94.49966,0.32077
94.25859,0.33165
94.01752,0.33162
93.77645,0.32660
93.53538,0.32773
93.29431,0.33461
93.05323,0.33686
92.81216,0.33122
92.57109,0.32670
92.33002,0.32772
92.08895,0.32777
91.84788,0.32232
91.60681,0.31872
91.36574,0.32566
91.12467,0.34176
90.88360,0.35989
90.64253,0.37886
90.40146,0.40249
90.16039,0.43027
89.91932,0.46060
89.67825,0.49677
89.43718,0.53796
89.19611,0.57561
88.95504,0.61077
88.71396,0.65374
88.47289,0.69669
88.23182,0.71614
87.99075,0.70731
87.74968,0.68313
87.50861,0.65006
87.26754,0.60980
87.02647,0.56788
86.78540,0.52913
86.54433,0.49565
86.30326,0.46742
86.06219,0.44093
85.82112,0.41284
85.58005,0.38592
85.33898,0.36468
85.09791,0.34841
84.85684,0.33264
84.61577,0.31560
84.37469,0.29943
84.13362,0.28559
83.89255,0.27359
83.65148,0.26394
83.41041,0.25736
83.16934,0.25174
82.92827,0.24458
82.68720,0.23701
82.44613,0.23094
82.20506,0.22557
81.96399,0.21981
81.72292,0.21474
81.48185,0.21138
81.24078,0.20925
80.99971,0.20745
80.75864,0.20538
80.51757,0.20289
80.27650,0.20026
80.03542,0.19763
79.79435,0.19505
79.55328,0.19286
79.31221,0.19109
79.07114,0.18909
78.83007,0.18673
78.58900,0.18470
78.34793,0.18316
78.10686,0.18082
77.86579,0.17595
77.62472,0.16876
77.38365,0.16238
77.14258,0.16030
76.90151,0.16267
76.66044,0.16594
76.41937,0.16664
76.17830,0.16533
75.93723,0.16566
75.69615,0.16837
75.45508,0.16890
75.21401,0.16362
74.97294,0.15614
74.73187,0.15301
74.49080,0.15587
74.24973,0.16051
74.00866,0.16208
73.76759,0.16025
73.52652,0.15848
73.28545,0.15925
73.04438,0.16214
72.80331,0.16508
72.56224,0.16550
72.32117,0.16179
72.08010,0.15591
71.83903,0.15311
71.59796,0.15729
71.35688,0.16710
71.11581,0.17725
70.87474,0.18270
70.63367,0.18196
70.39260,0.17764
70.15153,0.17432
69.91046,0.17589
69.66939,0.18428
69.42832,0.19946
69.18725,0.21938
68.94618,0.23910
68.70511,0.25124
68.46404,0.24942
68.22297,0.23321
67.98190,0.20896
67.74083,0.18484
67.49976,0.16567
67.25869,0.15209
67.01761,0.14264
66.77654,0.13557
66.53547,0.13011
66.29440,0.12697
66.05333,0.12726
65.81226,0.13059
65.57119,0.13525
65.33012,0.14071
65.08905,0.14923
64.84798,0.16334
64.60691,0.18169
64.36584,0.19887
64.12477,0.21024
63.88370,0.21532
63.64263,0.21593
63.40156,0.21289
63.16049,0.20598
62.91942,0.19560
62.67834,0.18312
62.43727,0.17021
62.19620,0.15869
61.95513,0.14975
61.71406,0.14251
61.47299,0.13469
61.23192,0.12605
60.99085,0.11945
60.74978,0.11745
60.50871,0.11938
60.26764,0.12246
60.02657,0.12456
59.78550,0.12522
59.54443,0.12512
59.30336,0.12501
59.06229,0.12445
58.82122,0.12162
58.58015,0.11565
58.33907,0.10897
58.09800,0.10598
57.85693,0.10979
57.61586,0.12026
57.37479,0.13434
57.13372,0.14827
56.89265,0.16050
56.65158,0.17193
56.41051,0.18313
56.16944,0.19211
55.92837,0.19592
55.68730,0.19368
55.44623,0.18561
55.20516,0.16972
54.96409,0.14535
54.72302,0.11810
54.48195,0.09551
54.24088,0.08123
53.99980,0.07537
53.75873,0.07804
53.51766,0.09163
53.27659,0.11928
53.03552,0.15970
52.79445,0.20005
52.55338,0.21619
52.31231,0.19699
52.07124,0.15679
51.83017,0.11254
51.58910,0.07813
51.34803,0.06489
51.10696,0.07836
50.86589,0.11945
50.62482,0.18198
50.38375,0.22604
50.14268,0.19092
49.90161,0.12050
49.66053,0.07440
49.41946,0.06626
49.17839,0.09424
48.93732,0.14966
48.69625,0.18181
48.45518,0.13325
48.21411,0.06828
47.97304,0.04475
47.73197,0.07945
47.49090,0.15326
47.24983,0.17106
47.00876,0.10877
46.76769,0.07136
46.52662,0.08919
46.28555,0.11998
46.04448,0.10563
45.80341,0.07752
45.56234,0.08701
45.32126,0.12316
45.08019,0.13611
44.83912,0.12793
44.59805,0.13561
44.35698,0.14575
44.11591,0.13199
43.87484,0.11447
43.63377,0.10783
43.39270,0.09940
43.15163,0.08957
42.91056,0.09174
42.66949,0.10143
42.42842,0.10496
42.18735,0.10635
41.94628,0.11211
41.70521,0.11838
41.46414,0.12074
41.22307,0.11848
40.98199,0.11334
40.74092,0.10990
40.49985,0.11129
40.25878,0.11546
40.01771,0.11975
39.77664,0.12641
39.53557,0.13751
39.29450,0.14364
39.05343,0.13262
38.81236,0.11723
38.57129,0.12267
38.33022,0.15026
38.08915,0.17343
37.84808,0.17570
37.60701,0.17112
37.36594,0.17559
37.12487,0.18755
36.88380,0.19690
36.64272,0.19862
36.40165,0.19599
36.16058,0.19038
35.91951,0.17751
35.67844,0.16328
35.43737,0.16445
35.19630,0.18332
34.95523,0.19924
34.71416,0.19778
34.47309,0.18907
34.23202,0.18503
33.99095,0.18174
33.74988,0.17061
33.50881,0.15399
33.26774,0.14356
33.02667,0.14546
32.78560,0.15802
32.54453,0.17761
32.30345,0.19663
32.06238,0.20472
31.82131,0.19354
31.58024,0.16394
31.33917,0.12988
31.09810,0.10631
30.85703,0.09430
30.61596,0.08621
30.37489,0.07852
30.13382,0.07300
29.89275,0.06681
29.65168,0.05263
29.41061,0.03379
29.16954,0.02104
28.92847,0.02002
28.68740,0.02489
28.44633,0.01828
28.20526,-0.00865
27.96418,-0.04345
27.72311,-0.07288
27.48204,-0.09217
27.24097,-0.09362
26.99990,-0.07403
26.75883,-0.04750
26.51776,-0.03267
26.27669,-0.03588
26.03562,-0.04587
25.79455,-0.04429
25.55348,-0.02437
25.31241,0.00211
25.07134,0.01343
24.83027,-0.00629
24.58920,-0.04742
24.34813,-0.08012
24.10706,-0.08788
23.86599,-0.08173
23.62491,-0.07669
23.38384,-0.07751
23.14277,-0.08793
22.90170,-0.11529
22.66063,-0.15874
22.41956,-0.20103
22.17849,-0.21893
21.93742,-0.20872
21.69635,-0.19444
21.45528,-0.19474
21.21421,-0.20751
20.97314,-0.21453
20.73207,-0.20563
20.49100,-0.19451
20.24993,-0.19396
20.00886,-0.19940
19.76779,-0.20352
19.52672,-0.21451
19.28564,-0.24287
19.04457,-0.28063
18.80350,-0.30651
18.56243,-0.29595
18.32136,-0.24852
18.08029,-0.20082
17.83922,-0.18526
17.59815,-0.20313
17.35708,-0.24625
17.11601,-0.31233
16.87494,-0.37515
16.63387,-0.38849
16.39280,-0.35627
16.15173,-0.31922
15.91066,-0.30553
15.66959,-0.31335
15.42852,-0.33143
15.18745,-0.34621
14.94637,-0.34084
14.70530,-0.32003
14.46423,-0.30741
14.22316,-0.31627
13.98209,-0.32970
13.74102,-0.31679
13.49995,-0.27991
13.25888,-0.25681
13.01781,-0.26042
12.77674,-0.26527
12.53567,-0.26423
12.29460,-0.26831
12.05353,-0.27446
11.81246,-0.27407
11.57139,-0.25867
11.33032,-0.24792
11.08925,-0.26328
10.84818,-0.28967
10.60710,-0.31060
10.36603,-0.33173
10.12496,-0.35355
9.88389,-0.36462
9.64282,-0.38279
9.40175,-0.40186
9.16068,-0.40508
8.91961,-0.38316
8.67854,-0.35173
8.43747,-0.33027
8.19640,-0.32164
7.95533,-0.32321
7.71426,-0.33408
7.47319,-0.34650
7.23212,-0.35393
6.99105,-0.34261
6.74998,-0.29845
6.50891,-0.25461
6.26783,-0.23314
6.02676,-0.24435
5.78569,-0.28814
5.54462,-0.33714
5.30355,-0.35400
5.06248,-0.34617
4.82141,-0.33838
4.58034,-0.34853
4.33927,-0.37068
4.09820,-0.37558
3.85713,-0.35582
3.61606,-0.33119
3.37499,-0.31228
3.13392,-0.30732
2.89285,-0.32278
2.65178,-0.34869
2.41071,-0.36933
2.16964,-0.37814
1.92856,-0.36840
1.68749,-0.34156
1.44642,-0.31408
1.20535,-0.29113
0.96428,-0.27070
0.72321,-0.28396
0.48214,-0.33723
0.24107,-0.34705
-0.00000,-0.19230
