399.69498,1.64633
399.45391,1.68129
399.21284,1.69911
398.97177,1.69016
398.73070,1.68051
398.48963,1.70183
398.24856,1.76114
398.00749,1.80890
397.76642,1.78592
397.52535,1.72391
397.28428,1.67124
397.04321,1.64558
396.80214,1.64645
396.56107,1.64044
396.32000,1.60918
396.07892,1.58302
395.83785,1.57883
395.59678,1.58453
395.35571,1.58693
395.11464,1.58888
394.87357,1.59468
394.63250,1.59713
394.39143,1.59199
394.15036,1.58158
393.90929,1.57433
393.66822,1.58224
393.42715,1.60379
393.18608,1.62064
392.94501,1.62111
392.70394,1.60998
392.46287,1.59928
392.22180,1.59183
391.98073,1.58464
391.73965,1.58809
391.49858,1.60767
391.25751,1.62293
391.01644,1.60838
390.77537,1.57282
390.53430,1.54514
390.29323,1.53996
390.05216,1.55802
389.81109,1.58392
389.57002,1.59068
389.32895,1.56770
389.08788,1.53665
388.84681,1.51656
388.60574,1.50911
388.36467,1.50732
388.12360,1.50787
387.88253,1.52026
387.64146,1.55016
387.40038,1.58930
387.15931,1.63814
386.91824,1.70826
386.67717,1.72547
386.43610,1.64992
386.19503,1.59085
385.95396,1.55497
385.71289,1.51622
385.47182,1.47666
385.23075,1.46060
384.98968,1.47935
384.74861,1.51835
384.50754,1.54362
384.26647,1.53445
384.02540,1.50661
383.78433,1.48357
383.54326,1.46721
383.30219,1.44580
383.06111,1.41803
382.82004,1.39835
382.57897,1.39754
382.33790,1.40126
382.09683,1.39001
381.85576,1.37185
381.61469,1.36701
381.37362,1.37731
381.13255,1.38862
380.89148,1.39505
380.65041,1.40358
380.40934,1.41223
380.16827,1.41795
379.92720,1.43246
379.68613,1.44531
379.44506,1.43161
379.20399,1.39545
378.96292,1.36975
378.72184,1.37460
378.48077,1.40098
378.23970,1.41921
377.99863,1.41093
377.75756,1.39035
377.51649,1.36941
377.27542,1.35317
377.03435,1.35397
376.79328,1.38431
376.55221,1.44281
376.31114,1.49577
376.07007,1.50582
375.82900,1.50154
375.58793,1.52397
375.34686,1.57654
375.10579,1.62754
374.86472,1.64091
374.62365,1.63059
374.38257,1.62841
374.14150,1.62934
373.90043,1.60318
373.65936,1.55651
373.41829,1.52191
373.17722,1.51206
372.93615,1.52225
372.69508,1.53899
372.45401,1.53799
372.21294,1.51368
371.97187,1.47777
371.73080,1.44596
371.48973,1.42545
371.24866,1.41928
371.00759,1.43319
370.76652,1.47429
370.52545,1.54116
370.28437,1.61188
370.04330,1.65367
369.80223,1.63724
369.56116,1.56412
369.32009,1.48653
369.07902,1.45020
368.83795,1.45957
368.59688,1.48765
368.35581,1.50473
368.11474,1.50004
367.87367,1.48380
367.63260,1.47435
367.39153,1.48153
367.15046,1.50069
366.90939,1.50933
366.66832,1.49475
366.42725,1.47640
366.18618,1.47090
365.94510,1.46911
365.70403,1.45115
365.46296,1.42410
365.22189,1.41258
364.98082,1.42027
364.73975,1.43101
364.49868,1.43085
364.25761,1.41674
364.01654,1.39932
363.77547,1.39171
363.53440,1.39281
363.29333,1.40271
363.05226,1.42500
362.81119,1.45003
362.57012,1.45947
362.32905,1.44211
362.08798,1.41322
361.84691,1.40383
361.60583,1.41816
361.36476,1.43405
361.12369,1.43942
360.88262,1.43798
360.64155,1.42591
360.40048,1.40083
360.15941,1.37526
359.91834,1.36438
359.67727,1.37253
359.43620,1.38693
359.19513,1.39159
358.95406,1.38417
358.71299,1.37600
358.47192,1.37826
358.23085,1.38999
357.98978,1.40036
357.74871,1.40584
357.50764,1.41265
357.26656,1.41769
357.02549,1.41421
356.78442,1.40423
356.54335,1.39216
356.30228,1.38168
356.06121,1.37402
355.82014,1.36317
355.57907,1.34966
355.33800,1.34303
355.09693,1.34279
354.85586,1.34685
354.61479,1.36451
354.37372,1.39381
354.13265,1.41211
353.89158,1.40236
353.65051,1.37440
353.40944,1.35321
353.16837,1.35328
352.92729,1.37364
352.68622,1.39477
352.44515,1.39681
352.20408,1.38070
351.96301,1.35257
351.72194,1.32521
351.48087,1.31626
351.23980,1.33719
350.99873,1.38036
350.75766,1.41931
350.51659,1.43001
350.27552,1.40912
350.03445,1.37754
349.79338,1.36128
349.55231,1.37181
349.31124,1.40319
349.07017,1.43606
348.82910,1.44984
348.58802,1.44165
348.34695,1.43155
348.10588,1.43555
347.86481,1.45001
347.62374,1.45276
347.38267,1.42664
347.14160,1.39271
346.90053,1.38697
346.65946,1.41234
346.41839,1.43830
346.17732,1.43924
345.93625,1.42515
345.69518,1.42046
345.45411,1.42973
345.21304,1.44088
344.97197,1.44798
344.73090,1.45725
344.48983,1.47799
344.24875,1.50262
344.00768,1.50819
343.76661,1.49590
343.52554,1.49440
343.28447,1.51242
343.04340,1.51689
342.80233,1.49031
342.56126,1.46501
342.32019,1.46530
342.07912,1.47423
341.83805,1.46476
341.59698,1.44516
341.35591,1.44852
341.11484,1.49150
340.87377,1.54947
340.63270,1.57485
340.39163,1.55430
340.15056,1.51885
339.90948,1.49438
339.66841,1.48206
339.42734,1.48070
339.18627,1.49332
338.94520,1.51802
338.70413,1.54647
338.46306,1.56225
338.22199,1.54050
337.98092,1.48828
337.73985,1.45864
337.49878,1.48805
337.25771,1.55092
337.01664,1.58164
336.77557,1.57787
336.53450,1.59941
336.29343,1.63990
336.05236,1.62497
335.81129,1.56241
335.57021,1.51844
335.32914,1.50856
335.08807,1.50191
334.84700,1.49229
334.60593,1.49747
334.36486,1.51755
334.12379,1.53488
333.88272,1.53273
333.64165,1.52225
333.40058,1.52801
333.15951,1.54256
332.91844,1.53269
332.67737,1.49366
332.43630,1.45816
332.19523,1.45280
331.95416,1.47478
331.71309,1.50098
331.47202,1.50467
331.23094,1.47581
330.98987,1.44039
330.74880,1.42044
330.50773,1.41712
330.26666,1.42155
330.02559,1.43353
329.78452,1.44766
329.54345,1.43357
329.30238,1.39793
329.06131,1.37372
328.82024,1.36561
328.57917,1.36829
328.33810,1.39646
328.09703,1.44350
327.85596,1.45800
327.61489,1.43633
327.37382,1.41372
327.13275,1.40836
326.89167,1.41866
326.65060,1.44198
326.40953,1.47781
326.16846,1.48982
325.92739,1.45849
325.68632,1.42998
325.44525,1.42535
325.20418,1.42986
324.96311,1.43713
324.72204,1.44504
324.48097,1.44465
324.23990,1.43170
323.99883,1.40620
323.75776,1.39167
323.51669,1.40950
323.27562,1.45643
323.03455,1.51788
322.79348,1.56850
322.55240,1.58014
322.31133,1.55557
322.07026,1.52211
321.82919,1.51315
321.58812,1.51236
321.34705,1.46123
321.10598,1.38626
320.86491,1.34924
320.62384,1.34826
320.38277,1.36449
320.14170,1.39434
319.90063,1.42876
319.65956,1.43112
319.41849,1.41556
319.17742,1.43081
318.93635,1.46831
318.69528,1.48275
318.45421,1.45909
318.21313,1.43199
317.97206,1.42932
317.73099,1.44533
317.48992,1.46420
317.24885,1.48359
317.00778,1.49277
316.76671,1.48890
316.52564,1.49020
316.28457,1.48377
316.04350,1.48555
315.80243,1.51299
315.56136,1.52901
315.32029,1.49215
315.07922,1.46774
314.83815,1.48963
314.59708,1.53049
314.35601,1.55146
314.11494,1.53036
313.87386,1.47638
313.63279,1.42351
313.39172,1.40063
313.15065,1.41642
312.90958,1.45310
312.66851,1.48053
312.42744,1.49640
312.18637,1.47756
311.94530,1.43682
311.70423,1.42676
311.46316,1.44089
311.22209,1.43396
310.98102,1.42363
310.73995,1.45612
310.49888,1.53140
310.25781,1.60008
310.01674,1.60521
309.77567,1.57311
309.53459,1.58353
309.29352,1.63152
309.05245,1.64505
308.81138,1.59232
308.57031,1.52862
308.32924,1.50721
308.08817,1.53414
307.84710,1.57771
307.60603,1.59455
307.36496,1.57865
307.12389,1.56452
306.88282,1.57446
306.64175,1.60454
306.40068,1.63493
306.15961,1.62836
305.91854,1.56751
305.67747,1.50130
305.43640,1.47143
305.19532,1.47860
304.95425,1.49886
304.71318,1.49825
304.47211,1.47740
304.23104,1.47086
303.98997,1.48928
303.74890,1.49550
303.50783,1.45951
303.26676,1.42585
303.02569,1.42447
302.78462,1.44170
302.54355,1.45353
302.30248,1.44637
302.06141,1.43722
301.82034,1.44365
301.57927,1.45532
301.33820,1.44987
301.09713,1.42313
300.85605,1.39542
300.61498,1.38686
300.37391,1.39996
300.13284,1.42562
299.89177,1.45183
299.65070,1.46675
299.40963,1.46380
299.16856,1.45275
298.92749,1.45290
298.68642,1.46261
298.44535,1.45570
298.20428,1.42300
297.96321,1.38745
297.72214,1.36588
297.48107,1.35416
297.24000,1.34199
296.99893,1.33248
296.75786,1.34051
296.51678,1.36856
296.27571,1.39275
296.03464,1.38693
295.79357,1.36135
295.55250,1.34354
295.31143,1.33917
295.07036,1.33436
294.82929,1.31744
294.58822,1.29399
294.34715,1.27943
294.10608,1.27924
293.86501,1.28114
293.62394,1.27693
293.38287,1.27522
293.14180,1.28514
292.90073,1.30552
292.65966,1.32537
292.41859,1.34004
292.17751,1.35025
291.93644,1.34932
291.69537,1.33014
291.45430,1.30013
291.21323,1.27432
290.97216,1.26099
290.73109,1.26111
290.49002,1.27079
290.24895,1.28217
290.00788,1.28880
289.76681,1.29192
289.52574,1.29705
289.28467,1.30358
289.04360,1.30518
288.80253,1.30131
288.56146,1.29558
288.32039,1.28539
288.07932,1.26721
287.83824,1.24641
287.59717,1.23405
287.35610,1.23275
287.11503,1.23339
286.87396,1.22662
286.63289,1.21509
286.39182,1.20983
286.15075,1.21447
285.90968,1.22210
285.66861,1.22916
285.42754,1.23740
285.18647,1.24095
284.94540,1.23279
284.70433,1.22123
284.46326,1.22026
284.22219,1.22875
283.98112,1.23376
283.74005,1.23098
283.49897,1.22906
283.25790,1.23454
283.01683,1.24280
282.77576,1.24485
282.53469,1.23884
282.29362,1.23047
282.05255,1.22494
281.81148,1.22434
281.57041,1.22889
281.32934,1.23511
281.08827,1.23682
280.84720,1.23347
280.60613,1.23058
280.36506,1.22911
280.12399,1.22608
279.88292,1.22343
279.64185,1.22499
279.40078,1.22928
279.15970,1.23441
278.91863,1.24449
278.67756,1.26147
278.43649,1.27729
278.19542,1.28001
277.95435,1.26453
277.71328,1.24204
277.47221,1.22961
277.23114,1.23189
276.99007,1.23771
276.74900,1.23665
276.50793,1.23545
276.26686,1.24303
276.02579,1.25096
275.78472,1.24869
275.54365,1.24333
275.30258,1.24579
275.06151,1.25251
274.82043,1.25209
274.57936,1.24065
274.33829,1.22363
274.09722,1.20890
273.85615,1.20335
273.61508,1.21012
273.37401,1.22375
273.13294,1.23268
272.89187,1.23096
272.65080,1.22481
272.40973,1.22205
272.16866,1.22274
271.92759,1.22381
271.68652,1.22352
271.44545,1.22205
271.20438,1.22105
270.96331,1.22153
270.72224,1.22331
270.48116,1.22768
270.24009,1.23881
269.99902,1.25787
269.75795,1.27848
269.51688,1.29314
269.27581,1.29964
269.03474,1.29941
268.79367,1.29596
268.55260,1.29405
268.31153,1.29634
268.07046,1.30346
267.82939,1.31674
267.58832,1.33459
267.34725,1.34978
267.10618,1.35778
266.86511,1.36095
266.62404,1.36088
266.38297,1.35631
266.14189,1.34890
265.90082,1.34326
265.65975,1.34184
265.41868,1.34366
265.17761,1.34514
264.93654,1.34203
264.69547,1.33570
264.45440,1.33457
264.21333,1.34626
263.97226,1.37269
263.73119,1.40894
263.49012,1.44246
263.24905,1.45815
263.00798,1.45251
262.76691,1.44362
262.52584,1.45306
262.28477,1.48159
262.04370,1.51339
261.80262,1.54260
261.56155,1.57478
261.32048,1.60824
261.07941,1.62929
260.83834,1.63090
260.59727,1.62607
260.35620,1.62948
260.11513,1.64972
259.87406,1.68260
259.63299,1.71625
259.39192,1.74684
259.15085,1.77464
258.90978,1.79393
258.66871,1.81329
258.42764,1.84846
258.18657,1.91626
257.94550,2.03176
257.70443,2.18889
257.46335,2.35208
257.22228,2.44601
256.98121,2.35248
256.74014,2.12678
256.49907,2.01644
256.25800,2.00157
256.01693,1.99869
255.77586,1.95103
255.53479,1.86976
255.29372,1.81267
255.05265,1.81278
254.81158,1.85250
254.57051,1.88441
254.32944,1.89675
254.08837,1.89801
253.84730,1.87958
253.60623,1.85024
253.36516,1.84208
253.12408,1.85599
252.88301,1.85057
252.64194,1.81437
252.40087,1.77225
252.15980,1.73976
251.91873,1.72646
251.67766,1.73272
251.43659,1.76245
251.19552,1.79280
250.95445,1.73895
250.71338,1.67765
250.47231,1.65037
250.23124,1.65102
249.99017,1.66724
249.74910,1.69004
249.50803,1.71614
249.26696,1.74956
249.02589,1.79148
248.78481,1.82958
248.54374,1.85277
248.30267,1.87029
248.06160,1.88879
247.82053,1.87014
247.57946,1.83360
247.33839,1.78892
247.09732,1.71114
246.85625,1.63190
246.61518,1.58917
246.37411,1.59732
246.13304,1.64969
245.89197,1.72513
245.65090,1.80979
245.40983,1.90124
245.16876,1.98660
244.92769,2.06470
244.68661,2.19778
244.44554,2.38823
244.20447,2.28852
243.96340,2.14105
243.72233,2.09573
243.48126,2.04207
243.24019,1.97989
242.99912,1.93545
242.75805,1.91218
242.51698,1.89526
242.27591,1.87068
242.03484,1.83071
241.79377,1.77264
241.55270,1.71060
241.31163,1.66269
241.07056,1.62174
240.82949,1.56402
240.58842,1.48277
240.34734,1.40468
240.10627,1.35275
239.86520,1.32495
239.62413,1.30598
239.38306,1.28315
239.14199,1.25228
238.90092,1.22103
238.65985,1.19963
238.41878,1.18502
238.17771,1.16651
237.93664,1.14427
237.69557,1.12392
237.45450,1.10476
237.21343,1.08441
236.97236,1.06717
236.73129,1.05975
236.49022,1.06027
236.24915,1.05690
236.00807,1.03966
235.76700,1.01279
235.52593,0.99127
235.28486,0.98460
235.04379,0.98789
234.80272,0.99010
234.56165,0.98646
234.32058,0.97870
234.07951,0.96933
233.83844,0.95973
233.59737,0.95130
233.35630,0.94674
233.11523,0.94737
232.87416,0.95014
232.63309,0.95122
232.39202,0.95231
232.15095,0.95642
231.90988,0.95828
231.66880,0.95059
231.42773,0.93839
231.18666,0.93376
230.94559,0.93987
230.70452,0.94960
230.46345,0.95393
230.22238,0.94629
229.98131,0.92694
229.74024,0.90622
229.49917,0.89249
229.25810,0.88439
229.01703,0.88039
228.77596,0.88376
228.53489,0.89373
228.29382,0.90133
228.05275,0.90041
227.81168,0.89440
227.57061,0.88949
227.32953,0.88999
227.08846,0.89758
226.84739,0.90852
226.60632,0.91541
226.36525,0.91529
226.12418,0.91096
225.88311,0.90330
225.64204,0.89138
225.40097,0.88047
225.15990,0.87863
224.91883,0.88458
224.67776,0.89026
224.43669,0.89346
224.19562,0.89634
223.95455,0.89538
223.71348,0.88692
223.47241,0.87793
223.23134,0.87850
222.99026,0.88898
222.74919,0.90094
222.50812,0.90702
222.26705,0.90730
222.02598,0.90802
221.78491,0.91498
221.54384,0.92886
221.30277,0.94533
221.06170,0.95731
220.82063,0.95877
220.57956,0.95063
220.33849,0.94096
220.09742,0.93697
219.85635,0.94076
219.61528,0.95159
219.37421,0.96556
219.13314,0.97606
218.89207,0.98240
218.65099,0.99061
218.40992,1.00660
218.16885,1.03192
217.92778,1.06041
217.68671,1.07987
217.44564,1.08158
217.20457,1.06948
216.96350,1.05772
216.72243,1.06002
216.48136,1.08245
216.24029,1.12069
215.99922,1.15840
215.75815,1.17243
215.51708,1.16048
215.27601,1.14713
215.03494,1.15226
214.79387,1.17814
214.55280,1.21413
214.31172,1.23690
214.07065,1.22645
213.82958,1.20179
213.58851,1.19758
213.34744,1.22506
213.10637,1.26585
212.86530,1.28469
212.62423,1.26546
212.38316,1.23357
212.14209,1.22305
211.90102,1.24512
211.65995,1.28607
211.41888,1.31580
211.17781,1.31013
210.93674,1.28256
210.69567,1.26297
210.45460,1.26407
210.21353,1.27808
209.97245,1.27592
209.73138,1.24858
209.49031,1.22861
209.24924,1.23321
209.00817,1.24966
208.76710,1.25739
208.52603,1.24454
208.28496,1.22315
208.04389,1.21937
207.80282,1.23982
207.56175,1.26789
207.32068,1.28254
207.07961,1.27172
206.83854,1.24232
206.59747,1.21636
206.35640,1.20659
206.11533,1.21137
205.87426,1.21169
205.63318,1.18669
205.39211,1.15120
205.15104,1.13178
204.90997,1.13005
204.66890,1.12331
204.42783,1.09414
204.18676,1.05815
203.94569,1.03927
203.70462,1.04125
203.46355,1.04717
203.22248,1.04001
202.98141,1.02286
202.74034,1.00772
202.49927,0.99860
202.25820,0.99067
202.01713,0.97752
201.77606,0.95914
201.53499,0.94239
201.29391,0.93274
201.05284,0.92702
200.81177,0.91681
200.57070,0.89945
200.32963,0.88193
200.08856,0.87300
199.84749,0.87403
199.60642,0.87520
199.36535,0.86383
199.12428,0.84247
198.88321,0.82655
198.64214,0.82333
198.40107,0.82363
198.16000,0.81448
197.91893,0.79879
197.67786,0.78921
197.43679,0.78791
197.19572,0.78421
196.95464,0.76918
196.71357,0.75001
196.47250,0.73978
196.23143,0.73827
195.99036,0.73247
195.74929,0.71886
195.50822,0.70939
195.26715,0.70979
195.02608,0.71011
194.78501,0.70104
194.54394,0.68949
194.30287,0.68507
194.06180,0.68548
193.82073,0.68394
193.57966,0.68169
193.33859,0.68281
193.09752,0.68321
192.85645,0.67682
192.61537,0.66638
192.37430,0.65836
192.13323,0.65313
191.89216,0.64789
191.65109,0.64273
191.41002,0.63729
191.16895,0.62912
190.92788,0.61978
190.68681,0.61528
190.44574,0.61749
190.20467,0.62128
189.96360,0.62245
189.72253,0.62321
189.48146,0.62591
189.24039,0.62708
188.99932,0.62185
188.75825,0.61282
188.51718,0.60713
188.27610,0.60614
188.03503,0.60462
187.79396,0.60023
187.55289,0.59617
187.31182,0.59443
187.07075,0.59456
186.82968,0.59802
186.58861,0.60581
186.34754,0.61375
186.10647,0.61678
185.86540,0.61375
185.62433,0.60524
185.38326,0.59464
185.14219,0.58900
184.90112,0.59129
184.66005,0.59726
184.41898,0.60305
184.17791,0.60896
183.93683,0.61359
183.69576,0.61451
183.45469,0.61510
183.21362,0.61877
182.97255,0.62109
182.73148,0.61785
182.49041,0.61219
182.24934,0.60791
182.00827,0.60560
181.76720,0.60546
181.52613,0.60755
181.28506,0.61068
181.04399,0.61438
180.80292,0.61948
180.56185,0.62535
180.32078,0.62888
180.07971,0.62771
179.83864,0.62353
179.59756,0.62063
179.35649,0.62197
179.11542,0.62815
178.87435,0.63844
178.63328,0.64979
178.39221,0.65740
178.15114,0.66026
177.91007,0.66223
177.66900,0.66662
177.42793,0.67490
177.18686,0.68795
176.94579,0.70534
176.70472,0.72608
176.46365,0.75039
176.22258,0.77602
175.98151,0.79431
175.74044,0.79878
175.49937,0.79549
175.25829,0.79661
175.01722,0.80911
174.77615,0.83295
174.53508,0.86339
174.29401,0.89247
174.05294,0.91190
173.81187,0.91663
173.57080,0.91062
173.32973,0.90621
173.08866,0.91274
172.84759,0.92935
172.60652,0.94868
172.36545,0.96473
172.12438,0.97553
171.88331,0.97967
171.64224,0.97561
171.40117,0.96656
171.16010,0.96013
170.91902,0.95981
170.67795,0.96357
170.43688,0.96956
170.19581,0.97512
169.95474,0.97455
169.71367,0.96540
169.47260,0.95163
169.23153,0.93747
168.99046,0.92459
168.74939,0.91499
168.50832,0.91123
168.26725,0.91228
168.02618,0.91298
167.78511,0.90984
167.54404,0.90568
167.30297,0.90765
167.06190,0.92048
166.82083,0.93813
166.57975,0.94517
166.33868,0.93369
166.09761,0.91379
165.85654,0.90092
165.61547,0.90222
165.37440,0.91664
165.13333,0.93829
164.89226,0.95696
164.65119,0.96435
164.41012,0.96368
164.16905,0.96547
163.92798,0.97531
163.68691,0.99299
163.44584,1.01608
163.20477,1.03553
162.96370,1.03873
162.72263,1.02832
162.48156,1.01784
162.24048,1.01629
161.99941,1.02825
161.75834,1.05099
161.51727,1.06883
161.27620,1.06332
161.03513,1.03562
160.79406,1.00808
160.55299,1.00184
160.31192,1.02064
160.07085,1.04801
159.82978,1.05581
159.58871,1.03465
159.34764,1.00446
159.10657,0.98824
158.86550,0.99465
158.62443,1.01064
158.38336,1.01179
158.14229,0.98992
157.90121,0.96218
157.66014,0.95135
157.41907,0.96333
157.17800,0.97990
156.93693,0.97644
156.69586,0.95226
156.45479,0.93132
156.21372,0.93295
155.97265,0.95374
155.73158,0.96873
155.49051,0.95622
155.24944,0.92703
155.00837,0.90317
154.76730,0.89214
154.52623,0.88729
154.28516,0.87725
154.04409,0.86042
153.80302,0.84472
153.56194,0.83566
153.32087,0.83135
153.07980,0.82480
152.83873,0.81134
152.59766,0.79374
152.35659,0.77912
152.11552,0.77127
151.87445,0.76581
151.63338,0.75443
151.39231,0.73433
151.15124,0.71175
150.91017,0.69425
150.66910,0.68177
150.42803,0.66806
150.18696,0.65157
149.94589,0.63839
149.70482,0.63255
149.46375,0.63020
149.22267,0.62406
148.98160,0.61278
148.74053,0.60230
148.49946,0.59681
148.25839,0.59333
148.01732,0.58640
147.77625,0.57755
147.53518,0.57351
147.29411,0.57547
147.05304,0.57625
146.81197,0.57002
146.57090,0.56130
146.32983,0.55877
146.08876,0.56382
145.84769,0.57057
145.60662,0.57572
145.36555,0.58082
145.12448,0.58577
144.88340,0.58833
144.64233,0.58936
144.40126,0.59221
144.16019,0.59744
143.91912,0.60274
143.67805,0.60581
143.43698,0.60515
143.19591,0.60116
142.95484,0.59717
142.71377,0.59554
142.47270,0.59292
142.23163,0.58397
141.99056,0.56985
141.74949,0.55782
141.50842,0.55180
141.26735,0.54839
141.02628,0.54365
140.78521,0.53858
140.54413,0.53508
140.30306,0.53223
140.06199,0.52928
139.82092,0.52750
139.57985,0.52677
139.33878,0.52554
139.09771,0.52490
138.85664,0.52698
138.61557,0.53119
138.37450,0.53619
138.13343,0.54263
137.89236,0.55097
137.65129,0.56101
137.41022,0.57435
137.16915,0.59277
136.92808,0.61483
136.68701,0.63827
136.44594,0.66250
136.20486,0.68571
135.96379,0.70610
135.72272,0.72559
135.48165,0.74615
135.24058,0.76592
134.99951,0.78398
134.75844,0.80350
134.51737,0.82658
134.27630,0.85162
134.03523,0.87727
133.79416,0.90385
133.55309,0.93058
133.31202,0.95710
133.07095,0.98740
132.82988,1.02595
132.58881,1.06849
132.34774,1.10407
132.10667,1.12792
131.86559,1.14321
131.62452,1.15115
131.38345,1.14728
131.14238,1.12953
130.90131,1.10661
130.66024,1.09288
130.41917,1.09426
130.17810,1.09968
129.93703,1.08960
129.69596,1.05454
129.45489,1.00350
129.21382,0.95531
128.97275,0.92351
128.73168,0.90746
128.49061,0.89494
128.24954,0.87305
128.00847,0.83947
127.76740,0.80254
127.52632,0.77067
127.28525,0.74472
127.04418,0.71886
126.80311,0.68790
126.56204,0.65295
126.32097,0.61926
126.07990,0.59099
125.83883,0.56992
125.59776,0.55672
125.35669,0.55125
125.11562,0.55157
124.87455,0.55375
124.63348,0.55285
124.39241,0.54513
124.15134,0.53011
123.91027,0.51078
123.66920,0.49169
123.42812,0.47593
123.18705,0.46357
122.94598,0.45377
122.70491,0.44714
122.46384,0.44518
122.22277,0.44883
121.98170,0.45702
121.74063,0.46602
121.49956,0.47238
121.25849,0.47615
121.01742,0.47900
120.77635,0.48020
120.53528,0.47805
120.29421,0.47480
120.05314,0.47739
119.81207,0.49233
119.57100,0.52080
119.32993,0.55772
119.08885,0.59238
118.84778,0.61347
118.60671,0.61889
118.36564,0.61750
118.12457,0.62321
117.88350,0.64831
117.64243,0.69534
117.40136,0.75330
117.16029,0.80291
116.91922,0.82745
116.67815,0.82364
116.43708,0.80236
116.19601,0.77785
115.95494,0.75889
115.71387,0.74712
115.47280,0.74195
115.23173,0.74398
114.99066,0.75105
114.74958,0.75242
114.50851,0.73597
114.26744,0.70726
114.02637,0.68346
113.78530,0.67333
113.54423,0.67582
113.30316,0.68739
113.06209,0.70247
112.82102,0.70942
112.57995,0.69811
112.33888,0.67461
112.09781,0.65397
111.85674,0.64708
111.61567,0.65996
111.37460,0.69105
111.13353,0.72285
110.89246,0.73147
110.65139,0.71731
110.41031,0.70078
110.16924,0.69478
109.92817,0.69964
109.68710,0.70977
109.44603,0.71133
109.20496,0.68405
108.96389,0.63405
108.72282,0.59161
108.48175,0.57389
108.24068,0.58005
107.99961,0.59708
107.75854,0.60015
107.51747,0.57284
107.27640,0.53383
107.03533,0.50587
106.79426,0.49521
106.55319,0.50062
106.31212,0.51030
106.07104,0.49932
105.82997,0.46382
105.58890,0.43156
105.34783,0.42207
105.10676,0.43230
104.86569,0.44154
104.62462,0.42835
104.38355,0.39974
104.14248,0.37810
103.90141,0.37132
103.66034,0.37300
103.41927,0.37085
103.17820,0.35792
102.93713,0.34221
102.69606,0.33542
102.45499,0.33919
102.21392,0.34258
101.97285,0.33244
101.73177,0.31155
101.49070,0.29557
101.24963,0.29427
101.00856,0.30398
100.76749,0.31076
100.52642,0.30443
100.28535,0.29219
100.04428,0.28838
99.80321,0.29580
99.56214,0.30038
99.32107,0.29090
99.08000,0.27980
98.83893,0.28289
98.59786,0.29404
98.35679,0.29123
98.11572,0.27530
97.87465,0.27197
97.63358,0.28851
97.39250,0.30242
97.15143,0.29406
96.91036,0.27769
96.66929,0.27276
96.42822,0.27662
96.18715,0.27658
95.94608,0.27444
95.70501,0.28002
95.46394,0.29159
95.22287,0.30036
94.98180,0.30662
94.74073,0.31597
94.49966,0.32347
94.25859,0.32101
94.01752,0.31452
93.77645,0.31310
93.53538,0.31277
93.29431,0.30912
93.05323,0.31015
92.81216,0.31753
92.57109,0.31943
92.33002,0.31533
92.08895,0.31819
91.84788,0.32805
91.60681,0.33409
91.36574,0.33811
91.12467,0.34876
90.88360,0.36540
90.64253,0.38654
90.40146,0.41566
90.16039,0.45155
89.91932,0.49138
89.67825,0.53880
89.43718,0.58916
89.19611,0.62811
88.95504,0.65778
88.71396,0.68880
88.47289,0.71546
88.23182,0.72560
87.99075,0.71718
87.74968,0.69536
87.50861,0.66738
87.26754,0.63347
87.02647,0.59319
86.78540,0.55126
86.54433,0.50945
86.30326,0.46738
86.06219,0.42913
85.82112,0.39909
85.58005,0.37497
85.33898,0.35191
85.09791,0.32937
84.85684,0.31004
84.61577,0.29556
84.37469,0.28377
84.13362,0.27077
83.89255,0.25665
83.65148,0.24616
83.41041,0.24198
83.16934,0.24179
82.92827,0.24177
82.68720,0.23979
82.44613,0.23602
82.20506,0.23142
81.96399,0.22598
81.72292,0.21972
81.48185,0.21453
81.24078,0.21235
80.99971,0.21265
80.75864,0.21332
80.51757,0.21238
80.27650,0.20865
80.03542,0.20286
79.79435,0.19749
79.55328,0.19465
79.31221,0.19487
79.07114,0.19704
78.83007,0.19852
78.58900,0.19706
78.34793,0.19325
78.10686,0.18896
77.86579,0.18481
77.62472,0.18048
77.38365,0.17635
77.14258,0.17292
76.90151,0.16929
76.66044,0.16430
76.41937,0.15877
76.17830,0.15462
75.93723,0.15176
75.69615,0.14867
75.45508,0.14639
75.21401,0.14840
74.97294,0.15640
74.73187,0.16875
74.49080,0.18258
74.24973,0.19504
74.00866,0.20337
73.76759,0.20564
73.52652,0.20174
73.28545,0.19276
73.04438,0.17982
72.80331,0.16440
72.56224,0.14947
72.32117,0.13838
72.08010,0.13203
71.83903,0.12828
71.59796,0.12470
71.35688,0.12141
71.11581,0.12149
70.87474,0.12890
70.63367,0.14525
70.39260,0.16863
70.15153,0.19606
69.91046,0.22583
69.66939,0.25651
69.42832,0.28498
69.18725,0.30582
68.94618,0.31315
68.70511,0.30483
68.46404,0.28298
68.22297,0.25162
67.98190,0.21595
67.74083,0.18216
67.49976,0.15522
67.25869,0.13646
67.01761,0.12345
66.77654,0.11271
66.53547,0.10319
66.29440,0.09634
66.05333,0.09419
65.81226,0.09933
65.57119,0.11483
65.33012,0.14202
65.08905,0.17904
64.84798,0.22116
64.60691,0.25837
64.36584,0.27494
64.12477,0.26427
63.88370,0.23604
63.64263,0.20022
63.40156,0.16243
63.16049,0.12770
62.91942,0.10022
62.67834,0.08280
62.43727,0.07830
62.19620,0.09006
61.95513,0.11930
61.71406,0.16314
61.47299,0.21205
61.23192,0.23674
60.99085,0.20580
60.74978,0.14593
60.50871,0.09216
60.26764,0.05449
60.02657,0.03393
59.78550,0.03259
59.54443,0.05435
59.30336,0.10131
59.06229,0.16952
58.82122,0.23261
58.58015,0.23139
58.33907,0.17069
58.09800,0.10934
57.85693,0.07115
57.61586,0.06265
57.37479,0.08647
57.13372,0.14292
56.89265,0.21582
56.65158,0.23106
56.41051,0.16197
56.16944,0.09098
55.92837,0.05301
55.68730,0.05436
55.44623,0.09826
55.20516,0.17894
54.96409,0.23530
54.72302,0.17543
54.48195,0.09449
54.24088,0.05788
53.99980,0.06813
53.75873,0.12690
53.51766,0.21845
53.27659,0.22709
53.03552,0.13242
52.79445,0.06607
52.55338,0.05882
52.31231,0.11170
52.07124,0.21172
51.83017,0.24224
51.58910,0.13566
51.34803,0.05348
51.10696,0.04525
50.86589,0.11214
50.62482,0.18602
50.38375,0.12795
50.14268,0.05536
49.90161,0.05837
49.66053,0.13356
49.41946,0.17212
49.17839,0.08794
48.93732,0.03030
48.69625,0.06079
48.45518,0.14540
48.21411,0.14593
47.97304,0.06849
47.73197,0.05084
47.49090,0.09790
47.24983,0.10950
47.00876,0.06733
46.76769,0.05531
46.52662,0.06945
46.28555,0.06416
46.04448,0.06071
45.80341,0.07742
45.56234,0.07715
45.32126,0.06067
45.08019,0.06336
44.83912,0.07351
44.59805,0.05900
44.35698,0.04446
44.11591,0.05004
43.87484,0.05622
43.63377,0.05074
43.39270,0.04416
43.15163,0.04331
42.91056,0.04984
42.66949,0.06209
42.42842,0.06626
42.18735,0.05322
41.94628,0.03468
41.70521,0.02823
41.46414,0.03572
41.22307,0.04315
40.98199,0.04751
40.74092,0.06207
40.49985,0.08637
40.25878,0.09662
40.01771,0.08959
39.77664,0.09045
39.53557,0.10810
39.29450,0.12966
39.05343,0.14800
38.81236,0.16630
38.57129,0.18227
38.33022,0.19014
38.08915,0.18432
37.84808,0.16605
37.60701,0.14525
37.36594,0.12468
37.12487,0.09678
36.88380,0.05817
36.64272,0.01148
36.40165,-0.02531
36.16058,-0.02895
35.91951,-0.00337
35.67844,0.02524
35.43737,0.04677
35.19630,0.06212
34.95523,0.06208
34.71416,0.04644
34.47309,0.02746
34.23202,0.01156
33.99095,0.00624
33.74988,0.02516
33.50881,0.07047
33.26774,0.12595
33.02667,0.16827
32.78560,0.17859
32.54453,0.15383
32.30345,0.11140
32.06238,0.08209
31.82131,0.08255
31.58024,0.09675
31.33917,0.09248
31.09810,0.05747
30.85703,0.01531
30.61596,-0.01110
30.37489,-0.02334
30.13382,-0.03376
29.89275,-0.04224
29.65168,-0.03788
29.41061,-0.02005
29.16954,-0.00810
28.92847,-0.01588
28.68740,-0.02823
28.44633,-0.03214
28.20526,-0.02874
27.96418,-0.01770
27.72311,0.00224
27.48204,0.01535
27.24097,0.01027
26.99990,-0.00158
26.75883,-0.01153
26.51776,-0.02931
26.27669,-0.06778
26.03562,-0.12455
25.79455,-0.18146
25.55348,-0.21186
25.31241,-0.20453
25.07134,-0.19366
24.83027,-0.20977
24.58920,-0.24324
24.34813,-0.26015
24.10706,-0.25081
23.86599,-0.22186
23.62491,-0.17105
23.38384,-0.13609
23.14277,-0.16817
22.90170,-0.25270
22.66063,-0.29039
22.41956,-0.22353
22.17849,-0.15156
21.93742,-0.11876
21.69635,-0.12219
21.45528,-0.13789
21.21421,-0.14862
20.97314,-0.17057
20.73207,-0.21451
20.49100,-0.24006
20.24993,-0.21359
20.00886,-0.14451
19.76779,-0.08209
19.52672,-0.06227
19.28564,-0.07904
19.04457,-0.10673
18.80350,-0.11560
18.56243,-0.08297
18.32136,-0.03320
18.08029,-0.01663
17.83922,-0.04660
17.59815,-0.09455
17.35708,-0.13537
17.11601,-0.17057
16.87494,-0.19410
16.63387,-0.19815
16.39280,-0.17525
16.15173,-0.12908
15.91066,-0.09647
15.66959,-0.10667
15.42852,-0.15545
15.18745,-0.21749
14.94637,-0.25876
14.70530,-0.24562
14.46423,-0.19418
14.22316,-0.13678
13.98209,-0.10484
13.74102,-0.10201
13.49995,-0.11191
13.25888,-0.12685
13.01781,-0.14490
12.77674,-0.17621
12.53567,-0.21796
12.29460,-0.23536
12.05353,-0.21230
11.81246,-0.16301
11.57139,-0.10516
11.33032,-0.06248
11.08925,-0.05875
10.84818,-0.09058
10.60710,-0.12309
10.36603,-0.13228
10.12496,-0.13255
9.88389,-0.15334
9.64282,-0.19151
9.40175,-0.20141
9.16068,-0.16279
8.91961,-0.11638
8.67854,-0.10253
8.43747,-0.11711
8.19640,-0.13310
7.95533,-0.13529
7.71426,-0.12347
7.47319,-0.09954
7.23212,-0.06594
6.99105,-0.03498
6.74998,-0.02076
6.50891,-0.02260
6.26783,-0.04060
6.02676,-0.08342
5.78569,-0.13816
5.54462,-0.16194
5.30355,-0.14437
5.06248,-0.12408
4.82141,-0.11781
4.58034,-0.13419
4.33927,-0.16457
4.09820,-0.17320
3.85713,-0.14002
3.61606,-0.09782
3.37499,-0.09150
3.13392,-0.12332
2.89285,-0.15186
2.65178,-0.13814
2.41071,-0.09938
2.16964,-0.10250
1.92856,-0.14898
1.68749,-0.15704
1.44642,-0.13812
1.20535,-0.13145
0.96428,-0.14014
0.72321,-0.16813
0.48214,-0.20904
0.24107,-0.20320
-0.00000,-0.18586
