399.69498,1.81177
399.45391,1.79103
399.21284,1.79333
398.97177,1.80765
398.73070,1.82895
398.48963,1.85743
398.24856,1.87610
398.00749,1.87774
397.76642,1.87341
397.52535,1.85465
397.28428,1.83099
397.04321,1.83049
396.80214,1.85795
396.56107,1.90072
396.32000,1.94369
396.07892,1.96750
395.83785,1.96453
395.59678,1.96205
395.35571,1.97890
395.11464,1.99655
394.87357,1.98373
394.63250,1.94478
394.39143,1.94878
394.15036,2.01556
393.90929,2.06449
393.66822,2.03488
393.42715,1.99072
393.18608,1.99863
392.94501,2.06024
392.70394,2.12521
392.46287,2.17785
392.22180,2.23344
391.98073,2.18106
391.73965,2.08993
391.49858,2.03255
391.25751,2.02955
391.01644,2.07465
390.77537,2.10271
390.53430,2.09489
390.29323,2.09685
390.05216,2.10742
389.81109,2.08844
389.57002,2.03374
389.32895,1.98876
389.08788,2.00843
388.84681,2.13056
388.60574,2.46729
388.36467,2.93175
388.12360,2.40385
387.88253,2.11784
387.64146,2.08873
387.40038,2.16594
387.15931,2.20172
386.91824,2.11196
386.67717,2.01986
386.43610,2.00334
386.19503,2.07711
385.95396,2.16801
385.71289,2.08042
385.47182,2.04562
385.23075,2.14255
384.98968,2.28572
384.74861,2.26926
384.50754,2.22299
384.26647,2.12595
384.02540,1.97189
383.78433,1.92208
383.54326,2.03493
383.30219,2.28705
383.06111,2.37365
382.82004,2.34203
382.57897,2.26471
382.33790,2.17897
382.09683,2.16142
381.85576,2.13764
381.61469,2.05463
381.37362,1.97673
381.13255,2.04019
380.89148,2.05894
380.65041,1.88908
380.40934,1.79017
380.16827,1.85237
379.92720,2.00953
379.68613,2.11809
379.44506,2.17649
379.20399,2.14534
378.96292,2.11637
378.72184,2.16665
378.48077,2.17260
378.23970,2.09785
377.99863,1.93533
377.75756,1.82855
377.51649,1.81303
377.27542,1.87808
377.03435,1.96188
376.79328,2.06786
376.55221,2.32431
376.31114,2.65020
376.07007,2.58489
375.82900,2.26631
375.58793,2.09041
375.34686,2.12422
375.10579,2.26397
374.86472,2.24073
374.62365,2.07250
374.38257,1.93518
374.14150,1.84858
373.90043,1.81709
373.65936,1.85826
373.41829,1.97113
373.17722,2.09882
372.93615,2.12782
372.69508,2.08733
372.45401,2.00381
372.21294,1.89695
371.97187,1.83000
371.73080,1.82826
371.48973,1.88400
371.24866,1.95787
371.00759,1.97129
370.76652,1.89431
370.52545,1.78713
370.28437,1.71596
370.04330,1.69056
369.80223,1.68298
369.56116,1.66350
369.32009,1.62497
369.07902,1.58822
368.83795,1.57946
368.59688,1.60128
368.35581,1.62661
368.11474,1.63101
367.87367,1.62122
367.63260,1.61211
367.39153,1.60854
367.15046,1.60677
366.90939,1.59998
366.66832,1.58493
366.42725,1.56379
366.18618,1.54166
365.94510,1.52389
365.70403,1.51410
365.46296,1.51347
365.22189,1.52246
364.98082,1.53963
364.73975,1.55831
364.49868,1.56971
364.25761,1.57303
364.01654,1.57181
363.77547,1.56374
363.53440,1.54945
363.29333,1.53571
363.05226,1.52403
362.81119,1.51269
362.57012,1.50491
362.32905,1.50050
362.08798,1.49246
361.84691,1.48082
361.60583,1.47564
361.36476,1.47889
361.12369,1.47763
360.88262,1.46476
360.64155,1.45212
360.40048,1.45143
360.15941,1.45697
359.91834,1.45613
359.67727,1.44629
359.43620,1.43548
359.19513,1.43159
358.95406,1.43624
358.71299,1.44422
358.47192,1.44965
358.23085,1.45279
357.98978,1.45561
357.74871,1.45798
357.50764,1.46100
357.26656,1.46928
357.02549,1.48350
356.78442,1.49523
356.54335,1.50008
356.30228,1.50782
356.06121,1.52361
355.82014,1.53129
355.57907,1.51273
355.33800,1.47414
355.09693,1.44252
354.85586,1.43692
354.61479,1.45201
354.37372,1.46932
354.13265,1.47238
353.89158,1.45731
353.65051,1.43878
353.40944,1.43349
353.16837,1.44206
352.92729,1.45228
352.68622,1.45782
352.44515,1.45999
352.20408,1.45826
351.96301,1.45679
351.72194,1.46289
351.48087,1.47118
351.23980,1.46768
350.99873,1.45641
350.75766,1.45457
350.51659,1.46235
350.27552,1.46195
350.03445,1.44400
349.79338,1.41660
349.55231,1.39336
349.31124,1.38394
349.07017,1.38904
348.82910,1.40101
348.58802,1.41463
348.34695,1.43062
348.10588,1.44702
347.86481,1.45781
347.62374,1.46629
347.38267,1.48531
347.14160,1.51235
346.90053,1.52248
346.65946,1.50044
346.41839,1.46701
346.17732,1.45189
345.93625,1.45931
345.69518,1.47857
345.45411,1.50538
345.21304,1.53298
344.97197,1.54482
344.73090,1.54009
344.48983,1.54061
344.24875,1.56025
344.00768,1.59231
343.76661,1.62186
343.52554,1.63421
343.28447,1.62281
343.04340,1.59840
342.80233,1.58518
342.56126,1.60001
342.32019,1.62769
342.07912,1.63524
341.83805,1.61944
341.59698,1.60198
341.35591,1.60447
341.11484,1.63375
340.87377,1.67749
340.63270,1.71505
340.39163,1.73769
340.15056,1.75135
339.90948,1.75874
339.66841,1.75605
339.42734,1.74530
339.18627,1.74386
338.94520,1.77387
338.70413,1.84732
338.46306,1.95063
338.22199,2.02865
337.98092,2.03219
337.73985,1.97913
337.49878,1.89570
337.25771,1.80790
337.01664,1.76818
336.77557,1.80609
336.53450,1.89977
336.29343,1.96676
336.05236,1.93863
335.81129,1.86197
335.57021,1.79953
335.32914,1.76070
335.08807,1.74211
334.84700,1.75471
334.60593,1.78783
334.36486,1.81778
334.12379,1.83433
333.88272,1.81712
333.64165,1.76354
333.40058,1.71215
333.15951,1.69786
332.91844,1.72069
332.67737,1.75269
332.43630,1.76136
332.19523,1.73275
331.95416,1.68321
331.71309,1.63995
331.47202,1.61629
331.23094,1.61208
330.98987,1.62281
330.74880,1.64063
330.50773,1.65438
330.26666,1.66119
330.02559,1.66870
329.78452,1.68155
329.54345,1.68516
329.30238,1.66620
329.06131,1.64499
328.82024,1.65162
328.57917,1.68651
328.33810,1.71273
328.09703,1.70610
327.85596,1.69857
327.61489,1.70810
327.37382,1.71864
327.13275,1.72882
326.89167,1.75236
326.65060,1.76302
326.40953,1.71207
326.16846,1.64068
325.92739,1.61204
325.68632,1.62878
325.44525,1.66153
325.20418,1.69584
324.96311,1.74701
324.72204,1.83722
324.48097,1.95106
324.23990,1.96991
323.99883,1.84328
323.75776,1.73209
323.51669,1.71129
323.27562,1.77062
323.03455,1.84870
322.79348,1.87816
322.55240,1.87507
322.31133,1.91090
322.07026,1.98828
321.82919,2.00890
321.58812,1.95756
321.34705,1.93347
321.10598,1.96064
320.86491,1.97978
320.62384,1.96427
320.38277,1.96726
320.14170,2.03336
319.90063,2.11992
319.65956,2.12941
319.41849,2.09374
319.17742,2.13646
318.93635,2.27487
318.69528,2.26835
318.45421,2.16822
318.21313,2.03117
317.97206,1.92401
317.73099,1.86153
317.48992,1.83755
317.24885,1.84977
317.00778,1.89590
316.76671,1.96764
316.52564,2.04823
316.28457,2.11857
316.04350,2.13782
315.80243,2.14141
315.56136,2.09731
315.32029,2.09136
315.07922,2.17558
314.83815,2.29488
314.59708,2.33644
314.35601,2.23539
314.11494,2.10094
313.87386,2.03394
313.63279,2.03538
313.39172,2.06488
313.15065,2.08796
312.90958,2.14009
312.66851,2.24825
312.42744,2.36734
312.18637,2.46593
311.94530,2.35182
311.70423,2.13120
311.46316,2.03342
311.22209,2.02792
310.98102,2.01591
310.73995,1.97662
310.49888,1.97692
310.25781,2.04544
310.01674,2.13288
309.77567,2.19231
309.53459,2.24399
309.29352,2.29187
309.05245,2.25008
308.81138,2.21893
308.57031,2.06503
308.32924,1.87273
308.08817,1.75420
307.84710,1.73043
307.60603,1.77291
307.36496,1.83787
307.12389,1.88471
306.88282,1.89015
306.64175,1.83826
306.40068,1.75282
306.15961,1.67237
305.91854,1.61170
305.67747,1.57056
305.43640,1.54169
305.19532,1.52353
304.95425,1.52143
304.71318,1.53384
304.47211,1.54616
304.23104,1.54084
303.98997,1.51673
303.74890,1.49236
303.50783,1.48463
303.26676,1.49135
303.02569,1.49539
302.78462,1.48456
302.54355,1.46503
302.30248,1.44978
302.06141,1.44011
301.82034,1.42545
301.57927,1.40062
301.33820,1.37345
301.09713,1.34995
300.85605,1.32668
300.61498,1.30347
300.37391,1.29060
300.13284,1.29485
299.89177,1.30639
299.65070,1.30745
299.40963,1.29300
299.16856,1.27501
298.92749,1.26373
298.68642,1.25521
298.44535,1.24249
298.20428,1.23022
297.96321,1.22764
297.72214,1.23232
297.48107,1.23210
297.24000,1.22302
296.99893,1.21285
296.75786,1.20708
296.51678,1.20328
296.27571,1.19880
296.03464,1.19510
295.79357,1.19231
295.55250,1.18816
295.31143,1.18117
295.07036,1.17253
294.82929,1.16523
294.58822,1.15954
294.34715,1.15352
294.10608,1.14889
293.86501,1.14975
293.62394,1.15432
293.38287,1.15454
293.14180,1.14618
292.90073,1.13355
292.65966,1.12297
292.41859,1.11799
292.17751,1.11917
291.93644,1.12329
291.69537,1.12550
291.45430,1.12383
291.21323,1.11995
290.97216,1.11626
290.73109,1.11298
290.49002,1.10832
290.24895,1.10163
290.00788,1.09616
289.76681,1.09601
289.52574,1.09995
289.28467,1.10122
289.04360,1.09548
288.80253,1.08506
288.56146,1.07369
288.32039,1.06284
288.07932,1.05514
287.83824,1.05472
287.59717,1.06163
287.35610,1.07046
287.11503,1.07572
286.87396,1.07525
286.63289,1.06937
286.39182,1.06110
286.15075,1.05503
285.90968,1.05238
285.66861,1.04984
285.42754,1.04501
285.18647,1.03977
284.94540,1.03735
284.70433,1.03855
284.46326,1.04124
284.22219,1.04272
283.98112,1.04190
283.74005,1.03916
283.49897,1.03508
283.25790,1.03080
283.01683,1.02864
282.77576,1.03023
282.53469,1.03385
282.29362,1.03554
282.05255,1.03425
281.81148,1.03357
281.57041,1.03580
281.32934,1.03747
281.08827,1.03392
280.84720,1.02580
280.60613,1.01839
280.36506,1.01641
280.12399,1.02062
279.88292,1.02693
279.64185,1.03038
279.40078,1.03078
279.15970,1.03105
278.91863,1.03233
278.67756,1.03357
278.43649,1.03381
278.19542,1.03262
277.95435,1.03039
277.71328,1.02998
277.47221,1.03434
277.23114,1.04066
276.99007,1.04119
276.74900,1.03296
276.50793,1.02176
276.26686,1.01397
276.02579,1.01030
275.78472,1.00882
275.54365,1.00955
275.30258,1.01328
275.06151,1.01829
274.82043,1.02177
274.57936,1.02312
274.33829,1.02338
274.09722,1.02353
273.85615,1.02453
273.61508,1.02742
273.37401,1.03052
273.13294,1.02889
272.89187,1.02045
272.65080,1.00968
272.40973,1.00282
272.16866,1.00195
271.92759,1.00507
271.68652,1.01074
271.44545,1.01934
271.20438,1.02963
270.96331,1.03773
270.72224,1.04127
270.48116,1.04194
270.24009,1.04265
269.99902,1.04477
269.75795,1.04782
269.51688,1.04990
269.27581,1.05023
269.03474,1.05135
268.79367,1.05632
268.55260,1.06429
268.31153,1.07070
268.07046,1.07208
267.82939,1.07001
267.58832,1.06870
267.34725,1.06949
267.10618,1.06944
266.86511,1.06640
266.62404,1.06366
266.38297,1.06739
266.14189,1.07944
265.90082,1.09422
265.65975,1.10428
265.41868,1.10726
265.17761,1.10567
264.93654,1.10448
264.69547,1.10929
264.45440,1.12135
264.21333,1.13457
263.97226,1.14202
263.73119,1.14484
263.49012,1.14947
263.24905,1.15738
263.00798,1.16284
262.76691,1.16251
262.52584,1.16318
262.28477,1.17467
262.04370,1.19603
261.80262,1.21454
261.56155,1.22234
261.32048,1.22692
261.07941,1.23985
260.83834,1.26247
260.59727,1.28615
260.35620,1.30356
260.11513,1.31503
259.87406,1.32296
259.63299,1.32919
259.39192,1.34130
259.15085,1.36901
258.90978,1.40885
258.66871,1.44019
258.42764,1.44788
258.18657,1.44202
257.94550,1.44021
257.70443,1.44646
257.46335,1.45666
257.22228,1.47381
256.98121,1.50634
256.74014,1.55316
256.49907,1.60000
256.25800,1.63117
256.01693,1.64433
255.77586,1.65548
255.53479,1.68607
255.29372,1.74307
255.05265,1.80965
254.81158,1.85603
254.57051,1.86960
254.32944,1.86895
254.08837,1.87931
253.84730,1.91402
253.60623,1.98384
253.36516,2.08359
253.12408,2.16659
252.88301,2.19155
252.64194,2.16975
252.40087,2.12341
252.15980,2.10434
251.91873,2.12156
251.67766,2.13617
251.43659,2.16288
251.19552,2.26106
250.95445,2.41202
250.71338,2.49372
250.47231,2.40926
250.23124,2.25921
249.99017,2.20282
249.74910,2.22481
249.50803,2.24698
249.26696,2.27909
249.02589,2.37485
248.78481,2.48843
248.54374,2.55041
248.30267,2.53447
248.06160,2.39209
247.82053,2.27383
247.57946,2.20498
247.33839,2.17448
247.09732,2.16684
246.85625,2.17042
246.61518,2.19712
246.37411,2.21248
246.13304,2.19420
245.89197,2.13562
245.65090,2.04935
245.40983,1.96570
245.16876,1.91141
244.92769,1.88893
244.68661,1.86409
244.44554,1.80607
244.20447,1.72970
243.96340,1.66655
243.72233,1.62461
243.48126,1.59522
243.24019,1.56723
242.99912,1.53044
242.75805,1.48256
242.51698,1.42859
242.27591,1.37435
242.03484,1.32391
241.79377,1.27900
241.55270,1.23996
241.31163,1.20446
241.07056,1.17010
240.82949,1.13867
240.58842,1.11246
240.34734,1.09056
240.10627,1.07266
239.86520,1.06049
239.62413,1.05115
239.38306,1.03604
239.14199,1.01094
238.90092,0.98143
238.65985,0.95559
238.41878,0.93668
238.17771,0.92385
237.93664,0.91474
237.69557,0.90609
237.45450,0.89487
237.21343,0.88103
236.97236,0.86779
236.73129,0.85807
236.49022,0.85211
236.24915,0.84804
236.00807,0.84307
235.76700,0.83470
235.52593,0.82333
235.28486,0.81319
235.04379,0.80781
234.80272,0.80565
234.56165,0.80258
234.32058,0.79749
234.07951,0.79230
233.83844,0.78785
233.59737,0.78309
233.35630,0.77713
233.11523,0.77019
232.87416,0.76354
232.63309,0.75944
232.39202,0.75933
232.15095,0.76163
231.90988,0.76283
231.66880,0.76031
231.42773,0.75338
231.18666,0.74254
230.94559,0.73008
230.70452,0.72019
230.46345,0.71613
230.22238,0.71720
229.98131,0.71957
229.74024,0.72032
229.49917,0.72002
229.25810,0.72073
229.01703,0.72290
228.77596,0.72499
228.53489,0.72504
228.29382,0.72244
228.05275,0.71875
227.81168,0.71609
227.57061,0.71438
227.32953,0.71222
227.08846,0.71014
226.84739,0.70990
226.60632,0.71122
226.36525,0.71212
226.12418,0.71140
225.88311,0.70936
225.64204,0.70744
225.40097,0.70753
225.15990,0.71003
224.91883,0.71296
224.67776,0.71433
224.43669,0.71404
224.19562,0.71314
223.95455,0.71231
223.71348,0.71145
223.47241,0.71013
223.23134,0.70864
222.99026,0.70850
222.74919,0.71130
222.50812,0.71702
222.26705,0.72387
222.02598,0.73024
221.78491,0.73607
221.54384,0.74143
221.30277,0.74465
221.06170,0.74428
220.82063,0.74236
220.57956,0.74313
220.33849,0.74895
220.09742,0.75893
219.85635,0.77098
219.61528,0.78342
219.37421,0.79447
219.13314,0.80244
218.89207,0.80777
218.65099,0.81350
218.40992,0.82162
218.16885,0.83025
217.92778,0.83678
217.68671,0.84261
217.44564,0.85117
217.20457,0.86247
216.96350,0.87343
216.72243,0.88296
216.48136,0.89237
216.24029,0.90172
215.99922,0.91005
215.75815,0.91744
215.51708,0.92420
215.27601,0.92995
215.03494,0.93516
214.79387,0.94110
214.55280,0.94784
214.31172,0.95468
214.07065,0.96207
213.82958,0.97040
213.58851,0.97799
213.34744,0.98273
213.10637,0.98547
212.86530,0.98951
212.62423,0.99655
212.38316,1.00440
212.14209,1.00986
211.90102,1.01247
211.65995,1.01423
211.41888,1.01681
211.17781,1.02015
210.93674,1.02254
210.69567,1.02132
210.45460,1.01544
210.21353,1.00803
209.97245,1.00438
209.73138,1.00660
209.49031,1.01140
209.24924,1.01379
209.00817,1.01173
208.76710,1.00665
208.52603,1.00125
208.28496,0.99722
208.04389,0.99353
207.80282,0.98746
207.56175,0.97780
207.32068,0.96631
207.07961,0.95685
206.83854,0.95251
206.59747,0.95304
206.35640,0.95518
206.11533,0.95475
205.87426,0.94791
205.63318,0.93413
205.39211,0.91855
205.15104,0.90747
204.90997,0.90216
204.66890,0.89934
204.42783,0.89566
204.18676,0.88925
203.94569,0.87949
203.70462,0.86731
203.46355,0.85477
203.22248,0.84380
202.98141,0.83510
202.74034,0.82687
202.49927,0.81625
202.25820,0.80308
202.01713,0.78966
201.77606,0.77712
201.53499,0.76525
201.29391,0.75497
201.05284,0.74805
200.81177,0.74397
200.57070,0.73935
200.32963,0.73188
200.08856,0.72303
199.84749,0.71507
199.60642,0.70788
199.36535,0.70019
199.12428,0.69152
198.88321,0.68207
198.64214,0.67235
198.40107,0.66312
198.16000,0.65477
197.91893,0.64710
197.67786,0.64010
197.43679,0.63419
197.19572,0.62947
196.95464,0.62491
196.71357,0.61919
196.47250,0.61246
196.23143,0.60622
195.99036,0.60072
195.74929,0.59441
195.50822,0.58654
195.26715,0.57833
195.02608,0.57109
194.78501,0.56510
194.54394,0.56055
194.30287,0.55752
194.06180,0.55532
193.82073,0.55275
193.57966,0.54902
193.33859,0.54425
193.09752,0.53938
192.85645,0.53555
192.61537,0.53307
192.37430,0.53111
192.13323,0.52845
191.89216,0.52441
191.65109,0.51930
191.41002,0.51405
191.16895,0.50948
190.92788,0.50590
190.68681,0.50338
190.44574,0.50201
190.20467,0.50157
189.96360,0.50130
189.72253,0.50035
189.48146,0.49824
189.24039,0.49491
188.99932,0.49074
188.75825,0.48647
188.51718,0.48270
188.27610,0.47959
188.03503,0.47718
187.79396,0.47565
187.55289,0.47530
187.31182,0.47635
187.07075,0.47816
186.82968,0.47921
186.58861,0.47866
186.34754,0.47752
186.10647,0.47696
185.86540,0.47676
185.62433,0.47661
185.38326,0.47716
185.14219,0.47843
184.90112,0.47894
184.66005,0.47768
184.41898,0.47584
184.17791,0.47546
183.93683,0.47700
183.69576,0.47915
183.45469,0.48071
183.21362,0.48202
182.97255,0.48405
182.73148,0.48671
182.49041,0.48882
182.24934,0.48958
182.00827,0.48910
181.76720,0.48792
181.52613,0.48677
181.28506,0.48647
181.04399,0.48730
180.80292,0.48890
180.56185,0.49106
180.32078,0.49394
180.07971,0.49767
179.83864,0.50220
179.59756,0.50713
179.35649,0.51159
179.11542,0.51510
178.87435,0.51839
178.63328,0.52274
178.39221,0.52867
178.15114,0.53551
177.91007,0.54270
177.66900,0.55077
177.42793,0.56055
177.18686,0.57197
176.94579,0.58445
176.70472,0.59746
176.46365,0.60996
176.22258,0.62079
175.98151,0.63005
175.74044,0.63942
175.49937,0.65088
175.25829,0.66551
175.01722,0.68258
174.77615,0.69944
174.53508,0.71366
174.29401,0.72527
174.05294,0.73623
173.81187,0.74765
173.57080,0.75837
173.32973,0.76662
173.08866,0.77256
172.84759,0.77822
172.60652,0.78519
172.36545,0.79330
172.12438,0.80085
171.88331,0.80544
171.64224,0.80591
171.40117,0.80376
171.16010,0.80146
170.91902,0.79992
170.67795,0.79825
170.43688,0.79523
170.19581,0.79047
169.95474,0.78438
169.71367,0.77721
169.47260,0.76911
169.23153,0.76152
168.99046,0.75677
168.74939,0.75558
168.50832,0.75624
168.26725,0.75646
168.02618,0.75489
167.78511,0.75171
167.54404,0.74886
167.30297,0.74864
167.06190,0.75109
166.82083,0.75325
166.57975,0.75229
166.33868,0.74943
166.09761,0.74935
165.85654,0.75506
165.61547,0.76487
165.37440,0.77497
165.13333,0.78308
164.89226,0.78842
164.65119,0.79079
164.41012,0.79147
164.16905,0.79360
163.92798,0.79947
163.68691,0.80804
163.44584,0.81633
163.20477,0.82330
162.96370,0.83015
162.72263,0.83679
162.48156,0.84123
162.24048,0.84306
161.99941,0.84432
161.75834,0.84687
161.51727,0.85086
161.27620,0.85440
161.03513,0.85448
160.79406,0.85068
160.55299,0.84655
160.31192,0.84503
160.07085,0.84531
159.82978,0.84542
159.58871,0.84439
159.34764,0.84132
159.10657,0.83586
158.86550,0.82922
158.62443,0.82259
158.38336,0.81581
158.14229,0.80850
157.90121,0.80136
157.66014,0.79581
157.41907,0.79255
157.17800,0.79052
156.93693,0.78836
156.69586,0.78597
156.45479,0.78373
156.21372,0.78154
155.97265,0.77916
155.73158,0.77618
155.49051,0.77131
155.24944,0.76362
155.00837,0.75406
154.76730,0.74418
154.52623,0.73461
154.28516,0.72548
154.04409,0.71687
153.80302,0.70829
153.56194,0.69880
153.32087,0.68813
153.07980,0.67692
152.83873,0.66548
152.59766,0.65291
152.35659,0.63818
152.11552,0.62186
151.87445,0.60571
151.63338,0.59140
151.39231,0.58018
151.15124,0.57247
150.91017,0.56689
150.66910,0.56069
150.42803,0.55184
150.18696,0.54052
149.94589,0.52841
149.70482,0.51703
149.46375,0.50700
149.22267,0.49869
148.98160,0.49252
148.74053,0.48825
148.49946,0.48452
148.25839,0.48027
148.01732,0.47609
147.77625,0.47329
147.53518,0.47206
147.29411,0.47159
147.05304,0.47142
146.81197,0.47164
146.57090,0.47235
146.32983,0.47351
146.08876,0.47492
145.84769,0.47619
145.60662,0.47741
145.36555,0.47976
145.12448,0.48424
144.88340,0.49023
144.64233,0.49625
144.40126,0.50131
144.16019,0.50478
143.91912,0.50603
143.67805,0.50526
143.43698,0.50340
143.19591,0.50080
142.95484,0.49699
142.71377,0.49173
142.47270,0.48514
142.23163,0.47741
141.99056,0.46896
141.74949,0.46063
141.50842,0.45323
141.26735,0.44701
141.02628,0.44153
140.78521,0.43634
140.54413,0.43183
140.30306,0.42920
140.06199,0.42891
139.82092,0.42988
139.57985,0.43076
139.33878,0.43142
139.09771,0.43283
138.85664,0.43579
138.61557,0.43995
138.37450,0.44438
138.13343,0.44932
137.89236,0.45677
137.65129,0.46835
137.41022,0.48262
137.16915,0.49594
136.92808,0.50659
136.68701,0.51669
136.44594,0.52902
136.20486,0.54387
135.96379,0.56037
135.72272,0.57894
135.48165,0.59982
135.24058,0.62157
134.99951,0.64348
134.75844,0.66709
134.51737,0.69287
134.27630,0.71835
134.03523,0.74169
133.79416,0.76394
133.55309,0.78588
133.31202,0.80649
133.07095,0.82627
132.82988,0.84753
132.58881,0.86932
132.34774,0.88734
132.10667,0.90051
131.86559,0.91129
131.62452,0.91894
131.38345,0.91942
131.14238,0.91257
130.90131,0.90234
130.66024,0.89055
130.41917,0.87670
130.17810,0.86105
129.93703,0.84355
129.69596,0.82298
129.45489,0.79930
129.21382,0.77448
128.97275,0.75039
128.73168,0.72788
128.49061,0.70713
128.24954,0.68786
128.00847,0.66907
127.76740,0.64911
127.52632,0.62672
127.28525,0.60251
127.04418,0.57843
126.80311,0.55574
126.56204,0.53470
126.32097,0.51596
126.07990,0.50054
125.83883,0.48825
125.59776,0.47717
125.35669,0.46560
125.11562,0.45385
124.87455,0.44300
124.63348,0.43304
124.39241,0.42353
124.15134,0.41480
123.91027,0.40736
123.66920,0.40063
123.42812,0.39359
123.18705,0.38603
122.94598,0.37858
122.70491,0.37208
122.46384,0.36746
122.22277,0.36567
121.98170,0.36679
121.74063,0.36936
121.49956,0.37148
121.25849,0.37245
121.01742,0.37292
120.77635,0.37426
120.53528,0.37815
120.29421,0.38559
120.05314,0.39619
119.81207,0.40891
119.57100,0.42311
119.32993,0.43826
119.08885,0.45396
118.84778,0.47068
118.60671,0.48928
118.36564,0.50946
118.12457,0.52991
117.88350,0.55063
117.64243,0.57328
117.40136,0.59765
117.16029,0.61928
116.91922,0.63275
116.67815,0.63667
116.43708,0.63374
116.19601,0.62752
115.95494,0.62059
115.71387,0.61429
115.47280,0.60816
115.23173,0.60038
114.99066,0.58980
114.74958,0.57768
114.50851,0.56728
114.26744,0.56119
114.02637,0.55845
113.78530,0.55521
113.54423,0.54892
113.30316,0.54085
113.06209,0.53450
112.82102,0.53203
112.57995,0.53242
112.33888,0.53262
112.09781,0.53145
111.85674,0.53187
111.61567,0.53761
111.37460,0.54777
111.13353,0.55701
110.89246,0.56139
110.65139,0.56116
110.41031,0.55782
110.16924,0.55219
109.92817,0.54501
109.68710,0.53679
109.44603,0.52723
109.20496,0.51582
108.96389,0.50242
108.72282,0.48716
108.48175,0.47097
108.24068,0.45561
107.99961,0.44215
107.75854,0.43008
107.51747,0.41838
107.27640,0.40639
107.03533,0.39392
106.79426,0.38138
106.55319,0.36960
106.31212,0.35894
106.07104,0.34903
105.82997,0.33993
105.58890,0.33233
105.34783,0.32608
105.10676,0.31967
104.86569,0.31216
104.62462,0.30439
104.38355,0.29721
104.14248,0.28995
103.90141,0.28205
103.66034,0.27454
103.41927,0.26848
103.17820,0.26337
102.93713,0.25829
102.69606,0.25311
102.45499,0.24817
102.21392,0.24363
101.97285,0.23943
101.73177,0.23554
101.49070,0.23235
101.24963,0.23023
101.00856,0.22814
100.76749,0.22391
100.52642,0.21703
100.28535,0.21013
100.04428,0.20625
99.80321,0.20555
99.56214,0.20576
99.32107,0.20508
99.08000,0.20373
98.83893,0.20268
98.59786,0.20178
98.35679,0.20049
98.11572,0.19952
97.87465,0.20028
97.63358,0.20281
97.39250,0.20576
97.15143,0.20813
96.91036,0.20982
96.66929,0.21085
96.42822,0.21119
96.18715,0.21171
95.94608,0.21402
95.70501,0.21870
95.46394,0.22469
95.22287,0.23082
94.98180,0.23683
94.74073,0.24208
94.49966,0.24498
94.25859,0.24484
94.01752,0.24311
93.77645,0.24181
93.53538,0.24201
93.29431,0.24372
93.05323,0.24604
92.81216,0.24739
92.57109,0.24666
92.33002,0.24491
92.08895,0.24475
91.84788,0.24765
91.60681,0.25296
91.36574,0.25968
91.12467,0.26802
90.88360,0.27860
90.64253,0.29198
90.40146,0.30944
90.16039,0.33254
89.91932,0.36170
89.67825,0.39575
89.43718,0.43245
89.19611,0.46871
88.95504,0.50176
88.71396,0.52988
88.47289,0.55065
88.23182,0.56012
87.99075,0.55619
87.74968,0.54096
87.50861,0.51795
87.26754,0.48934
87.02647,0.45696
86.78540,0.42322
86.54433,0.39076
86.30326,0.36216
86.06219,0.33906
85.82112,0.32079
85.58005,0.30437
85.33898,0.28718
85.09791,0.26923
84.85684,0.25226
84.61577,0.23735
84.37469,0.22416
84.13362,0.21218
83.89255,0.20207
83.65148,0.19478
83.41041,0.18983
83.16934,0.18533
82.92827,0.18008
82.68720,0.17438
82.44613,0.16893
82.20506,0.16419
81.96399,0.16054
81.72292,0.15765
81.48185,0.15443
81.24078,0.15044
80.99971,0.14701
80.75864,0.14559
80.51757,0.14556
80.27650,0.14444
80.03542,0.14073
79.79435,0.13567
79.55328,0.13168
79.31221,0.12946
79.07114,0.12778
78.83007,0.12586
78.58900,0.12426
78.34793,0.12354
78.10686,0.12334
77.86579,0.12300
77.62472,0.12206
77.38365,0.12004
77.14258,0.11705
76.90151,0.11444
76.66044,0.11380
76.41937,0.11489
76.17830,0.11504
75.93723,0.11178
75.69615,0.10569
75.45508,0.09974
75.21401,0.09612
74.97294,0.09480
74.73187,0.09485
74.49080,0.09559
74.24973,0.09631
74.00866,0.09641
73.76759,0.09643
73.52652,0.09736
73.28545,0.09888
73.04438,0.09975
72.80331,0.09991
72.56224,0.10048
72.32117,0.10145
72.08010,0.10161
71.83903,0.10080
71.59796,0.10008
71.35688,0.09976
71.11581,0.09971
70.87474,0.10094
70.63367,0.10485
70.39260,0.11109
70.15153,0.11807
69.91046,0.12541
69.66939,0.13430
69.42832,0.14486
69.18725,0.15386
68.94618,0.15704
68.70511,0.15364
68.46404,0.14690
68.22297,0.14001
67.98190,0.13312
67.74083,0.12476
67.49976,0.11524
67.25869,0.10722
67.01761,0.10275
66.77654,0.10073
66.53547,0.09845
66.29440,0.09480
66.05333,0.09050
65.81226,0.08658
65.57119,0.08372
65.33012,0.08252
65.08905,0.08366
64.84798,0.08787
64.60691,0.09517
64.36584,0.10389
64.12477,0.11071
63.88370,0.11274
63.64263,0.10960
63.40156,0.10350
63.16049,0.09739
62.91942,0.09346
62.67834,0.09246
62.43727,0.09327
62.19620,0.09336
61.95513,0.09067
61.71406,0.08505
61.47299,0.07788
61.23192,0.07114
60.99085,0.06634
60.74978,0.06347
60.50871,0.06140
60.26764,0.05982
60.02657,0.05997
59.78550,0.06292
59.54443,0.06769
59.30336,0.07196
59.06229,0.07436
58.82122,0.07492
58.58015,0.07344
58.33907,0.06910
58.09800,0.06249
57.85693,0.05619
57.61586,0.05267
57.37479,0.05249
57.13372,0.05489
56.89265,0.05829
56.65158,0.06055
56.41051,0.06056
56.16944,0.05927
55.92837,0.05778
55.68730,0.05554
55.44623,0.05234
55.20516,0.05059
54.96409,0.05294
54.72302,0.05804
54.48195,0.06114
54.24088,0.05942
53.99980,0.05501
53.75873,0.05251
53.51766,0.05417
53.27659,0.05816
53.03552,0.06150
52.79445,0.06325
52.55338,0.06360
52.31231,0.06174
52.07124,0.05738
51.83017,0.05305
51.58910,0.05215
51.34803,0.05481
51.10696,0.05738
50.86589,0.05593
50.62482,0.05039
50.38375,0.04480
50.14268,0.04258
49.90161,0.04227
49.66053,0.04030
49.41946,0.03676
49.17839,0.03440
48.93732,0.03492
48.69625,0.03869
48.45518,0.04390
48.21411,0.04559
47.97304,0.03980
47.73197,0.02916
47.49090,0.02013
47.24983,0.01557
47.00876,0.01477
46.76769,0.01737
46.52662,0.02338
46.28555,0.03140
46.04448,0.03954
45.80341,0.04528
45.56234,0.04412
45.32126,0.03387
45.08019,0.01908
44.83912,0.00686
44.59805,0.00003
44.35698,-0.00318
44.11591,-0.00409
43.87484,-0.00277
43.63377,0.00032
43.39270,0.00440
43.15163,0.00848
42.91056,0.01035
42.66949,0.00761
42.42842,0.00190
42.18735,-0.00216
41.94628,-0.00433
41.70521,-0.00998
41.46414,-0.02105
41.22307,-0.03066
40.98199,-0.03008
40.74092,-0.01769
40.49985,-0.00004
40.25878,0.01379
40.01771,0.01896
39.77664,0.01693
39.53557,0.01387
39.29450,0.01669
39.05343,0.02692
38.81236,0.03789
38.57129,0.04219
38.33022,0.04132
38.08915,0.03911
37.84808,0.03087
37.60701,0.01340
37.36594,-0.00251
37.12487,-0.00553
36.88380,-0.00107
36.64272,0.00038
36.40165,0.00045
36.16058,0.00441
35.91951,0.00803
35.67844,0.00560
35.43737,0.00044
35.19630,-0.00119
34.95523,0.00101
34.71416,0.00400
34.47309,0.00487
34.23202,-0.00361
33.99095,-0.02853
33.74988,-0.05727
33.50881,-0.06047
33.26774,-0.02835
33.02667,0.02411
32.78560,0.08130
32.54453,0.12901
32.30345,0.14719
32.06238,0.12247
31.82131,0.06606
31.58024,0.00790
31.33917,-0.02619
31.09810,-0.02724
30.85703,-0.00692
30.61596,0.00727
30.37489,0.00133
30.13382,-0.00915
29.89275,0.00030
29.65168,0.03767
29.41061,0.08216
29.16954,0.10089
28.92847,0.08332
28.68740,0.04790
28.44633,0.02537
28.20526,0.02417
27.96418,0.01135
27.72311,-0.04155
27.48204,-0.09984
27.24097,-0.08560
26.99990,0.01436
26.75883,0.13254
26.51776,0.20771
26.27669,0.22115
26.03562,0.19017
25.79455,0.14803
25.55348,0.12355
25.31241,0.13443
25.07134,0.17737
24.83027,0.22097
24.58920,0.23267
24.34813,0.21410
24.10706,0.19657
23.86599,0.20648
23.62491,0.24629
23.38384,0.29256
23.14277,0.30964
22.90170,0.31198
22.66063,0.36237
22.41956,0.46961
22.17849,0.55259
21.93742,0.54595
21.69635,0.49553
21.45528,0.46126
21.21421,0.43910
20.97314,0.39509
20.73207,0.33212
20.49100,0.27692
20.24993,0.25584
20.00886,0.28958
19.76779,0.36614
19.52672,0.42318
19.28564,0.47120
19.04457,0.53896
18.80350,0.64261
18.56243,0.76428
18.32136,0.85644
18.08029,0.88267
17.83922,0.92759
17.59815,0.92885
17.35708,0.77460
17.11601,0.55877
16.87494,0.49448
16.63387,0.55928
16.39280,0.73209
16.15173,1.00286
15.91066,1.17725
15.66959,1.24630
15.42852,1.35847
15.18745,1.13502
14.94637,0.95492
14.70530,0.91832
14.46423,0.89810
14.22316,0.87373
13.98209,0.84701
13.74102,0.76070
13.49995,0.68851
13.25888,0.74006
13.01781,0.89051
12.77674,1.01458
12.53567,0.96282
12.29460,0.89615
12.05353,0.93167
11.81246,0.98440
11.57139,0.97724
11.33032,0.87092
11.08925,0.68813
10.84818,0.62536
10.60710,0.79776
10.36603,0.98581
10.12496,1.00785
9.88389,0.84699
9.64282,0.71400
9.40175,0.75154
9.16068,0.86721
8.91961,0.90548
8.67854,0.88288
8.43747,0.90451
8.19640,0.92802
7.95533,1.13267
7.71426,1.49140
7.47319,1.75048
7.23212,1.63309
6.99105,1.40808
6.74998,1.39571
6.50891,1.66222
6.26783,1.52867
6.02676,1.35599
5.78569,1.23139
5.54462,1.13399
5.30355,1.08004
5.06248,1.06258
4.82141,1.18398
4.58034,1.47154
4.33927,1.58556
4.09820,1.42073
3.85713,1.14872
3.61606,0.95471
3.37499,1.02695
3.13392,1.31311
2.89285,1.51980
2.65178,1.25711
2.41071,0.87585
2.16964,0.70175
1.92856,0.74353
1.68749,0.89777
1.44642,0.98903
1.20535,0.90568
0.96428,0.83649
0.72321,0.72109
0.48214,0.64115
0.24107,0.68658
-0.00000,0.72565
