399.69498,1.48863
399.45391,1.50569
399.21284,1.51722
398.97177,1.51257
398.73070,1.49747
398.48963,1.48598
398.24856,1.48610
398.00749,1.49805
397.76642,1.51597
397.52535,1.52799
397.28428,1.52167
397.04321,1.49814
396.80214,1.47347
396.56107,1.45893
396.32000,1.45042
396.07892,1.44028
395.83785,1.43290
395.59678,1.43921
395.35571,1.45794
395.11464,1.47185
394.87357,1.46773
394.63250,1.45224
394.39143,1.43894
394.15036,1.43236
393.90929,1.43149
393.66822,1.43779
393.42715,1.45225
393.18608,1.47012
392.94501,1.48386
392.70394,1.48933
392.46287,1.48806
392.22180,1.48338
391.98073,1.47461
391.73965,1.45928
391.49858,1.44105
391.25751,1.42955
391.01644,1.43147
390.77537,1.44393
390.53430,1.45630
390.29323,1.45939
390.05216,1.45193
389.81109,1.43683
389.57002,1.41617
389.32895,1.39340
389.08788,1.37661
388.84681,1.37349
388.60574,1.38244
388.36467,1.39399
388.12360,1.40160
387.88253,1.40417
387.64146,1.39955
387.40038,1.38489
387.15931,1.36214
386.91824,1.33865
386.67717,1.32333
386.43610,1.32314
386.19503,1.33747
385.95396,1.35496
385.71289,1.36320
385.47182,1.36153
385.23075,1.35508
384.98968,1.34302
384.74861,1.32402
384.50754,1.30574
384.26647,1.29691
384.02540,1.29456
383.78433,1.28746
383.54326,1.27062
383.30219,1.25181
383.06111,1.24213
382.82004,1.24049
382.57897,1.23250
382.33790,1.21063
382.09683,1.18662
381.85576,1.17431
381.61469,1.17391
381.37362,1.17899
381.13255,1.18719
380.89148,1.19570
380.65041,1.19743
380.40934,1.19050
380.16827,1.18422
379.92720,1.18788
379.68613,1.19742
379.44506,1.20179
379.20399,1.19916
378.96292,1.20032
378.72184,1.21090
378.48077,1.22134
378.23970,1.22182
377.99863,1.21713
377.75756,1.21608
377.51649,1.22027
377.27542,1.23159
377.03435,1.25521
376.79328,1.28812
376.55221,1.31505
376.31114,1.32329
376.07007,1.31587
375.82900,1.30524
375.58793,1.30053
375.34686,1.30465
375.10579,1.31537
374.86472,1.32687
374.62365,1.33504
374.38257,1.33914
374.14150,1.34004
373.90043,1.34110
373.65936,1.34834
373.41829,1.36543
373.17722,1.38661
372.93615,1.39854
372.69508,1.39206
372.45401,1.37299
372.21294,1.35542
371.97187,1.34595
371.73080,1.34144
371.48973,1.33639
371.24866,1.32992
371.00759,1.32444
370.76652,1.32012
370.52545,1.31499
370.28437,1.30883
370.04330,1.30440
369.80223,1.30493
369.56116,1.31064
369.32009,1.31729
369.07902,1.31970
368.83795,1.31753
368.59688,1.31392
368.35581,1.30990
368.11474,1.30587
367.87367,1.30448
367.63260,1.30663
367.39153,1.30900
367.15046,1.30873
366.90939,1.30587
366.66832,1.30045
366.42725,1.29264
366.18618,1.28491
365.94510,1.27972
365.70403,1.27787
365.46296,1.28058
365.22189,1.28756
364.98082,1.29294
364.73975,1.28938
364.49868,1.27712
364.25761,1.26332
364.01654,1.25402
363.77547,1.25215
363.53440,1.25802
363.29333,1.26825
363.05226,1.27668
362.81119,1.27833
362.57012,1.27225
362.32905,1.26177
362.08798,1.25262
361.84691,1.24814
361.60583,1.24602
361.36476,1.24256
361.12369,1.23886
360.88262,1.23930
360.64155,1.24493
360.40048,1.25157
360.15941,1.25422
359.91834,1.25144
359.67727,1.24551
359.43620,1.24021
359.19513,1.23944
358.95406,1.24430
358.71299,1.24973
358.47192,1.24823
358.23085,1.23910
357.98978,1.22970
357.74871,1.22545
357.50764,1.22383
357.26656,1.22028
357.02549,1.21481
356.78442,1.21131
356.54335,1.21204
356.30228,1.21524
356.06121,1.21906
355.82014,1.22379
355.57907,1.22822
355.33800,1.22935
355.09693,1.22776
354.85586,1.22759
354.61479,1.23004
354.37372,1.23162
354.13265,1.22969
353.89158,1.22626
353.65051,1.22461
353.40944,1.22478
353.16837,1.22343
352.92729,1.21832
352.68622,1.21200
352.44515,1.20904
352.20408,1.21053
351.96301,1.21340
351.72194,1.21441
351.48087,1.21271
351.23980,1.20981
350.99873,1.20941
350.75766,1.21446
350.51659,1.22205
350.27552,1.22581
350.03445,1.22567
349.79338,1.22811
349.55231,1.23452
349.31124,1.23782
349.07017,1.23396
348.82910,1.22780
348.58802,1.22417
348.34695,1.22177
348.10588,1.21800
347.86481,1.21432
347.62374,1.21489
347.38267,1.22141
347.14160,1.23042
346.90053,1.23543
346.65946,1.23331
346.41839,1.22854
346.17732,1.22771
345.93625,1.23148
345.69518,1.23545
345.45411,1.23722
345.21304,1.23877
344.97197,1.24210
344.73090,1.24603
344.48983,1.24853
344.24875,1.25044
344.00768,1.25487
343.76661,1.26223
343.52554,1.26813
343.28447,1.26862
343.04340,1.26574
342.80233,1.26443
342.56126,1.26557
342.32019,1.26646
342.07912,1.26697
341.83805,1.27073
341.59698,1.27976
341.35591,1.29120
341.11484,1.30011
340.87377,1.30356
340.63270,1.30305
340.39163,1.30366
340.15056,1.30889
339.90948,1.31506
339.66841,1.31446
339.42734,1.30740
339.18627,1.30366
338.94520,1.30932
338.70413,1.31906
338.46306,1.32449
338.22199,1.32619
337.98092,1.33069
337.73985,1.33763
337.49878,1.34050
337.25771,1.33983
337.01664,1.34236
336.77557,1.34670
336.53450,1.34404
336.29343,1.33430
336.05236,1.32785
335.81129,1.32836
335.57021,1.32765
335.32914,1.32014
335.08807,1.31280
334.84700,1.31516
334.60593,1.32477
334.36486,1.32879
334.12379,1.32083
333.88272,1.30670
333.64165,1.29276
333.40058,1.28172
333.15951,1.27606
332.91844,1.27653
332.67737,1.28001
332.43630,1.28230
332.19523,1.28110
331.95416,1.27620
331.71309,1.26925
331.47202,1.26192
331.23094,1.25461
330.98987,1.24831
330.74880,1.24501
330.50773,1.24441
330.26666,1.24215
330.02559,1.23414
329.78452,1.22237
329.54345,1.21299
329.30238,1.20878
329.06131,1.20843
328.82024,1.21250
328.57917,1.22267
328.33810,1.23437
328.09703,1.23900
327.85596,1.23531
327.61489,1.23089
327.37382,1.23076
327.13275,1.23235
326.89167,1.23147
326.65060,1.22889
326.40953,1.22959
326.16846,1.23501
325.92739,1.23910
325.68632,1.23572
325.44525,1.22669
325.20418,1.21751
324.96311,1.21059
324.72204,1.20569
324.48097,1.20251
324.23990,1.20158
323.99883,1.20431
323.75776,1.21171
323.51669,1.22126
323.27562,1.22679
323.03455,1.22504
322.79348,1.22050
322.55240,1.21950
322.31133,1.22212
322.07026,1.22391
321.82919,1.22245
321.58812,1.21913
321.34705,1.21761
321.10598,1.22295
320.86491,1.23659
320.62384,1.25009
320.38277,1.25167
320.14170,1.24087
319.90063,1.22801
319.65956,1.22112
319.41849,1.22175
319.17742,1.22984
318.93635,1.24467
318.69528,1.25978
318.45421,1.26330
318.21313,1.25063
317.97206,1.23379
317.73099,1.22916
317.48992,1.23878
317.24885,1.25064
317.00778,1.25398
316.76671,1.24660
316.52564,1.23397
316.28457,1.22668
316.04350,1.23224
315.80243,1.24741
315.56136,1.25997
315.32029,1.26048
315.07922,1.25216
314.83815,1.24668
314.59708,1.25126
314.35601,1.26341
314.11494,1.27407
313.87386,1.27444
313.63279,1.26477
313.39172,1.25535
313.15065,1.25662
312.90958,1.26646
312.66851,1.26997
312.42744,1.25935
312.18637,1.24599
311.94530,1.24405
311.70423,1.25492
311.46316,1.27020
311.22209,1.28246
310.98102,1.29195
310.73995,1.30279
310.49888,1.31308
310.25781,1.31468
310.01674,1.30401
309.77567,1.28887
309.53459,1.28102
309.29352,1.28333
309.05245,1.28974
308.81138,1.29709
308.57031,1.30744
308.32924,1.31796
308.08817,1.32144
307.84710,1.31924
307.60603,1.32141
307.36496,1.33074
307.12389,1.33637
306.88282,1.32713
306.64175,1.30607
306.40068,1.28750
306.15961,1.28182
305.91854,1.28771
305.67747,1.29705
305.43640,1.30401
305.19532,1.30884
304.95425,1.31342
304.71318,1.31591
304.47211,1.31310
304.23104,1.30487
303.98997,1.29342
303.74890,1.28082
303.50783,1.26843
303.26676,1.25795
303.02569,1.25277
302.78462,1.25604
302.54355,1.26537
302.30248,1.27233
302.06141,1.27061
301.82034,1.26241
301.57927,1.25424
301.33820,1.25025
301.09713,1.25032
300.85605,1.25053
300.61498,1.24673
300.37391,1.23853
300.13284,1.22939
299.89177,1.22318
299.65070,1.22089
299.40963,1.22115
299.16856,1.22154
298.92749,1.21914
298.68642,1.21157
298.44535,1.19918
298.20428,1.18678
297.96321,1.18070
297.72214,1.18359
297.48107,1.19257
297.24000,1.20222
296.99893,1.20788
296.75786,1.20633
296.51678,1.19740
296.27571,1.18515
296.03464,1.17505
295.79357,1.17112
295.55250,1.17401
295.31143,1.18026
295.07036,1.18454
294.82929,1.18399
294.58822,1.18066
294.34715,1.17888
294.10608,1.18034
293.86501,1.18209
293.62394,1.17972
293.38287,1.17312
293.14180,1.16720
292.90073,1.16536
292.65966,1.16507
292.41859,1.16117
292.17751,1.15290
291.93644,1.14569
291.69537,1.14513
291.45430,1.15019
291.21323,1.15337
290.97216,1.14873
290.73109,1.13865
290.49002,1.13009
290.24895,1.12614
290.00788,1.12469
289.76681,1.12378
289.52574,1.12448
289.28467,1.12863
289.04360,1.13554
288.80253,1.14136
288.56146,1.14255
288.32039,1.13938
288.07932,1.13458
287.83824,1.12990
287.59717,1.12584
287.35610,1.12266
287.11503,1.12039
286.87396,1.11915
286.63289,1.11863
286.39182,1.11732
286.15075,1.11488
285.90968,1.11393
285.66861,1.11613
285.42754,1.11788
285.18647,1.11450
284.94540,1.10726
284.70433,1.10136
284.46326,1.09902
284.22219,1.09895
283.98112,1.10024
283.74005,1.10345
283.49897,1.10814
283.25790,1.11164
283.01683,1.11150
282.77576,1.10813
282.53469,1.10425
282.29362,1.10290
282.05255,1.10514
281.81148,1.10858
281.57041,1.11010
281.32934,1.11000
281.08827,1.11069
280.84720,1.11285
280.60613,1.11539
280.36506,1.11729
280.12399,1.11705
279.88292,1.11276
279.64185,1.10506
279.40078,1.09890
279.15970,1.09965
278.91863,1.10665
278.67756,1.11274
278.43649,1.11249
278.19542,1.10918
277.95435,1.10944
277.71328,1.11421
277.47221,1.11947
277.23114,1.12187
276.99007,1.12089
276.74900,1.11833
276.50793,1.11660
276.26686,1.11620
276.02579,1.11588
275.78472,1.11589
275.54365,1.11820
275.30258,1.12339
275.06151,1.12909
274.82043,1.13246
274.57936,1.13293
274.33829,1.13178
274.09722,1.13034
273.85615,1.13019
273.61508,1.13278
273.37401,1.13669
273.13294,1.13800
272.89187,1.13530
272.65080,1.13202
272.40973,1.13200
272.16866,1.13554
271.92759,1.13980
271.68652,1.14158
271.44545,1.14197
271.20438,1.14601
270.96331,1.15544
270.72224,1.16551
270.48116,1.17078
270.24009,1.17046
269.99902,1.16661
269.75795,1.16198
269.51688,1.16040
269.27581,1.16513
269.03474,1.17526
268.79367,1.18569
268.55260,1.19185
268.31153,1.19353
268.07046,1.19396
267.82939,1.19626
267.58832,1.20117
267.34725,1.20676
267.10618,1.21040
266.86511,1.21236
266.62404,1.21668
266.38297,1.22639
266.14189,1.23919
265.90082,1.25032
265.65975,1.25850
265.41868,1.26618
265.17761,1.27541
264.93654,1.28582
264.69547,1.29605
264.45440,1.30583
264.21333,1.31632
263.97226,1.32867
263.73119,1.34300
263.49012,1.35791
263.24905,1.37090
263.00798,1.38197
262.76691,1.39463
262.52584,1.41091
262.28477,1.42844
262.04370,1.44431
261.80262,1.45822
261.56155,1.47036
261.32048,1.48059
261.07941,1.49038
260.83834,1.50061
260.59727,1.50781
260.35620,1.51073
260.11513,1.51856
259.87406,1.54060
259.63299,1.57078
259.39192,1.59745
259.15085,1.62360
258.90978,1.65702
258.66871,1.68886
258.42764,1.70271
258.18657,1.70191
257.94550,1.70808
257.70443,1.73042
257.46335,1.74951
257.22228,1.74114
256.98121,1.71261
256.74014,1.68962
256.49907,1.68774
256.25800,1.70479
256.01693,1.72154
255.77586,1.71608
255.53479,1.68865
255.29372,1.65967
255.05265,1.64120
254.81158,1.62551
254.57051,1.59909
254.32944,1.56019
254.08837,1.52233
253.84730,1.50171
253.60623,1.50340
253.36516,1.51889
253.12408,1.53363
252.88301,1.53720
252.64194,1.53002
252.40087,1.51959
252.15980,1.51139
251.91873,1.50597
251.67766,1.50027
251.43659,1.49194
251.19552,1.48372
250.95445,1.48311
250.71338,1.49418
250.47231,1.50883
250.23124,1.51213
249.99017,1.50036
249.74910,1.48607
249.50803,1.48100
249.26696,1.48376
249.02589,1.48529
248.78481,1.48065
248.54374,1.47238
248.30267,1.46548
248.06160,1.46437
247.82053,1.47247
247.57946,1.48795
247.33839,1.50158
247.09732,1.50580
246.85625,1.50311
246.61518,1.49936
246.37411,1.49404
246.13304,1.48511
245.89197,1.47913
245.65090,1.48533
245.40983,1.50420
245.16876,1.53000
244.92769,1.56026
244.68661,1.59416
244.44554,1.62291
244.20447,1.63562
243.96340,1.63764
243.72233,1.64900
243.48126,1.68306
243.24019,1.73749
242.99912,1.80270
242.75805,1.86678
242.51698,1.90598
242.27591,1.89471
242.03484,1.84670
241.79377,1.78150
241.55270,1.70195
241.31163,1.62203
241.07056,1.55493
240.82949,1.49888
240.58842,1.44671
240.34734,1.39866
240.10627,1.35915
239.86520,1.32742
239.62413,1.29792
239.38306,1.26721
239.14199,1.23688
238.90092,1.20942
238.65985,1.18342
238.41878,1.15515
238.17771,1.12475
237.93664,1.09697
237.69557,1.07573
237.45450,1.06095
237.21343,1.05063
236.97236,1.04238
236.73129,1.03302
236.49022,1.02079
236.24915,1.00779
236.00807,0.99708
235.76700,0.98850
235.52593,0.97962
235.28486,0.96962
235.04379,0.96004
234.80272,0.95192
234.56165,0.94478
234.32058,0.93825
234.07951,0.93280
233.83844,0.92861
233.59737,0.92523
233.35630,0.92232
233.11523,0.91968
232.87416,0.91698
232.63309,0.91353
232.39202,0.90832
232.15095,0.90126
231.90988,0.89449
231.66880,0.89065
231.42773,0.88963
231.18666,0.88868
230.94559,0.88567
230.70452,0.88059
230.46345,0.87432
230.22238,0.86799
229.98131,0.86372
229.74024,0.86327
229.49917,0.86572
229.25810,0.86805
229.01703,0.86831
228.77596,0.86685
228.53489,0.86456
228.29382,0.86157
228.05275,0.85746
227.81168,0.85216
227.57061,0.84680
227.32953,0.84279
227.08846,0.83978
226.84739,0.83623
226.60632,0.83234
226.36525,0.83036
226.12418,0.83145
225.88311,0.83433
225.64204,0.83682
225.40097,0.83748
225.15990,0.83648
224.91883,0.83568
224.67776,0.83644
224.43669,0.83823
224.19562,0.84022
223.95455,0.84231
223.71348,0.84351
223.47241,0.84293
223.23134,0.84244
222.99026,0.84470
222.74919,0.84890
222.50812,0.85251
222.26705,0.85602
222.02598,0.86172
221.78491,0.86917
221.54384,0.87573
221.30277,0.88055
221.06170,0.88497
220.82063,0.88993
220.57956,0.89553
220.33849,0.90233
220.09742,0.91089
219.85635,0.92042
219.61528,0.92911
219.37421,0.93619
219.13314,0.94303
218.89207,0.95212
218.65099,0.96472
218.40992,0.97945
218.16885,0.99305
217.92778,1.00363
217.68671,1.01257
217.44564,1.02249
217.20457,1.03449
216.96350,1.04783
216.72243,1.06112
216.48136,1.07332
216.24029,1.08403
215.99922,1.09354
215.75815,1.10371
215.51708,1.11708
215.27601,1.13310
215.03494,1.14746
214.79387,1.15830
214.55280,1.16975
214.31172,1.18537
214.07065,1.20237
213.82958,1.21609
213.58851,1.22567
213.34744,1.23284
213.10637,1.23992
212.86530,1.24926
212.62423,1.25970
212.38316,1.26581
212.14209,1.26551
211.90102,1.26479
211.65995,1.27019
211.41888,1.28121
211.17781,1.29293
210.93674,1.30193
210.69567,1.30633
210.45460,1.30395
210.21353,1.29565
209.97245,1.28707
209.73138,1.28228
209.49031,1.27894
209.24924,1.27268
209.00817,1.26439
208.76710,1.25963
208.52603,1.26076
208.28496,1.26228
208.04389,1.25713
207.80282,1.24601
207.56175,1.23566
207.32068,1.22901
207.07961,1.22227
206.83854,1.21209
206.59747,1.20075
206.35640,1.19192
206.11533,1.18564
205.87426,1.18017
205.63318,1.17382
205.39211,1.16343
205.15104,1.14581
204.90997,1.12255
204.66890,1.09936
204.42783,1.08053
204.18676,1.06618
203.94569,1.05457
203.70462,1.04464
203.46355,1.03615
203.22248,1.02858
202.98141,1.02024
202.74034,1.00872
202.49927,0.99325
202.25820,0.97630
202.01713,0.96101
201.77606,0.94783
201.53499,0.93445
201.29391,0.91844
201.05284,0.90022
200.81177,0.88295
200.57070,0.86953
200.32963,0.85980
200.08856,0.85065
199.84749,0.83939
199.60642,0.82654
199.36535,0.81460
199.12428,0.80491
198.88321,0.79681
198.64214,0.78912
198.40107,0.78096
198.16000,0.77164
197.91893,0.76142
197.67786,0.75134
197.43679,0.74185
197.19572,0.73281
196.95464,0.72460
196.71357,0.71756
196.47250,0.71094
196.23143,0.70386
195.99036,0.69638
195.74929,0.68897
195.50822,0.68173
195.26715,0.67467
195.02608,0.66823
194.78501,0.66308
194.54394,0.65933
194.30287,0.65589
194.06180,0.65144
193.82073,0.64579
193.57966,0.63944
193.33859,0.63274
193.09752,0.62632
192.85645,0.62123
192.61537,0.61771
192.37430,0.61456
192.13323,0.61057
191.89216,0.60578
191.65109,0.60100
191.41002,0.59666
191.16895,0.59274
190.92788,0.58920
190.68681,0.58598
190.44574,0.58296
190.20467,0.58000
189.96360,0.57696
189.72253,0.57376
189.48146,0.57068
189.24039,0.56825
188.99932,0.56652
188.75825,0.56486
188.51718,0.56270
188.27610,0.56048
188.03503,0.55930
187.79396,0.55945
187.55289,0.55953
187.31182,0.55792
187.07075,0.55480
186.82968,0.55196
186.58861,0.55066
186.34754,0.55082
186.10647,0.55199
185.86540,0.55373
185.62433,0.55517
185.38326,0.55537
185.14219,0.55451
184.90112,0.55403
184.66005,0.55510
184.41898,0.55717
184.17791,0.55878
183.93683,0.55959
183.69576,0.56058
183.45469,0.56200
183.21362,0.56274
182.97255,0.56252
182.73148,0.56264
182.49041,0.56374
182.24934,0.56459
182.00827,0.56407
181.76720,0.56296
181.52613,0.56286
181.28506,0.56403
181.04399,0.56528
180.80292,0.56600
180.56185,0.56733
180.32078,0.57070
180.07971,0.57597
179.83864,0.58167
179.59756,0.58666
179.35649,0.59078
179.11542,0.59471
178.87435,0.59942
178.63328,0.60539
178.39221,0.61230
178.15114,0.61998
177.91007,0.62902
177.66900,0.63995
177.42793,0.65237
177.18686,0.66546
176.94579,0.67892
176.70472,0.69326
176.46365,0.70931
176.22258,0.72698
175.98151,0.74466
175.74044,0.76114
175.49937,0.77733
175.25829,0.79450
175.01722,0.81228
174.77615,0.83019
174.53508,0.84877
174.29401,0.86763
174.05294,0.88506
173.81187,0.90063
173.57080,0.91527
173.32973,0.92878
173.08866,0.94033
172.84759,0.95082
172.60652,0.96145
172.36545,0.97065
172.12438,0.97546
171.88331,0.97577
171.64224,0.97474
171.40117,0.97463
171.16010,0.97478
170.91902,0.97419
170.67795,0.97356
170.43688,0.97290
170.19581,0.96949
169.95474,0.96121
169.71367,0.94982
169.47260,0.93860
169.23153,0.92904
168.99046,0.92105
168.74939,0.91467
168.50832,0.91034
168.26725,0.90825
168.02618,0.90782
167.78511,0.90808
167.54404,0.90872
167.30297,0.91002
167.06190,0.91128
166.82083,0.91116
166.57975,0.91070
166.33868,0.91286
166.09761,0.91807
165.85654,0.92335
165.61547,0.92691
165.37440,0.93081
165.13333,0.93753
164.89226,0.94653
164.65119,0.95521
164.41012,0.96217
164.16905,0.96864
163.92798,0.97658
163.68691,0.98591
163.44584,0.99452
163.20477,1.00173
162.96370,1.00968
162.72263,1.01937
162.48156,1.02868
162.24048,1.03630
161.99941,1.04391
161.75834,1.05230
161.51727,1.05874
161.27620,1.05993
161.03513,1.05603
160.79406,1.04974
160.55299,1.04294
160.31192,1.03574
160.07085,1.02828
159.82978,1.02151
159.58871,1.01566
159.34764,1.00929
159.10657,1.00173
158.86550,0.99513
158.62443,0.99239
158.38336,0.99407
158.14229,0.99832
157.90121,1.00143
157.66014,0.99885
157.41907,0.98931
157.17800,0.97734
156.93693,0.96868
156.69586,0.96437
156.45479,0.96108
156.21372,0.95555
155.97265,0.94720
155.73158,0.93725
155.49051,0.92685
155.24944,0.91654
155.00837,0.90648
154.76730,0.89619
154.52623,0.88458
154.28516,0.87127
154.04409,0.85757
153.80302,0.84525
153.56194,0.83379
153.32087,0.82047
153.07980,0.80383
152.83873,0.78585
152.59766,0.76944
152.35659,0.75497
152.11552,0.74066
151.87445,0.72555
151.63338,0.71053
151.39231,0.69664
151.15124,0.68385
150.91017,0.67086
150.66910,0.65607
150.42803,0.63962
150.18696,0.62427
149.94589,0.61247
149.70482,0.60368
149.46375,0.59558
149.22267,0.58681
148.98160,0.57768
148.74053,0.56915
148.49946,0.56191
148.25839,0.55605
148.01732,0.55117
147.77625,0.54717
147.53518,0.54472
147.29411,0.54401
147.05304,0.54379
146.81197,0.54278
146.57090,0.54165
146.32983,0.54223
146.08876,0.54505
145.84769,0.54883
145.60662,0.55236
145.36555,0.55619
145.12448,0.56161
144.88340,0.56845
144.64233,0.57503
144.40126,0.58001
144.16019,0.58335
143.91912,0.58535
143.67805,0.58570
143.43698,0.58354
143.19591,0.57868
142.95484,0.57247
142.71377,0.56628
142.47270,0.55939
142.23163,0.55034
141.99056,0.54005
141.74949,0.53120
141.50842,0.52468
141.26735,0.51904
141.02628,0.51317
140.78521,0.50757
140.54413,0.50311
140.30306,0.50006
140.06199,0.49843
139.82092,0.49825
139.57985,0.49954
139.33878,0.50233
139.09771,0.50636
138.85664,0.51111
138.61557,0.51659
138.37450,0.52365
138.13343,0.53270
137.89236,0.54277
137.65129,0.55300
137.41022,0.56433
137.16915,0.57832
136.92808,0.59483
136.68701,0.61246
136.44594,0.63067
136.20486,0.65023
135.96379,0.67193
135.72272,0.69591
135.48165,0.72214
135.24058,0.75046
134.99951,0.78030
134.75844,0.81125
134.51737,0.84354
134.27630,0.87740
134.03523,0.91216
133.79416,0.94636
133.55309,0.97892
133.31202,1.01030
133.07095,1.04207
132.82988,1.07411
132.58881,1.10334
132.34774,1.12777
132.10667,1.14920
131.86559,1.16831
131.62452,1.18122
131.38345,1.18373
131.14238,1.17559
130.90131,1.16005
130.66024,1.14201
130.41917,1.12517
130.17810,1.10884
129.93703,1.08807
129.69596,1.05877
129.45489,1.02274
129.21382,0.98646
128.97275,0.95385
128.73168,0.92209
128.49061,0.88654
128.24954,0.84816
128.00847,0.81252
127.76740,0.78331
127.52632,0.75952
127.28525,0.73710
127.04418,0.71238
126.80311,0.68543
126.56204,0.65939
126.32097,0.63619
126.07990,0.61520
125.83883,0.59575
125.59776,0.57813
125.35669,0.56247
125.11562,0.54794
124.87455,0.53358
124.63348,0.51907
124.39241,0.50483
124.15134,0.49173
123.91027,0.48064
123.66920,0.47196
123.42812,0.46526
123.18705,0.45957
122.94598,0.45452
122.70491,0.45092
122.46384,0.44968
122.22277,0.45035
121.98170,0.45114
121.74063,0.45044
121.49956,0.44854
121.25849,0.44742
121.01742,0.44900
120.77635,0.45390
120.53528,0.46163
120.29421,0.47133
120.05314,0.48224
119.81207,0.49418
119.57100,0.50803
119.32993,0.52536
119.08885,0.54755
118.84778,0.57439
118.60671,0.60377
118.36564,0.63311
118.12457,0.66134
117.88350,0.68885
117.64243,0.71594
117.40136,0.74181
117.16029,0.76463
116.91922,0.78214
116.67815,0.79259
116.43708,0.79528
116.19601,0.79108
115.95494,0.78263
115.71387,0.77281
115.47280,0.76279
115.23173,0.75182
114.99066,0.73877
114.74958,0.72407
114.50851,0.70984
114.26744,0.69770
114.02637,0.68744
113.78530,0.67894
113.54423,0.67367
113.30316,0.67282
113.06209,0.67480
112.82102,0.67637
112.57995,0.67646
112.33888,0.67743
112.09781,0.68240
111.85674,0.69203
111.61567,0.70391
111.37460,0.71420
111.13353,0.71988
110.89246,0.72079
110.65139,0.71972
110.41031,0.71886
110.16924,0.71678
109.92817,0.71049
109.68710,0.69900
109.44603,0.68299
109.20496,0.66294
108.96389,0.64042
108.72282,0.61905
108.48175,0.60149
108.24068,0.58667
107.99961,0.57194
107.75854,0.55621
107.51747,0.53956
107.27640,0.52191
107.03533,0.50404
106.79426,0.48769
106.55319,0.47378
106.31212,0.46176
106.07104,0.45058
105.82997,0.43938
105.58890,0.42778
105.34783,0.41628
105.10676,0.40594
104.86569,0.39709
104.62462,0.38848
104.38355,0.37836
104.14248,0.36671
103.90141,0.35554
103.66034,0.34638
103.41927,0.33861
103.17820,0.33096
102.93713,0.32351
102.69606,0.31727
102.45499,0.31241
102.21392,0.30788
101.97285,0.30242
101.73177,0.29583
101.49070,0.28925
101.24963,0.28411
101.00856,0.28089
100.76749,0.27872
100.52642,0.27622
100.28535,0.27269
100.04428,0.26862
99.80321,0.26498
99.56214,0.26220
99.32107,0.25983
99.08000,0.25706
98.83893,0.25375
98.59786,0.25064
98.35679,0.24843
98.11572,0.24723
97.87465,0.24703
97.63358,0.24781
97.39250,0.24911
97.15143,0.25023
96.91036,0.25135
96.66929,0.25371
96.42822,0.25818
96.18715,0.26413
95.94608,0.27021
95.70501,0.27600
95.46394,0.28216
95.22287,0.28910
94.98180,0.29623
94.74073,0.30239
94.49966,0.30637
94.25859,0.30775
94.01752,0.30750
93.77645,0.30729
93.53538,0.30782
93.29431,0.30867
93.05323,0.30942
92.81216,0.31006
92.57109,0.31019
92.33002,0.30917
92.08895,0.30739
91.84788,0.30684
91.60681,0.30972
91.36574,0.31696
91.12467,0.32822
90.88360,0.34284
90.64253,0.36066
90.40146,0.38232
90.16039,0.40931
89.91932,0.44327
89.67825,0.48403
89.43718,0.52859
89.19611,0.57302
88.95504,0.61529
88.71396,0.65427
88.47289,0.68507
88.23182,0.69828
87.99075,0.68852
87.74968,0.66103
87.50861,0.62511
87.26754,0.58659
87.02647,0.54852
86.78540,0.51275
86.54433,0.47954
86.30326,0.44837
86.06219,0.41922
85.82112,0.39228
85.58005,0.36772
85.33898,0.34612
85.09791,0.32806
84.85684,0.31311
84.61577,0.30024
84.37469,0.28878
84.13362,0.27833
83.89255,0.26821
83.65148,0.25768
83.41041,0.24677
83.16934,0.23650
82.92827,0.22797
82.68720,0.22119
82.44613,0.21532
82.20506,0.20986
81.96399,0.20521
81.72292,0.20186
81.48185,0.19985
81.24078,0.19868
80.99971,0.19732
80.75864,0.19479
80.51757,0.19114
80.27650,0.18748
80.03542,0.18463
79.79435,0.18241
79.55328,0.18028
79.31221,0.17818
79.07114,0.17642
78.83007,0.17503
78.58900,0.17324
78.34793,0.17019
78.10686,0.16626
77.86579,0.16295
77.62472,0.16102
77.38365,0.15947
77.14258,0.15714
76.90151,0.15442
76.66044,0.15267
76.41937,0.15239
76.17830,0.15274
75.93723,0.15274
75.69615,0.15212
75.45508,0.15113
75.21401,0.14981
74.97294,0.14824
74.73187,0.14702
74.49080,0.14691
74.24973,0.14779
74.00866,0.14896
73.76759,0.14991
73.52652,0.15029
73.28545,0.14996
73.04438,0.14940
72.80331,0.14908
72.56224,0.14867
72.32117,0.14761
72.08010,0.14598
71.83903,0.14459
71.59796,0.14454
71.35688,0.14622
71.11581,0.14885
70.87474,0.15176
70.63367,0.15558
70.39260,0.16126
70.15153,0.16926
69.91046,0.17994
69.66939,0.19293
69.42832,0.20592
69.18725,0.21560
68.94618,0.21956
68.70511,0.21682
68.46404,0.20816
68.22297,0.19640
67.98190,0.18476
67.74083,0.17478
67.49976,0.16620
67.25869,0.15846
67.01761,0.15179
66.77654,0.14695
66.53547,0.14415
66.29440,0.14259
66.05333,0.14112
65.81226,0.13925
65.57119,0.13773
65.33012,0.13806
65.08905,0.14112
64.84798,0.14676
64.60691,0.15444
64.36584,0.16313
64.12477,0.17087
63.88370,0.17580
63.64263,0.17714
63.40156,0.17453
63.16049,0.16822
62.91942,0.16016
62.67834,0.15304
62.43727,0.14790
62.19620,0.14395
61.95513,0.14003
61.71406,0.13557
61.47299,0.13065
61.23192,0.12587
60.99085,0.12201
60.74978,0.11962
60.50871,0.11901
60.26764,0.12014
60.02657,0.12221
59.78550,0.12398
59.54443,0.12494
59.30336,0.12554
59.06229,0.12606
58.82122,0.12638
58.58015,0.12692
58.33907,0.12807
58.09800,0.12914
57.85693,0.12952
57.61586,0.12958
57.37479,0.12940
57.13372,0.12793
56.89265,0.12474
56.65158,0.12085
56.41051,0.11737
56.16944,0.11489
55.92837,0.11376
55.68730,0.11379
55.44623,0.11452
55.20516,0.11619
54.96409,0.11898
54.72302,0.12133
54.48195,0.12125
54.24088,0.11928
53.99980,0.11801
53.75873,0.11867
53.51766,0.12020
53.27659,0.12163
53.03552,0.12345
52.79445,0.12652
52.55338,0.13057
52.31231,0.13405
52.07124,0.13522
51.83017,0.13384
51.58910,0.13148
51.34803,0.12964
51.10696,0.12821
50.86589,0.12673
50.62482,0.12661
50.38375,0.13023
50.14268,0.13752
49.90161,0.14485
49.66053,0.14857
49.41946,0.14823
49.17839,0.14544
48.93732,0.14206
48.69625,0.14057
48.45518,0.14309
48.21411,0.14800
47.97304,0.15035
47.73197,0.14788
47.49090,0.14448
47.24983,0.14407
47.00876,0.14462
46.76769,0.14207
46.52662,0.13647
46.28555,0.13089
46.04448,0.12761
45.80341,0.12776
45.56234,0.13156
45.32126,0.13714
45.08019,0.14104
44.83912,0.14161
44.59805,0.14115
44.35698,0.14257
44.11591,0.14536
43.87484,0.14692
43.63377,0.14707
43.39270,0.14931
43.15163,0.15737
42.91056,0.16986
42.66949,0.17965
42.42842,0.18063
42.18735,0.17319
41.94628,0.16177
41.70521,0.15083
41.46414,0.14405
41.22307,0.14346
40.98199,0.14820
40.74092,0.15597
40.49985,0.16504
40.25878,0.17342
40.01771,0.17818
39.77664,0.17817
39.53557,0.17679
39.29450,0.17964
39.05343,0.18890
38.81236,0.20156
38.57129,0.21366
38.33022,0.22376
38.08915,0.22957
37.84808,0.22618
37.60701,0.21419
37.36594,0.20354
37.12487,0.20147
36.88380,0.20452
36.64272,0.20627
36.40165,0.20504
36.16058,0.20129
35.91951,0.19438
35.67844,0.18505
35.43737,0.17638
35.19630,0.17120
34.95523,0.17180
34.71416,0.17743
34.47309,0.17963
34.23202,0.16983
33.99095,0.15145
33.74988,0.13638
33.50881,0.13217
33.26774,0.13764
33.02667,0.14862
32.78560,0.16114
32.54453,0.16831
32.30345,0.16442
32.06238,0.15310
31.82131,0.14246
31.58024,0.13736
31.33917,0.13819
31.09810,0.14141
30.85703,0.13960
30.61596,0.12462
30.37489,0.09624
30.13382,0.06582
29.89275,0.04760
29.65168,0.04682
29.41061,0.05783
29.16954,0.07237
28.92847,0.07928
28.68740,0.06654
28.44633,0.03747
28.20526,0.01093
27.96418,-0.00005
27.72311,0.00126
27.48204,0.00493
27.24097,0.00572
26.99990,0.00019
26.75883,-0.01576
26.51776,-0.03882
26.27669,-0.05928
26.03562,-0.07291
25.79455,-0.08285
25.55348,-0.09132
25.31241,-0.09428
25.07134,-0.08844
24.83027,-0.08032
24.58920,-0.08175
24.34813,-0.09806
24.10706,-0.12180
23.86599,-0.13818
23.62491,-0.14042
23.38384,-0.13766
23.14277,-0.14093
22.90170,-0.14990
22.66063,-0.15816
22.41956,-0.16147
22.17849,-0.15862
21.93742,-0.15390
21.69635,-0.15791
21.45528,-0.17872
21.21421,-0.21051
20.97314,-0.23616
20.73207,-0.24524
20.49100,-0.24218
20.24993,-0.23734
20.00886,-0.23599
19.76779,-0.23829
19.52672,-0.24498
19.28564,-0.25242
19.04457,-0.25164
18.80350,-0.23919
18.56243,-0.21965
18.32136,-0.20323
18.08029,-0.20067
17.83922,-0.21398
17.59815,-0.24056
17.35708,-0.27488
17.11601,-0.30027
16.87494,-0.30019
16.63387,-0.27749
16.39280,-0.25134
16.15173,-0.23622
15.91066,-0.23287
15.66959,-0.23452
15.42852,-0.23722
15.18745,-0.24477
14.94637,-0.25899
14.70530,-0.27069
14.46423,-0.27256
14.22316,-0.27287
13.98209,-0.28100
13.74102,-0.29060
13.49995,-0.29120
13.25888,-0.28357
13.01781,-0.27761
12.77674,-0.28114
12.53567,-0.29170
12.29460,-0.30135
12.05353,-0.30769
11.81246,-0.31261
11.57139,-0.31266
11.33032,-0.30336
11.08925,-0.28797
10.84818,-0.27806
10.60710,-0.28530
10.36603,-0.30578
10.12496,-0.31866
9.88389,-0.31126
9.64282,-0.29237
9.40175,-0.27495
9.16068,-0.26974
8.91961,-0.27864
8.67854,-0.29146
8.43747,-0.29937
8.19640,-0.30551
7.95533,-0.31454
7.71426,-0.32199
7.47319,-0.31842
7.23212,-0.30192
6.99105,-0.28604
6.74998,-0.28622
6.50891,-0.30057
6.26783,-0.31389
6.02676,-0.31603
5.78569,-0.30610
5.54462,-0.28846
5.30355,-0.27248
5.06248,-0.26438
4.82141,-0.26407
4.58034,-0.26903
4.33927,-0.27181
4.09820,-0.26641
3.85713,-0.26274
3.61606,-0.27138
3.37499,-0.28361
3.13392,-0.28899
2.89285,-0.29226
2.65178,-0.29763
2.41071,-0.30406
2.16964,-0.31182
1.92856,-0.31466
1.68749,-0.30643
1.44642,-0.29350
1.20535,-0.28116
0.96428,-0.26837
0.72321,-0.27590
0.48214,-0.34157
0.24107,-0.41586
-0.00000,-0.35097
