399.69498,1.55263
399.45391,1.54258
399.21284,1.53191
398.97177,1.52164
398.73070,1.51193
398.48963,1.50364
398.24856,1.50111
398.00749,1.50830
397.76642,1.52167
397.52535,1.53191
397.28428,1.53644
397.04321,1.54078
396.80214,1.54436
396.56107,1.53952
396.32000,1.52358
396.07892,1.50305
395.83785,1.48619
395.59678,1.47911
395.35571,1.48877
395.11464,1.51574
394.87357,1.54702
394.63250,1.56593
394.39143,1.56585
394.15036,1.54902
393.90929,1.52512
393.66822,1.50704
393.42715,1.49893
393.18608,1.49512
392.94501,1.48969
392.70394,1.48302
392.46287,1.48006
392.22180,1.48630
391.98073,1.50283
391.73965,1.52266
391.49858,1.53225
391.25751,1.52171
391.01644,1.49902
390.77537,1.48273
390.53430,1.47883
390.29323,1.47677
390.05216,1.46978
389.81109,1.46485
389.57002,1.46961
389.32895,1.48351
389.08788,1.49961
388.84681,1.50929
388.60574,1.50644
388.36467,1.49137
388.12360,1.47046
387.88253,1.45165
387.64146,1.44102
387.40038,1.43872
387.15931,1.43862
386.91824,1.43541
386.67717,1.42925
386.43610,1.42349
386.19503,1.41977
385.95396,1.41400
385.71289,1.40470
385.47182,1.40022
385.23075,1.40638
384.98968,1.41537
384.74861,1.41041
384.50754,1.38269
384.26647,1.34283
384.02540,1.31006
383.78433,1.29449
383.54326,1.29324
383.30219,1.29615
383.06111,1.29451
382.82004,1.28608
382.57897,1.27381
382.33790,1.26173
382.09683,1.25269
381.85576,1.24963
381.61469,1.25510
381.37362,1.26804
381.13255,1.28289
380.89148,1.29454
380.65041,1.30170
380.40934,1.30201
380.16827,1.28883
379.92720,1.26419
379.68613,1.24239
379.44506,1.23441
379.20399,1.23978
378.96292,1.25336
378.72184,1.27403
378.48077,1.30251
378.23970,1.33345
377.99863,1.35608
377.75756,1.36605
377.51649,1.36979
377.27542,1.37191
377.03435,1.37289
376.79328,1.37517
376.55221,1.37937
376.31114,1.38283
376.07007,1.38462
375.82900,1.38657
375.58793,1.39145
375.34686,1.40032
375.10579,1.40862
374.86472,1.40692
374.62365,1.39419
374.38257,1.38180
374.14150,1.37843
373.90043,1.38507
373.65936,1.39894
373.41829,1.41538
373.17722,1.42939
372.93615,1.43709
372.69508,1.43717
372.45401,1.43124
372.21294,1.42331
371.97187,1.41761
371.73080,1.41439
371.48973,1.41053
371.24866,1.40400
371.00759,1.39512
370.76652,1.38457
370.52545,1.37386
370.28437,1.36567
370.04330,1.36015
369.80223,1.35500
369.56116,1.34891
369.32009,1.34340
369.07902,1.34152
368.83795,1.34277
368.59688,1.34447
368.35581,1.34673
368.11474,1.35053
367.87367,1.35336
367.63260,1.34934
367.39153,1.33685
367.15046,1.32450
366.90939,1.32253
366.66832,1.32950
366.42725,1.33356
366.18618,1.32723
365.94510,1.31404
365.70403,1.30089
365.46296,1.29191
365.22189,1.28837
364.98082,1.28895
364.73975,1.29253
364.49868,1.30059
364.25761,1.31161
364.01654,1.31770
363.77547,1.31498
363.53440,1.30897
363.29333,1.30477
363.05226,1.30156
362.81119,1.29957
362.57012,1.30155
362.32905,1.30515
362.08798,1.30333
361.84691,1.29434
361.60583,1.28392
361.36476,1.27722
361.12369,1.27459
360.88262,1.27367
360.64155,1.27243
360.40048,1.27042
360.15941,1.26876
359.91834,1.26922
359.67727,1.27100
359.43620,1.26997
359.19513,1.26516
358.95406,1.26277
358.71299,1.26900
358.47192,1.28238
358.23085,1.29482
357.98978,1.29692
357.74871,1.28485
357.50764,1.26552
357.26656,1.25038
357.02549,1.24325
356.78442,1.23928
356.54335,1.23394
356.30228,1.22779
356.06121,1.22426
355.82014,1.22702
355.57907,1.23697
355.33800,1.25038
355.09693,1.26189
354.85586,1.26865
354.61479,1.26915
354.37372,1.26190
354.13265,1.24987
353.89158,1.24134
353.65051,1.24134
353.40944,1.24561
353.16837,1.24545
352.92729,1.23706
352.68622,1.22540
352.44515,1.21977
352.20408,1.22488
351.96301,1.23602
351.72194,1.24515
351.48087,1.25044
351.23980,1.25382
350.99873,1.25359
350.75766,1.24900
350.51659,1.24543
350.27552,1.24601
350.03445,1.24534
349.79338,1.23957
349.55231,1.23475
349.31124,1.23773
349.07017,1.24622
348.82910,1.25192
348.58802,1.24962
348.34695,1.24189
348.10588,1.23646
347.86481,1.23880
347.62374,1.24667
347.38267,1.25135
347.14160,1.24810
346.90053,1.24473
346.65946,1.25229
346.41839,1.26961
346.17732,1.28416
345.93625,1.28793
345.69518,1.28503
345.45411,1.28344
345.21304,1.28748
344.97197,1.29799
344.73090,1.31172
344.48983,1.32094
344.24875,1.32020
344.00768,1.31340
343.76661,1.30823
343.52554,1.30674
343.28447,1.30760
343.04340,1.31091
342.80233,1.31650
342.56126,1.32236
342.32019,1.32710
342.07912,1.33216
341.83805,1.33860
341.59698,1.34383
341.35591,1.34551
341.11484,1.34501
340.87377,1.34532
340.63270,1.34843
340.39163,1.35332
340.15056,1.35488
339.90948,1.34901
339.66841,1.33975
339.42734,1.33529
339.18627,1.33969
338.94520,1.35072
338.70413,1.36226
338.46306,1.36878
338.22199,1.37035
337.98092,1.37420
337.73985,1.38538
337.49878,1.39643
337.25771,1.39488
337.01664,1.38246
336.77557,1.37472
336.53450,1.38014
336.29343,1.39147
336.05236,1.39524
335.81129,1.38607
335.57021,1.37153
335.32914,1.36277
335.08807,1.36531
334.84700,1.37561
334.60593,1.38408
334.36486,1.38589
334.12379,1.38630
333.88272,1.39090
333.64165,1.39652
333.40058,1.39553
333.15951,1.38319
332.91844,1.35914
332.67737,1.32986
332.43630,1.30781
332.19523,1.30099
331.95416,1.30488
331.71309,1.30754
331.47202,1.30208
331.23094,1.29212
330.98987,1.28335
330.74880,1.27704
330.50773,1.27370
330.26666,1.27746
330.02559,1.29160
329.78452,1.30929
329.54345,1.31694
329.30238,1.30896
329.06131,1.29159
328.82024,1.27367
328.57917,1.26013
328.33810,1.25507
328.09703,1.26066
327.85596,1.27273
327.61489,1.28197
327.37382,1.28119
327.13275,1.27266
326.89167,1.26689
326.65060,1.27126
326.40953,1.28238
326.16846,1.29038
325.92739,1.29015
325.68632,1.28555
325.44525,1.28190
325.20418,1.28093
324.96311,1.28336
324.72204,1.29021
324.48097,1.29913
324.23990,1.30428
323.99883,1.30350
323.75776,1.30136
323.51669,1.30202
323.27562,1.30302
323.03455,1.29881
322.79348,1.28972
322.55240,1.28360
322.31133,1.28475
322.07026,1.28403
321.82919,1.27129
321.58812,1.25473
321.34705,1.25087
321.10598,1.26339
320.86491,1.28199
320.62384,1.29447
320.38277,1.29380
320.14170,1.28116
319.90063,1.26838
319.65956,1.26954
319.41849,1.28732
319.17742,1.31130
318.93635,1.33078
318.69528,1.33859
318.45421,1.33036
318.21313,1.31121
317.97206,1.29176
317.73099,1.27774
317.48992,1.27011
317.24885,1.26992
317.00778,1.27749
316.76671,1.29110
316.52564,1.30830
316.28457,1.32400
316.04350,1.33118
315.80243,1.32911
315.56136,1.32499
315.32029,1.32439
315.07922,1.32810
314.83815,1.33812
314.59708,1.35622
314.35601,1.37591
314.11494,1.38375
313.87386,1.37209
313.63279,1.34876
313.39172,1.33062
313.15065,1.32678
312.90958,1.33382
312.66851,1.34437
312.42744,1.35293
312.18637,1.35658
311.94530,1.35720
311.70423,1.35928
311.46316,1.36542
311.22209,1.37779
310.98102,1.39574
310.73995,1.41026
310.49888,1.41055
310.25781,1.39908
310.01674,1.38920
309.77567,1.38834
309.53459,1.39292
309.29352,1.39661
309.05245,1.39690
308.81138,1.39261
308.57031,1.38395
308.32924,1.37629
308.08817,1.37534
307.84710,1.38012
307.60603,1.38583
307.36496,1.39071
307.12389,1.39514
306.88282,1.39672
306.64175,1.39489
306.40068,1.39239
306.15961,1.38738
305.91854,1.37600
305.67747,1.36059
305.43640,1.34973
305.19532,1.34937
304.95425,1.35834
304.71318,1.37221
304.47211,1.38480
304.23104,1.39041
303.98997,1.38677
303.74890,1.37457
303.50783,1.35695
303.26676,1.34049
303.02569,1.33165
302.78462,1.33053
302.54355,1.33278
302.30248,1.33411
302.06141,1.33049
301.82034,1.32193
301.57927,1.31477
301.33820,1.31532
301.09713,1.32207
300.85605,1.32614
300.61498,1.32159
300.37391,1.31155
300.13284,1.30224
299.89177,1.29608
299.65070,1.29156
299.40963,1.28707
299.16856,1.28350
298.92749,1.28105
298.68642,1.27587
298.44535,1.26526
298.20428,1.25349
297.96321,1.24588
297.72214,1.24102
297.48107,1.23509
297.24000,1.23049
296.99893,1.23260
296.75786,1.23921
296.51678,1.24107
296.27571,1.23433
296.03464,1.22461
295.79357,1.21715
295.55250,1.21148
295.31143,1.20591
295.07036,1.19990
294.82929,1.19246
294.58822,1.18458
294.34715,1.18103
294.10608,1.18448
293.86501,1.19017
293.62394,1.19044
293.38287,1.18390
293.14180,1.17604
292.90073,1.17176
292.65966,1.17008
292.41859,1.16735
292.17751,1.16383
291.93644,1.16276
291.69537,1.16367
291.45430,1.16256
291.21323,1.15865
290.97216,1.15608
290.73109,1.15781
290.49002,1.16120
290.24895,1.16168
290.00788,1.15903
289.76681,1.15737
289.52574,1.15931
289.28467,1.16297
289.04360,1.16484
288.80253,1.16341
288.56146,1.15900
288.32039,1.15166
288.07932,1.14156
287.83824,1.13108
287.59717,1.12426
287.35610,1.12361
287.11503,1.12800
286.87396,1.13476
286.63289,1.14153
286.39182,1.14552
286.15075,1.14407
285.90968,1.13796
285.66861,1.13173
285.42754,1.12897
285.18647,1.12871
284.94540,1.12824
284.70433,1.12742
284.46326,1.12689
284.22219,1.12432
283.98112,1.11791
283.74005,1.11108
283.49897,1.10808
283.25790,1.10818
283.01683,1.10862
282.77576,1.10996
282.53469,1.11401
282.29362,1.11903
282.05255,1.12165
281.81148,1.12181
281.57041,1.12218
281.32934,1.12438
281.08827,1.12796
280.84720,1.13151
280.60613,1.13351
280.36506,1.13302
280.12399,1.13076
279.88292,1.12840
279.64185,1.12660
279.40078,1.12505
279.15970,1.12407
278.91863,1.12407
278.67756,1.12397
278.43649,1.12238
278.19542,1.11991
277.95435,1.11820
277.71328,1.11767
277.47221,1.11822
277.23114,1.12057
276.99007,1.12497
276.74900,1.12955
276.50793,1.13168
276.26686,1.13115
276.02579,1.13032
275.78472,1.13019
275.54365,1.12863
275.30258,1.12430
275.06151,1.11997
274.82043,1.11936
274.57936,1.12223
274.33829,1.12478
274.09722,1.12486
273.85615,1.12459
273.61508,1.12700
273.37401,1.13124
273.13294,1.13334
272.89187,1.13184
272.65080,1.13007
272.40973,1.13134
272.16866,1.13460
271.92759,1.13737
271.68652,1.14113
271.44545,1.14922
271.20438,1.15976
270.96331,1.16618
270.72224,1.16607
270.48116,1.16333
270.24009,1.16124
269.99902,1.16058
269.75795,1.16317
269.51688,1.17057
269.27581,1.18042
269.03474,1.18828
268.79367,1.19234
268.55260,1.19420
268.31153,1.19593
268.07046,1.19784
267.82939,1.19884
267.58832,1.19821
267.34725,1.19701
267.10618,1.19739
266.86511,1.20131
266.62404,1.20972
266.38297,1.22163
266.14189,1.23375
265.90082,1.24244
265.65975,1.24728
265.41868,1.25208
265.17761,1.26037
264.93654,1.27070
264.69547,1.27932
264.45440,1.28666
264.21333,1.29601
263.97226,1.30687
263.73119,1.31550
263.49012,1.32216
263.24905,1.33208
263.00798,1.34794
262.76691,1.36618
262.52584,1.38202
262.28477,1.39520
262.04370,1.40988
261.80262,1.42821
261.56155,1.44557
261.32048,1.45636
261.07941,1.46465
260.83834,1.48185
260.59727,1.51287
260.35620,1.54952
260.11513,1.57799
259.87406,1.59288
259.63299,1.60243
259.39192,1.62079
259.15085,1.65562
258.90978,1.69983
258.66871,1.73798
258.42764,1.76561
258.18657,1.79207
257.94550,1.81647
257.70443,1.82255
257.46335,1.81163
257.22228,1.80579
256.98121,1.81752
256.74014,1.83696
256.49907,1.84562
256.25800,1.83645
256.01693,1.81336
255.77586,1.78415
255.53479,1.75550
255.29372,1.73184
255.05265,1.71830
254.81158,1.71712
254.57051,1.72026
254.32944,1.71282
254.08837,1.69301
253.84730,1.67841
253.60623,1.68095
253.36516,1.68996
253.12408,1.68841
252.88301,1.67357
252.64194,1.65317
252.40087,1.63576
252.15980,1.62628
251.91873,1.62527
251.67766,1.62984
251.43659,1.63195
251.19552,1.62275
250.95445,1.60425
250.71338,1.58718
250.47231,1.57553
250.23124,1.56541
249.99017,1.55652
249.74910,1.55388
249.50803,1.55896
249.26696,1.56624
249.02589,1.57028
248.78481,1.57121
248.54374,1.56942
248.30267,1.56188
248.06160,1.54954
247.82053,1.54125
247.57946,1.54381
247.33839,1.55425
247.09732,1.56536
246.85625,1.57516
246.61518,1.58616
246.37411,1.59849
246.13304,1.60942
245.89197,1.61644
245.65090,1.62057
245.40983,1.62973
245.16876,1.65497
244.92769,1.69755
244.68661,1.74120
244.44554,1.76498
244.20447,1.76968
243.96340,1.78132
243.72233,1.82007
243.48126,1.87853
243.24019,1.92993
242.99912,1.95666
242.75805,1.96083
242.51698,1.92876
242.27591,1.84177
242.03484,1.73803
241.79377,1.65348
241.55270,1.59203
241.31163,1.54439
241.07056,1.50225
240.82949,1.46194
240.58842,1.42244
240.34734,1.38186
240.10627,1.34007
239.86520,1.30060
239.62413,1.26648
239.38306,1.23743
239.14199,1.20990
238.90092,1.18055
238.65985,1.15073
238.41878,1.12473
238.17771,1.10372
237.93664,1.08481
237.69557,1.06635
237.45450,1.05025
237.21343,1.03748
236.97236,1.02559
236.73129,1.01302
236.49022,1.00176
236.24915,0.99357
236.00807,0.98675
235.76700,0.97909
235.52593,0.97101
235.28486,0.96276
235.04379,0.95250
234.80272,0.94035
234.56165,0.93014
234.32058,0.92391
234.07951,0.91876
233.83844,0.91223
233.59737,0.90703
233.35630,0.90680
233.11523,0.91005
232.87416,0.91181
232.63309,0.90957
232.39202,0.90480
232.15095,0.89932
231.90988,0.89346
231.66880,0.88750
231.42773,0.88232
231.18666,0.87846
230.94559,0.87558
230.70452,0.87296
230.46345,0.87017
230.22238,0.86741
229.98131,0.86532
229.74024,0.86439
229.49917,0.86427
229.25810,0.86398
229.01703,0.86229
228.77596,0.85781
228.53489,0.85023
228.29382,0.84209
228.05275,0.83767
227.81168,0.83859
227.57061,0.84217
227.32953,0.84494
227.08846,0.84581
226.84739,0.84487
226.60632,0.84207
226.36525,0.83760
226.12418,0.83194
225.88311,0.82601
225.64204,0.82156
225.40097,0.81995
225.15990,0.82045
224.91883,0.82115
224.67776,0.82191
224.43669,0.82419
224.19562,0.82802
223.95455,0.83102
223.71348,0.83108
223.47241,0.82923
223.23134,0.82877
222.99026,0.83152
222.74919,0.83611
222.50812,0.84005
222.26705,0.84328
222.02598,0.84812
221.78491,0.85567
221.54384,0.86377
221.30277,0.86939
221.06170,0.87208
220.82063,0.87389
220.57956,0.87720
220.33849,0.88351
220.09742,0.89284
219.85635,0.90360
219.61528,0.91386
219.37421,0.92313
219.13314,0.93208
218.89207,0.94071
218.65099,0.94830
218.40992,0.95517
218.16885,0.96303
217.92778,0.97344
217.68671,0.98718
217.44564,1.00444
217.20457,1.02340
216.96350,1.03962
216.72243,1.05003
216.48136,1.05642
216.24029,1.06214
215.99922,1.06806
215.75815,1.07477
215.51708,1.08512
215.27601,1.10121
215.03494,1.12030
214.79387,1.13659
214.55280,1.14758
214.31172,1.15612
214.07065,1.16471
213.82958,1.17127
213.58851,1.17341
213.34744,1.17398
213.10637,1.17854
212.86530,1.18829
212.62423,1.19866
212.38316,1.20563
212.14209,1.21077
211.90102,1.21738
211.65995,1.22420
211.41888,1.22723
211.17781,1.22669
210.93674,1.22662
210.69567,1.22847
210.45460,1.23070
210.21353,1.23322
209.97245,1.23624
209.73138,1.23725
209.49031,1.23376
209.24924,1.22667
209.00817,1.21979
208.76710,1.21696
208.52603,1.21770
208.28496,1.21590
208.04389,1.20699
207.80282,1.19432
207.56175,1.18392
207.32068,1.17702
207.07961,1.17141
206.83854,1.16661
206.59747,1.16256
206.35640,1.15585
206.11533,1.14295
205.87426,1.12544
205.63318,1.10851
205.39211,1.09682
205.15104,1.09088
204.90997,1.08491
204.66890,1.07115
204.42783,1.04946
204.18676,1.02947
203.94569,1.02038
203.70462,1.02113
203.46355,1.02169
203.22248,1.01401
202.98141,0.99867
202.74034,0.98092
202.49927,0.96550
202.25820,0.95426
202.01713,0.94508
201.77606,0.93416
201.53499,0.92016
201.29391,0.90489
201.05284,0.89043
200.81177,0.87689
200.57070,0.86319
200.32963,0.84935
200.08856,0.83718
199.84749,0.82794
199.60642,0.82037
199.36535,0.81179
199.12428,0.80041
198.88321,0.78691
198.64214,0.77393
198.40107,0.76389
198.16000,0.75681
197.91893,0.75050
197.67786,0.74294
197.43679,0.73390
197.19572,0.72462
196.95464,0.71659
196.71357,0.71014
196.47250,0.70453
196.23143,0.69951
195.99036,0.69528
195.74929,0.69077
195.50822,0.68411
195.26715,0.67559
195.02608,0.66774
194.78501,0.66220
194.54394,0.65790
194.30287,0.65287
194.06180,0.64690
193.82073,0.64178
193.57966,0.63863
193.33859,0.63601
193.09752,0.63141
192.85645,0.62438
192.61537,0.61691
192.37430,0.61102
192.13323,0.60677
191.89216,0.60271
191.65109,0.59831
191.41002,0.59494
191.16895,0.59395
190.92788,0.59413
190.68681,0.59255
190.44574,0.58810
190.20467,0.58281
189.96360,0.57903
189.72253,0.57661
189.48146,0.57401
189.24039,0.57143
188.99932,0.57057
188.75825,0.57145
188.51718,0.57187
188.27610,0.57045
188.03503,0.56803
187.79396,0.56551
187.55289,0.56259
187.31182,0.55963
187.07075,0.55825
186.82968,0.55886
186.58861,0.55905
186.34754,0.55657
186.10647,0.55281
185.86540,0.55115
185.62433,0.55246
185.38326,0.55439
185.14219,0.55508
184.90112,0.55520
184.66005,0.55582
184.41898,0.55666
184.17791,0.55725
183.93683,0.55804
183.69576,0.55985
183.45469,0.56305
183.21362,0.56704
182.97255,0.57027
182.73148,0.57179
182.49041,0.57216
182.24934,0.57163
182.00827,0.56997
181.76720,0.56904
181.52613,0.57124
181.28506,0.57506
181.04399,0.57651
180.80292,0.57511
180.56185,0.57384
180.32078,0.57437
180.07971,0.57630
179.83864,0.57958
179.59756,0.58463
179.35649,0.59069
179.11542,0.59616
178.87435,0.60099
178.63328,0.60737
178.39221,0.61709
178.15114,0.62886
177.91007,0.63984
177.66900,0.64889
177.42793,0.65703
177.18686,0.66573
176.94579,0.67611
176.70472,0.68892
176.46365,0.70399
176.22258,0.71998
175.98151,0.73544
175.74044,0.75011
175.49937,0.76525
175.25829,0.78221
175.01722,0.80094
174.77615,0.82003
174.53508,0.83811
174.29401,0.85496
174.05294,0.87069
173.81187,0.88442
173.57080,0.89486
173.32973,0.90296
173.08866,0.91196
172.84759,0.92403
172.60652,0.93739
172.36545,0.94720
172.12438,0.95027
171.88331,0.94864
171.64224,0.94675
171.40117,0.94598
171.16010,0.94482
170.91902,0.94293
170.67795,0.94045
170.43688,0.93548
170.19581,0.92699
169.95474,0.91807
169.71367,0.91230
169.47260,0.90980
169.23153,0.90842
168.99046,0.90616
168.74939,0.90279
168.50832,0.89991
168.26725,0.89808
168.02618,0.89486
167.78511,0.88872
167.54404,0.88270
167.30297,0.88096
167.06190,0.88398
166.82083,0.88968
166.57975,0.89620
166.33868,0.90167
166.09761,0.90389
165.85654,0.90243
165.61547,0.89976
165.37440,0.89981
165.13333,0.90581
164.89226,0.91839
164.65119,0.93461
164.41012,0.94915
164.16905,0.95785
163.92798,0.96117
163.68691,0.96282
163.44584,0.96493
163.20477,0.96760
162.96370,0.97208
162.72263,0.98057
162.48156,0.99256
162.24048,1.00438
161.99941,1.01191
161.75834,1.01306
161.51727,1.00954
161.27620,1.00618
161.03513,1.00719
160.79406,1.01283
160.55299,1.01989
160.31192,1.02419
160.07085,1.02222
159.82978,1.01310
159.58871,1.00018
159.34764,0.98875
159.10657,0.98191
158.86550,0.97947
158.62443,0.97979
158.38336,0.98104
158.14229,0.98091
157.90121,0.97665
157.66014,0.96747
157.41907,0.95630
157.17800,0.94728
156.93693,0.94154
156.69586,0.93661
156.45479,0.92965
156.21372,0.92102
155.97265,0.91396
155.73158,0.91047
155.49051,0.90829
155.24944,0.90240
155.00837,0.88983
154.76730,0.87287
154.52623,0.85686
154.28516,0.84549
154.04409,0.83853
153.80302,0.83265
153.56194,0.82360
153.32087,0.80909
153.07980,0.79103
152.83873,0.77354
152.59766,0.75871
152.35659,0.74512
152.11552,0.73052
151.87445,0.71471
151.63338,0.69938
151.39231,0.68624
151.15124,0.67573
150.91017,0.66658
150.66910,0.65652
150.42803,0.64440
150.18696,0.63189
149.94589,0.62129
149.70482,0.61234
149.46375,0.60262
149.22267,0.59126
148.98160,0.58039
148.74053,0.57224
148.49946,0.56664
148.25839,0.56203
148.01732,0.55769
147.77625,0.55414
147.53518,0.55197
147.29411,0.55092
147.05304,0.55007
146.81197,0.54886
146.57090,0.54770
146.32983,0.54752
146.08876,0.54889
145.84769,0.55155
145.60662,0.55499
145.36555,0.55891
145.12448,0.56322
144.88340,0.56786
144.64233,0.57268
144.40126,0.57731
144.16019,0.58116
143.91912,0.58405
143.67805,0.58606
143.43698,0.58633
143.19591,0.58314
142.95484,0.57637
142.71377,0.56813
142.47270,0.56006
142.23163,0.55180
141.99056,0.54290
141.74949,0.53435
141.50842,0.52706
141.26735,0.52061
141.02628,0.51454
140.78521,0.50938
140.54413,0.50569
140.30306,0.50311
140.06199,0.50124
139.82092,0.50083
139.57985,0.50306
139.33878,0.50772
139.09771,0.51311
138.85664,0.51807
138.61557,0.52336
138.37450,0.53017
138.13343,0.53850
137.89236,0.54777
137.65129,0.55779
137.41022,0.56849
137.16915,0.58000
136.92808,0.59330
136.68701,0.60935
136.44594,0.62765
136.20486,0.64665
135.96379,0.66558
135.72272,0.68567
135.48165,0.70942
135.24058,0.73809
134.99951,0.76991
134.75844,0.80144
134.51737,0.83084
134.27630,0.85900
134.03523,0.88814
133.79416,0.91954
133.55309,0.95234
133.31202,0.98476
133.07095,1.01574
132.82988,1.04439
132.58881,1.06952
132.34774,1.09141
132.10667,1.11077
131.86559,1.12510
131.62452,1.13123
131.38345,1.13108
131.14238,1.12913
130.90131,1.12579
130.66024,1.11711
130.41917,1.09996
130.17810,1.07622
129.93703,1.05062
129.69596,1.02547
129.45489,0.99905
129.21382,0.96889
128.97275,0.93488
128.73168,0.89944
128.49061,0.86507
128.24954,0.83198
128.00847,0.79880
127.76740,0.76617
127.52632,0.73736
127.28525,0.71376
127.04418,0.69216
126.80311,0.66877
126.56204,0.64433
126.32097,0.62233
126.07990,0.60400
125.83883,0.58786
125.59776,0.57284
125.35669,0.55928
125.11562,0.54732
124.87455,0.53595
124.63348,0.52423
124.39241,0.51245
124.15134,0.50144
123.91027,0.49125
123.66920,0.48139
123.42812,0.47228
123.18705,0.46526
122.94598,0.46089
122.70491,0.45818
122.46384,0.45590
122.22277,0.45378
121.98170,0.45191
121.74063,0.45025
121.49956,0.44923
121.25849,0.44970
121.01742,0.45210
120.77635,0.45667
120.53528,0.46429
120.29421,0.47556
120.05314,0.48955
119.81207,0.50519
119.57100,0.52286
119.32993,0.54286
119.08885,0.56377
118.84778,0.58438
118.60671,0.60572
118.36564,0.62910
118.12457,0.65363
117.88350,0.67718
117.64243,0.69869
117.40136,0.71869
117.16029,0.73838
116.91922,0.75783
116.67815,0.77485
116.43708,0.78633
116.19601,0.79085
115.95494,0.78897
115.71387,0.78165
115.47280,0.76963
115.23173,0.75356
114.99066,0.73397
114.74958,0.71224
114.50851,0.69158
114.26744,0.67580
114.02637,0.66703
113.78530,0.66482
113.54423,0.66698
113.30316,0.67119
113.06209,0.67602
112.82102,0.68082
112.57995,0.68506
112.33888,0.68792
112.09781,0.68854
111.85674,0.68701
111.61567,0.68546
111.37460,0.68754
111.13353,0.69564
110.89246,0.70855
110.65139,0.72116
110.41031,0.72585
110.16924,0.71807
109.92817,0.70172
109.68710,0.68424
109.44603,0.66797
109.20496,0.65168
108.96389,0.63703
108.72282,0.62712
108.48175,0.61983
108.24068,0.60791
107.99961,0.58751
107.75854,0.56297
107.51747,0.54092
107.27640,0.52369
107.03533,0.50940
106.79426,0.49577
106.55319,0.48241
106.31212,0.46945
106.07104,0.45609
105.82997,0.44185
105.58890,0.42811
105.34783,0.41708
105.10676,0.40948
104.86569,0.40370
104.62462,0.39668
104.38355,0.38601
104.14248,0.37237
103.90141,0.35946
103.66034,0.35075
103.41927,0.34644
103.17820,0.34317
102.93713,0.33729
102.69606,0.32829
102.45499,0.31858
102.21392,0.31065
101.97285,0.30574
101.73177,0.30369
101.49070,0.30236
101.24963,0.29880
101.00856,0.29276
100.76749,0.28749
100.52642,0.28552
100.28535,0.28526
100.04428,0.28300
99.80321,0.27794
99.56214,0.27330
99.32107,0.27228
99.08000,0.27421
98.83893,0.27544
98.59786,0.27404
98.35679,0.27167
98.11572,0.27050
97.87465,0.27063
97.63358,0.27102
97.39250,0.27108
97.15143,0.27155
96.91036,0.27413
96.66929,0.27934
96.42822,0.28453
96.18715,0.28623
95.94608,0.28569
95.70501,0.28821
95.46394,0.29547
95.22287,0.30286
94.98180,0.30650
94.74073,0.30928
94.49966,0.31487
94.25859,0.32023
94.01752,0.31977
93.77645,0.31495
93.53538,0.31284
93.29431,0.31599
93.05323,0.31990
92.81216,0.32138
92.57109,0.32285
92.33002,0.32539
92.08895,0.32622
91.84788,0.32535
91.60681,0.32642
91.36574,0.33043
91.12467,0.33637
90.88360,0.34654
90.64253,0.36420
90.40146,0.38874
90.16039,0.41834
89.91932,0.45307
89.67825,0.49215
89.43718,0.53326
89.19611,0.57536
88.95504,0.61729
88.71396,0.65546
88.47289,0.68638
88.23182,0.70644
87.99075,0.70937
87.74968,0.69165
87.50861,0.65813
87.26754,0.61798
87.02647,0.57823
86.78540,0.54162
86.54433,0.50813
86.30326,0.47729
86.06219,0.44857
85.82112,0.42132
85.58005,0.39565
85.33898,0.37210
85.09791,0.35042
84.85684,0.32991
84.61577,0.31108
84.37469,0.29528
84.13362,0.28286
83.89255,0.27283
83.65148,0.26406
83.41041,0.25608
83.16934,0.24823
82.92827,0.23964
82.68720,0.23083
82.44613,0.22346
82.20506,0.21826
81.96399,0.21438
81.72292,0.21085
81.48185,0.20759
81.24078,0.20517
80.99971,0.20376
80.75864,0.20252
80.51757,0.20039
80.27650,0.19742
80.03542,0.19398
79.79435,0.18994
79.55328,0.18582
79.31221,0.18326
79.07114,0.18288
78.83007,0.18326
78.58900,0.18300
78.34793,0.18207
78.10686,0.18066
77.86579,0.17825
77.62472,0.17455
77.38365,0.17032
77.14258,0.16681
76.90151,0.16490
76.66044,0.16458
76.41937,0.16493
76.17830,0.16475
75.93723,0.16366
75.69615,0.16231
75.45508,0.16124
75.21401,0.16042
74.97294,0.15969
74.73187,0.15889
74.49080,0.15773
74.24973,0.15660
74.00866,0.15694
73.76759,0.15972
73.52652,0.16384
73.28545,0.16690
73.04438,0.16775
72.80331,0.16736
72.56224,0.16730
72.32117,0.16806
72.08010,0.16896
71.83903,0.16872
71.59796,0.16621
71.35688,0.16162
71.11581,0.15675
70.87474,0.15394
70.63367,0.15517
70.39260,0.16174
70.15153,0.17367
69.91046,0.18922
69.66939,0.20554
69.42832,0.21973
69.18725,0.22909
68.94618,0.23158
68.70511,0.22697
68.46404,0.21704
68.22297,0.20437
67.98190,0.19129
67.74083,0.17920
67.49976,0.16827
67.25869,0.15841
67.01761,0.15030
66.77654,0.14450
66.53547,0.13982
66.29440,0.13472
66.05333,0.12994
65.81226,0.12811
65.57119,0.13101
65.33012,0.13820
65.08905,0.14778
64.84798,0.15781
64.60691,0.16768
64.36584,0.17795
64.12477,0.18832
63.88370,0.19677
63.64263,0.20145
63.40156,0.20218
63.16049,0.19936
62.91942,0.19330
62.67834,0.18523
62.43727,0.17707
62.19620,0.16959
61.95513,0.16205
61.71406,0.15395
61.47299,0.14564
61.23192,0.13721
60.99085,0.12827
60.74978,0.11934
60.50871,0.11237
60.26764,0.10950
60.02657,0.11150
59.78550,0.11757
59.54443,0.12615
59.30336,0.13623
59.06229,0.14719
58.82122,0.15716
58.58015,0.16272
58.33907,0.16140
58.09800,0.15383
57.85693,0.14273
57.61586,0.13097
57.37479,0.12044
57.13372,0.11168
56.89265,0.10480
56.65158,0.10108
56.41051,0.10274
56.16944,0.11093
55.92837,0.12381
55.68730,0.13614
55.44623,0.14148
55.20516,0.13678
54.96409,0.12492
54.72302,0.11252
54.48195,0.10644
54.24088,0.11155
53.99980,0.12915
53.75873,0.15435
53.51766,0.17383
53.27659,0.17335
53.03552,0.15419
52.79445,0.13164
52.55338,0.12085
52.31231,0.13017
52.07124,0.15617
51.83017,0.17800
51.58910,0.17088
51.34803,0.14339
51.10696,0.12479
50.86589,0.12911
50.62482,0.15210
50.38375,0.17419
50.14268,0.17133
49.90161,0.14732
49.66053,0.12976
49.41946,0.13627
49.17839,0.15982
48.93732,0.16822
48.69625,0.14530
48.45518,0.12223
48.21411,0.12541
47.97304,0.14720
47.73197,0.15323
47.49090,0.13214
47.24983,0.11713
47.00876,0.12539
46.76769,0.13219
46.52662,0.11654
46.28555,0.10407
46.04448,0.11246
45.80341,0.12212
45.56234,0.11541
45.32126,0.10661
45.08019,0.10713
44.83912,0.10749
44.59805,0.10166
44.35698,0.09612
44.11591,0.09405
43.87484,0.09621
43.63377,0.10478
43.39270,0.11702
43.15163,0.12748
42.91056,0.13529
42.66949,0.14016
42.42842,0.14009
42.18735,0.13745
41.94628,0.13698
41.70521,0.13827
41.46414,0.13690
41.22307,0.13262
40.98199,0.13233
40.74092,0.14243
40.49985,0.15880
40.25878,0.16923
40.01771,0.16866
39.77664,0.16345
39.53557,0.16070
39.29450,0.16336
39.05343,0.17149
38.81236,0.18320
38.57129,0.19551
38.33022,0.20529
38.08915,0.21052
37.84808,0.21240
37.60701,0.21402
37.36594,0.21551
37.12487,0.21398
36.88380,0.20734
36.64272,0.19606
36.40165,0.18302
36.16058,0.17118
35.91951,0.16222
35.67844,0.15882
35.43737,0.16337
35.19630,0.17272
34.95523,0.17821
34.71416,0.17301
34.47309,0.15877
34.23202,0.14346
33.99095,0.13282
33.74988,0.12648
33.50881,0.12247
33.26774,0.12186
33.02667,0.12562
32.78560,0.13135
32.54453,0.13451
32.30345,0.13047
32.06238,0.11937
31.82131,0.10527
31.58024,0.09073
31.33917,0.07858
31.09810,0.07221
30.85703,0.07105
30.61596,0.06958
30.37489,0.06188
30.13382,0.04735
29.89275,0.03038
29.65168,0.01165
29.41061,-0.01425
29.16954,-0.04505
28.92847,-0.06707
28.68740,-0.07410
28.44633,-0.07694
28.20526,-0.08413
27.96418,-0.08720
27.72311,-0.07858
27.48204,-0.06610
27.24097,-0.06097
26.99990,-0.06515
26.75883,-0.07441
26.51776,-0.08646
26.27669,-0.10245
26.03562,-0.12356
25.79455,-0.14871
25.55348,-0.17210
25.31241,-0.18561
25.07134,-0.19020
24.83027,-0.19624
24.58920,-0.21152
24.34813,-0.23284
24.10706,-0.25314
23.86599,-0.27734
23.62491,-0.31516
23.38384,-0.35757
23.14277,-0.37835
22.90170,-0.36351
22.66063,-0.32976
22.41956,-0.30510
22.17849,-0.29961
21.93742,-0.30243
21.69635,-0.30204
21.45528,-0.30122
21.21421,-0.30777
20.97314,-0.31720
20.73207,-0.31732
20.49100,-0.30698
20.24993,-0.29604
20.00886,-0.29574
19.76779,-0.31667
19.52672,-0.35836
19.28564,-0.39667
19.04457,-0.40369
18.80350,-0.38057
18.56243,-0.35249
18.32136,-0.34257
18.08029,-0.35480
17.83922,-0.37110
17.59815,-0.37171
17.35708,-0.36133
17.11601,-0.36123
16.87494,-0.37685
16.63387,-0.38549
16.39280,-0.38015
16.15173,-0.38244
15.91066,-0.41392
15.66959,-0.46817
15.42852,-0.49660
15.18745,-0.47151
14.94637,-0.42516
14.70530,-0.39320
14.46423,-0.39068
14.22316,-0.41472
13.98209,-0.45305
13.74102,-0.48770
13.49995,-0.49037
13.25888,-0.47397
13.01781,-0.46986
12.77674,-0.48222
12.53567,-0.49879
12.29460,-0.50633
12.05353,-0.50035
11.81246,-0.48811
11.57139,-0.47727
11.33032,-0.47441
11.08925,-0.47752
10.84818,-0.46501
10.60710,-0.44803
10.36603,-0.44704
10.12496,-0.44203
9.88389,-0.44019
9.64282,-0.45906
9.40175,-0.48326
9.16068,-0.48240
8.91961,-0.45362
8.67854,-0.42482
8.43747,-0.41831
8.19640,-0.42899
7.95533,-0.43654
7.71426,-0.43741
7.47319,-0.44838
7.23212,-0.46773
6.99105,-0.48031
6.74998,-0.50216
6.50891,-0.51040
6.26783,-0.48340
6.02676,-0.44616
5.78569,-0.42934
5.54462,-0.43225
5.30355,-0.44320
5.06248,-0.43574
4.82141,-0.41061
4.58034,-0.39034
4.33927,-0.37765
4.09820,-0.37479
3.85713,-0.38813
3.61606,-0.41237
3.37499,-0.43239
3.13392,-0.44884
2.89285,-0.45031
2.65178,-0.44686
2.41071,-0.45264
2.16964,-0.45574
1.92856,-0.43884
1.68749,-0.42567
1.44642,-0.43315
1.20535,-0.44328
0.96428,-0.43868
0.72321,-0.44325
0.48214,-0.44898
0.24107,-0.40878
-0.00000,-0.10799
