399.69498,1.92750
399.45391,1.95873
399.21284,1.98091
398.97177,1.99515
398.73070,2.03069
398.48963,2.12513
398.24856,2.21468
398.00749,2.17670
397.76642,2.08568
397.52535,1.98536
397.28428,1.89165
397.04321,1.86340
396.80214,1.90895
396.56107,1.96934
396.32000,2.00182
396.07892,2.00979
395.83785,1.97193
395.59678,1.95527
395.35571,1.95470
395.11464,1.93391
394.87357,1.89409
394.63250,1.87949
394.39143,1.90359
394.15036,1.94792
393.90929,1.98425
393.66822,1.96881
393.42715,1.93612
393.18608,1.93697
392.94501,1.94306
392.70394,1.90854
392.46287,1.85122
392.22180,1.82555
391.98073,1.85183
391.73965,1.87446
391.49858,1.84415
391.25751,1.85140
391.01644,1.90813
390.77537,1.93546
390.53430,1.92040
390.29323,1.96031
390.05216,2.05924
389.81109,1.87249
389.57002,1.75038
389.32895,1.75749
389.08788,1.78097
388.84681,1.80567
388.60574,1.85864
388.36467,1.88478
388.12360,1.85772
387.88253,1.81124
387.64146,1.79352
387.40038,1.83549
387.15931,1.88974
386.91824,1.88758
386.67717,1.89759
386.43610,1.94113
386.19503,1.90206
385.95396,1.84787
385.71289,1.90283
385.47182,2.00114
385.23075,2.00253
384.98968,1.97837
384.74861,1.95137
384.50754,1.89818
384.26647,1.84906
384.02540,1.85064
383.78433,1.82814
383.54326,1.71155
383.30219,1.62803
383.06111,1.65985
382.82004,1.78072
382.57897,1.91881
382.33790,1.97449
382.09683,1.84119
381.85576,1.74268
381.61469,1.75557
381.37362,1.86916
381.13255,2.16609
380.89148,2.18212
380.65041,1.94113
380.40934,1.79308
380.16827,1.79720
379.92720,1.75951
379.68613,1.70555
379.44506,1.70545
379.20399,1.71873
378.96292,1.71573
378.72184,1.78729
378.48077,1.95848
378.23970,2.04591
377.99863,1.91812
377.75756,1.86773
377.51649,1.82478
377.27542,1.76723
377.03435,1.77438
376.79328,1.86004
376.55221,2.00233
376.31114,2.21359
376.07007,2.53792
375.82900,2.54964
375.58793,2.19019
375.34686,2.02154
375.10579,2.04876
374.86472,2.12139
374.62365,2.08642
374.38257,2.08167
374.14150,2.03979
373.90043,2.01334
373.65936,2.02649
373.41829,2.00926
373.17722,1.98661
372.93615,1.98701
372.69508,2.02551
372.45401,2.07552
372.21294,2.08791
371.97187,2.12217
371.73080,2.26253
371.48973,2.35904
371.24866,2.27608
371.00759,2.15577
370.76652,2.04051
370.52545,1.91144
370.28437,1.80260
370.04330,1.74515
369.80223,1.77243
369.56116,1.86690
369.32009,1.92821
369.07902,1.91171
368.83795,1.80943
368.59688,1.72746
368.35581,1.68956
368.11474,1.66409
367.87367,1.63856
367.63260,1.62468
367.39153,1.62338
367.15046,1.63224
366.90939,1.66547
366.66832,1.73601
366.42725,1.80746
366.18618,1.80431
365.94510,1.72365
365.70403,1.64516
365.46296,1.61177
365.22189,1.61724
364.98082,1.64517
364.73975,1.66881
364.49868,1.65354
364.25761,1.60709
364.01654,1.57551
363.77547,1.58542
363.53440,1.62026
363.29333,1.63215
363.05226,1.59296
362.81119,1.53557
362.57012,1.50568
362.32905,1.50974
362.08798,1.54180
361.84691,1.59704
361.60583,1.64245
361.36476,1.65066
361.12369,1.64656
360.88262,1.65858
360.64155,1.67880
360.40048,1.67935
360.15941,1.64101
359.91834,1.58819
359.67727,1.55126
359.43620,1.53903
359.19513,1.55192
358.95406,1.57724
358.71299,1.58883
358.47192,1.56255
358.23085,1.49984
357.98978,1.45383
357.74871,1.45247
357.50764,1.47305
357.26656,1.47805
357.02549,1.45495
356.78442,1.42453
356.54335,1.41257
356.30228,1.42913
356.06121,1.46268
355.82014,1.48283
355.57907,1.47298
355.33800,1.46204
355.09693,1.48071
354.85586,1.51264
354.61479,1.52202
354.37372,1.51041
354.13265,1.49551
353.89158,1.47623
353.65051,1.46043
353.40944,1.46973
353.16837,1.50481
352.92729,1.53736
352.68622,1.52796
352.44515,1.48065
352.20408,1.44915
351.96301,1.46751
351.72194,1.53075
351.48087,1.60028
351.23980,1.63137
350.99873,1.62050
350.75766,1.59074
350.51659,1.55705
350.27552,1.53597
350.03445,1.54823
349.79338,1.58940
349.55231,1.61993
349.31124,1.60559
349.07017,1.56249
348.82910,1.52561
348.58802,1.51105
348.34695,1.51642
348.10588,1.52864
347.86481,1.53240
347.62374,1.53220
347.38267,1.55418
347.14160,1.60076
346.90053,1.62234
346.65946,1.61424
346.41839,1.58874
346.17732,1.56240
345.93625,1.56373
345.69518,1.58835
345.45411,1.59857
345.21304,1.57229
344.97197,1.54384
344.73090,1.54516
344.48983,1.55199
344.24875,1.53064
344.00768,1.51130
343.76661,1.54660
343.52554,1.65395
343.28447,1.80488
343.04340,1.90851
342.80233,1.86637
342.56126,1.74926
342.32019,1.67338
342.07912,1.65599
341.83805,1.69769
341.59698,1.77434
341.35591,1.82249
341.11484,1.80563
340.87377,1.76186
340.63270,1.73909
340.39163,1.73044
340.15056,1.72658
339.90948,1.74391
339.66841,1.77401
339.42734,1.78149
339.18627,1.74610
338.94520,1.70000
338.70413,1.68596
338.46306,1.70277
338.22199,1.71042
337.98092,1.69339
337.73985,1.67417
337.49878,1.67568
337.25771,1.69116
337.01664,1.70759
336.77557,1.74794
336.53450,1.84594
336.29343,1.96627
336.05236,1.96511
335.81129,1.87990
335.57021,1.85443
335.32914,1.84160
335.08807,1.79046
334.84700,1.75409
334.60593,1.77208
334.36486,1.81074
334.12379,1.80034
333.88272,1.75233
333.64165,1.72750
333.40058,1.72853
333.15951,1.72217
332.91844,1.71165
332.67737,1.71340
332.43630,1.71533
332.19523,1.74232
331.95416,1.80317
331.71309,1.83208
331.47202,1.77271
331.23094,1.66555
330.98987,1.58260
330.74880,1.54941
330.50773,1.55323
330.26666,1.57273
330.02559,1.60439
329.78452,1.66248
329.54345,1.73756
329.30238,1.78170
329.06131,1.78587
328.82024,1.75148
328.57917,1.69051
328.33810,1.66687
328.09703,1.69376
327.85596,1.73849
327.61489,1.73844
327.37382,1.66966
327.13275,1.58958
326.89167,1.56065
326.65060,1.62086
326.40953,1.75032
326.16846,1.85278
325.92739,1.87530
325.68632,1.88025
325.44525,1.88580
325.20418,1.85844
324.96311,1.81740
324.72204,1.80701
324.48097,1.82189
324.23990,1.78530
323.99883,1.72134
323.75776,1.71663
323.51669,1.82521
323.27562,1.97963
323.03455,1.90709
322.79348,1.91543
322.55240,1.92376
322.31133,1.93747
322.07026,1.96746
321.82919,1.88578
321.58812,1.82256
321.34705,1.85234
321.10598,2.03190
320.86491,2.29293
320.62384,2.18752
320.38277,2.16498
320.14170,2.13935
319.90063,2.02641
319.65956,2.03119
319.41849,2.06464
319.17742,2.07492
318.93635,2.04132
318.69528,1.92222
318.45421,1.81376
318.21313,1.75859
317.97206,1.78398
317.73099,1.90327
317.48992,2.04378
317.24885,2.03400
317.00778,2.04392
316.76671,2.11922
316.52564,2.05620
316.28457,1.94710
316.04350,1.89756
315.80243,1.90543
315.56136,1.93059
315.32029,1.90786
315.07922,1.86448
314.83815,1.85821
314.59708,1.89476
314.35601,2.00917
314.11494,1.94354
313.87386,1.82005
313.63279,1.83752
313.39172,2.04609
313.15065,2.25606
312.90958,2.02039
312.66851,1.85464
312.42744,1.84832
312.18637,1.95908
311.94530,2.07726
311.70423,2.01771
311.46316,1.94829
311.22209,1.94822
310.98102,2.03713
310.73995,2.14634
310.49888,2.07570
310.25781,2.06232
310.01674,2.16771
309.77567,2.34024
309.53459,2.25660
309.29352,2.03705
309.05245,1.89482
308.81138,1.86558
308.57031,1.96174
308.32924,2.09047
308.08817,2.13472
307.84710,2.17069
307.60603,2.06682
307.36496,1.92066
307.12389,1.77146
306.88282,1.65236
306.64175,1.58154
306.40068,1.55199
306.15961,1.55363
305.91854,1.57943
305.67747,1.62069
305.43640,1.66515
305.19532,1.69543
304.95425,1.69572
304.71318,1.66390
304.47211,1.61945
304.23104,1.58698
303.98997,1.57299
303.74890,1.56518
303.50783,1.54938
303.26676,1.51705
303.02569,1.46834
302.78462,1.41491
302.54355,1.37538
302.30248,1.36209
302.06141,1.37377
301.82034,1.39689
301.57927,1.40896
301.33820,1.39846
301.09713,1.37631
300.85605,1.36451
300.61498,1.37627
300.37391,1.40003
300.13284,1.40958
299.89177,1.39516
299.65070,1.36975
299.40963,1.35049
299.16856,1.33973
298.92749,1.32822
298.68642,1.31679
298.44535,1.30929
298.20428,1.30484
297.96321,1.30523
297.72214,1.30856
297.48107,1.30328
297.24000,1.28116
296.99893,1.24979
296.75786,1.22299
296.51678,1.20811
296.27571,1.20612
296.03464,1.21416
295.79357,1.22492
295.55250,1.23072
295.31143,1.23044
295.07036,1.22528
294.82929,1.21078
294.58822,1.18533
294.34715,1.15887
294.10608,1.14426
293.86501,1.14871
293.62394,1.16774
293.38287,1.18349
293.14180,1.17963
292.90073,1.16277
292.65966,1.15189
292.41859,1.15287
292.17751,1.15803
291.93644,1.16072
291.69537,1.16246
291.45430,1.16727
291.21323,1.17310
290.97216,1.17220
290.73109,1.16067
290.49002,1.14609
290.24895,1.14097
290.00788,1.14870
289.76681,1.16100
289.52574,1.16886
289.28467,1.16942
289.04360,1.16142
288.80253,1.14587
288.56146,1.13048
288.32039,1.12355
288.07932,1.12694
287.83824,1.13660
287.59717,1.14516
287.35610,1.14675
287.11503,1.14118
286.87396,1.13006
286.63289,1.11418
286.39182,1.09675
286.15075,1.08425
285.90968,1.08010
285.66861,1.08236
285.42754,1.08674
285.18647,1.08920
284.94540,1.08980
284.70433,1.09153
284.46326,1.09395
284.22219,1.09252
283.98112,1.08709
283.74005,1.08526
283.49897,1.09118
283.25790,1.09700
283.01683,1.09307
282.77576,1.08278
282.53469,1.07594
282.29362,1.07379
282.05255,1.07097
281.81148,1.06578
281.57041,1.06042
281.32934,1.05685
281.08827,1.05702
280.84720,1.06195
280.60613,1.06771
280.36506,1.06839
280.12399,1.06444
279.88292,1.05992
279.64185,1.05565
279.40078,1.05276
279.15970,1.05425
278.91863,1.05964
278.67756,1.06302
278.43649,1.05875
278.19542,1.05012
277.95435,1.04847
277.71328,1.05988
277.47221,1.07707
277.23114,1.08738
276.99007,1.08634
276.74900,1.07840
276.50793,1.07024
276.26686,1.06666
276.02579,1.06614
275.78472,1.06349
275.54365,1.05911
275.30258,1.05908
275.06151,1.06559
274.82043,1.07289
274.57936,1.07470
274.33829,1.07271
274.09722,1.07201
273.85615,1.07251
273.61508,1.06986
273.37401,1.06179
273.13294,1.05117
272.89187,1.04357
272.65080,1.04334
272.40973,1.04966
272.16866,1.05828
271.92759,1.06420
271.68652,1.06120
271.44545,1.04966
271.20438,1.04162
270.96331,1.04826
270.72224,1.06660
270.48116,1.08284
270.24009,1.08576
269.99902,1.07597
269.75795,1.06386
269.51688,1.06014
269.27581,1.06756
269.03474,1.07980
268.79367,1.08719
268.55260,1.08539
268.31153,1.07963
268.07046,1.07893
267.82939,1.08559
267.58832,1.09305
267.34725,1.09551
267.10618,1.09615
266.86511,1.10286
266.62404,1.11787
266.38297,1.13467
266.14189,1.14623
265.90082,1.15257
265.65975,1.15647
265.41868,1.16051
265.17761,1.16846
264.93654,1.18098
264.69547,1.19117
264.45440,1.19023
264.21333,1.17891
263.97226,1.16816
263.73119,1.16675
263.49012,1.17484
263.24905,1.18863
263.00798,1.20531
262.76691,1.22014
262.52584,1.22659
262.28477,1.22591
262.04370,1.22577
261.80262,1.23086
261.56155,1.23701
261.32048,1.23700
261.07941,1.23554
260.83834,1.24398
260.59727,1.26403
260.35620,1.28337
260.11513,1.29084
259.87406,1.29386
259.63299,1.30887
259.39192,1.34190
259.15085,1.38407
258.90978,1.42045
258.66871,1.44768
258.42764,1.47637
258.18657,1.51306
257.94550,1.54628
257.70443,1.55635
257.46335,1.54577
257.22228,1.53590
256.98121,1.53984
256.74014,1.55215
256.49907,1.55680
256.25800,1.55101
256.01693,1.55465
255.77586,1.58422
255.53479,1.63883
255.29372,1.71370
255.05265,1.79652
254.81158,1.86184
254.57051,1.91834
254.32944,1.99775
254.08837,2.08318
253.84730,2.08489
253.60623,1.97378
253.36516,1.88301
253.12408,1.87181
252.88301,1.91213
252.64194,1.96786
252.40087,2.02899
252.15980,2.07394
251.91873,2.10533
251.67766,2.17432
251.43659,2.25759
251.19552,2.14298
250.95445,2.08332
250.71338,2.11824
250.47231,2.14019
250.23124,2.07224
249.99017,1.94756
249.74910,1.91971
249.50803,1.99838
249.26696,2.12553
249.02589,2.22822
248.78481,2.23622
248.54374,2.21837
248.30267,2.32688
248.06160,2.30857
247.82053,2.28792
247.57946,2.29222
247.33839,2.27128
247.09732,2.21520
246.85625,2.24136
246.61518,2.43929
246.37411,2.52180
246.13304,2.30099
245.89197,2.34673
245.65090,2.58376
245.40983,2.38801
245.16876,2.08152
244.92769,1.96759
244.68661,1.92468
244.44554,1.87449
244.20447,1.85798
243.96340,1.84518
243.72233,1.79299
243.48126,1.72689
243.24019,1.66572
242.99912,1.60136
242.75805,1.52756
242.51698,1.45563
242.27591,1.39590
242.03484,1.35173
241.79377,1.32292
241.55270,1.30144
241.31163,1.27416
241.07056,1.23851
240.82949,1.20291
240.58842,1.17157
240.34734,1.14022
240.10627,1.10559
239.86520,1.07161
239.62413,1.04301
239.38306,1.02012
239.14199,1.00277
238.90092,0.99180
238.65985,0.98448
238.41878,0.97441
238.17771,0.95884
237.93664,0.94182
237.69557,0.92817
237.45450,0.91912
237.21343,0.91322
236.97236,0.90671
236.73129,0.89555
236.49022,0.88086
236.24915,0.86806
236.00807,0.86017
235.76700,0.85551
235.52593,0.85126
235.28486,0.84598
235.04379,0.83896
234.80272,0.83018
234.56165,0.82058
234.32058,0.81048
234.07951,0.79950
233.83844,0.78971
233.59737,0.78578
233.35630,0.78987
233.11523,0.79758
232.87416,0.80134
232.63309,0.79802
232.39202,0.79122
232.15095,0.78613
231.90988,0.78397
231.66880,0.78134
231.42773,0.77444
231.18666,0.76423
230.94559,0.75534
230.70452,0.74958
230.46345,0.74443
230.22238,0.73853
229.98131,0.73492
229.74024,0.73690
229.49917,0.74354
229.25810,0.75062
229.01703,0.75432
228.77596,0.75350
228.53489,0.74978
228.29382,0.74608
228.05275,0.74368
227.81168,0.74067
227.57061,0.73554
227.32953,0.73107
227.08846,0.73086
226.84739,0.73377
226.60632,0.73496
226.36525,0.73200
226.12418,0.72709
225.88311,0.72365
225.64204,0.72263
225.40097,0.72217
225.15990,0.71987
224.91883,0.71630
224.67776,0.71547
224.43669,0.71916
224.19562,0.72367
223.95455,0.72556
223.71348,0.72737
223.47241,0.73322
223.23134,0.74156
222.99026,0.74659
222.74919,0.74567
222.50812,0.74172
222.26705,0.73913
222.02598,0.74058
221.78491,0.74642
221.54384,0.75422
221.30277,0.76107
221.06170,0.76726
220.82063,0.77441
220.57956,0.78061
220.33849,0.78196
220.09742,0.77974
219.85635,0.78037
219.61528,0.78775
219.37421,0.79973
219.13314,0.81171
218.89207,0.82119
218.65099,0.82887
218.40992,0.83677
218.16885,0.84634
217.92778,0.85756
217.68671,0.86908
217.44564,0.87890
217.20457,0.88509
216.96350,0.88743
216.72243,0.88891
216.48136,0.89435
216.24029,0.90608
215.99922,0.92097
215.75815,0.93308
215.51708,0.94053
215.27601,0.94789
215.03494,0.95992
214.79387,0.97529
214.55280,0.98831
214.31172,0.99558
214.07065,0.99923
213.82958,1.00489
213.58851,1.01622
213.34744,1.02993
213.10637,1.03836
212.86530,1.03875
212.62423,1.03574
212.38316,1.03506
212.14209,1.03899
211.90102,1.04601
211.65995,1.05475
211.41888,1.06520
211.17781,1.07275
210.93674,1.07026
210.69567,1.05954
210.45460,1.04958
210.21353,1.04331
209.97245,1.03426
209.73138,1.01861
209.49031,1.00439
209.24924,1.00203
209.00817,1.01225
208.76710,1.02772
208.52603,1.04184
208.28496,1.05093
208.04389,1.05043
207.80282,1.03716
207.56175,1.01618
207.32068,0.99847
207.07961,0.99009
206.83854,0.98734
206.59747,0.98267
206.35640,0.97255
206.11533,0.95974
205.87426,0.95014
205.63318,0.94599
205.39211,0.94157
205.15104,0.92935
204.90997,0.91178
204.66890,0.89999
204.42783,0.89916
204.18676,0.90225
203.94569,0.90090
203.70462,0.89614
203.46355,0.89217
203.22248,0.88655
202.98141,0.87432
202.74034,0.85616
202.49927,0.83654
202.25820,0.81888
202.01713,0.80528
201.77606,0.79693
201.53499,0.79244
201.29391,0.78705
201.05284,0.77647
200.81177,0.76141
200.57070,0.74666
200.32963,0.73614
200.08856,0.73004
199.84749,0.72653
199.60642,0.72393
199.36535,0.72072
199.12428,0.71537
198.88321,0.70695
198.64214,0.69540
198.40107,0.68189
198.16000,0.66875
197.91893,0.65841
197.67786,0.65216
197.43679,0.64936
197.19572,0.64685
196.95464,0.64056
196.71357,0.62969
196.47250,0.61793
196.23143,0.60942
195.99036,0.60515
195.74929,0.60301
195.50822,0.60015
195.26715,0.59541
195.02608,0.58963
194.78501,0.58389
194.54394,0.57838
194.30287,0.57278
194.06180,0.56673
193.82073,0.56030
193.57966,0.55435
193.33859,0.54952
193.09752,0.54567
192.85645,0.54331
192.61537,0.54395
192.37430,0.54716
192.13323,0.54889
191.89216,0.54489
191.65109,0.53537
191.41002,0.52476
191.16895,0.51738
190.92788,0.51445
190.68681,0.51432
190.44574,0.51418
190.20467,0.51223
189.96360,0.50868
189.72253,0.50538
189.48146,0.50441
189.24039,0.50600
188.99932,0.50776
188.75825,0.50683
188.51718,0.50269
188.27610,0.49700
188.03503,0.49149
187.79396,0.48739
187.55289,0.48582
187.31182,0.48666
187.07075,0.48822
186.82968,0.48924
186.58861,0.49004
186.34754,0.49121
186.10647,0.49340
185.86540,0.49681
185.62433,0.49919
185.38326,0.49718
185.14219,0.49167
184.90112,0.48816
184.66005,0.49001
184.41898,0.49454
184.17791,0.49662
183.93683,0.49456
183.69576,0.49146
183.45469,0.49072
183.21362,0.49230
182.97255,0.49442
182.73148,0.49641
182.49041,0.49776
182.24934,0.49701
182.00827,0.49430
181.76720,0.49250
181.52613,0.49340
181.28506,0.49537
181.04399,0.49640
180.80292,0.49675
180.56185,0.49736
180.32078,0.49819
180.07971,0.49963
179.83864,0.50304
179.59756,0.50884
179.35649,0.51577
179.11542,0.52272
178.87435,0.52992
178.63328,0.53787
178.39221,0.54551
178.15114,0.55079
177.91007,0.55392
177.66900,0.55839
177.42793,0.56657
177.18686,0.57623
176.94579,0.58479
176.70472,0.59455
176.46365,0.60948
176.22258,0.62814
175.98151,0.64397
175.74044,0.65288
175.49937,0.65794
175.25829,0.66579
175.01722,0.68091
174.77615,0.70311
174.53508,0.72728
174.29401,0.74594
174.05294,0.75561
173.81187,0.76170
173.57080,0.77302
173.32973,0.79040
173.08866,0.80571
172.84759,0.81356
172.60652,0.81773
172.36545,0.82347
172.12438,0.82921
171.88331,0.83008
171.64224,0.82546
171.40117,0.81901
171.16010,0.81389
170.91902,0.81045
170.67795,0.80724
170.43688,0.80304
170.19581,0.79819
169.95474,0.79335
169.71367,0.78857
169.47260,0.78506
169.23153,0.78512
168.99046,0.78836
168.74939,0.79082
168.50832,0.78904
168.26725,0.78404
168.02618,0.78023
167.78511,0.78052
167.54404,0.78404
167.30297,0.78790
167.06190,0.78927
166.82083,0.78625
166.57975,0.77958
166.33868,0.77270
166.09761,0.76848
165.85654,0.76759
165.61547,0.77082
165.37440,0.77902
165.13333,0.78986
164.89226,0.79893
164.65119,0.80442
164.41012,0.80844
164.16905,0.81502
163.92798,0.82646
163.68691,0.84020
163.44584,0.85027
163.20477,0.85342
162.96370,0.85173
162.72263,0.84909
162.48156,0.84791
162.24048,0.84872
161.99941,0.85200
161.75834,0.86017
161.51727,0.87426
161.27620,0.88706
161.03513,0.88681
160.79406,0.87232
160.55299,0.85618
160.31192,0.84978
160.07085,0.85295
159.82978,0.85698
159.58871,0.85391
159.34764,0.84391
159.10657,0.83377
158.86550,0.82852
158.62443,0.82767
158.38336,0.82955
158.14229,0.83429
157.90121,0.83945
157.66014,0.83873
157.41907,0.82943
157.17800,0.81761
156.93693,0.81106
156.69586,0.80988
156.45479,0.80781
156.21372,0.80076
155.97265,0.79184
155.73158,0.78628
155.49051,0.78326
155.24944,0.77743
155.00837,0.76682
154.76730,0.75449
154.52623,0.74372
154.28516,0.73543
154.04409,0.72845
153.80302,0.72010
153.56194,0.70840
153.32087,0.69493
153.07980,0.68236
152.83873,0.66999
152.59766,0.65548
152.35659,0.64013
152.11552,0.62805
151.87445,0.62043
151.63338,0.61405
151.39231,0.60553
151.15124,0.59473
150.91017,0.58341
150.66910,0.57170
150.42803,0.55901
150.18696,0.54706
149.94589,0.53757
149.70482,0.52920
149.46375,0.52026
149.22267,0.51162
148.98160,0.50461
148.74053,0.49890
148.49946,0.49407
148.25839,0.49022
148.01732,0.48638
147.77625,0.48156
147.53518,0.47699
147.29411,0.47469
147.05304,0.47438
146.81197,0.47373
146.57090,0.47150
146.32983,0.46934
146.08876,0.46993
145.84769,0.47371
145.60662,0.47871
145.36555,0.48341
145.12448,0.48805
144.88340,0.49268
144.64233,0.49608
144.40126,0.49775
144.16019,0.49914
143.91912,0.50121
143.67805,0.50238
143.43698,0.50091
143.19591,0.49750
142.95484,0.49343
142.71377,0.48844
142.47270,0.48203
142.23163,0.47484
141.99056,0.46797
141.74949,0.46194
141.50842,0.45554
141.26735,0.44654
141.02628,0.43513
140.78521,0.42534
140.54413,0.42143
140.30306,0.42400
140.06199,0.42975
139.82092,0.43384
139.57985,0.43395
139.33878,0.43241
139.09771,0.43277
138.85664,0.43551
138.61557,0.43927
138.37450,0.44363
138.13343,0.44868
137.89236,0.45412
137.65129,0.46024
137.41022,0.46879
137.16915,0.48222
136.92808,0.50149
136.68701,0.52352
136.44594,0.54246
136.20486,0.55549
135.96379,0.56621
135.72272,0.58033
135.48165,0.60000
135.24058,0.62370
134.99951,0.64947
134.75844,0.67627
134.51737,0.70331
134.27630,0.73033
134.03523,0.75780
133.79416,0.78561
133.55309,0.81326
133.31202,0.84108
133.07095,0.86812
132.82988,0.89133
132.58881,0.91012
132.34774,0.92643
132.10667,0.93838
131.86559,0.93974
131.62452,0.92820
131.38345,0.91035
131.14238,0.89633
130.90131,0.89044
130.66024,0.88840
130.41917,0.88430
130.17810,0.87723
129.93703,0.86731
129.69596,0.85115
129.45489,0.82747
129.21382,0.80129
128.97275,0.77737
128.73168,0.75414
128.49061,0.72697
128.24954,0.69495
128.00847,0.66168
127.76740,0.63148
127.52632,0.60670
127.28525,0.58708
127.04418,0.57064
126.80311,0.55522
126.56204,0.53924
126.32097,0.52247
126.07990,0.50638
125.83883,0.49235
125.59776,0.47921
125.35669,0.46450
125.11562,0.44892
124.87455,0.43628
124.63348,0.42806
124.39241,0.42140
124.15134,0.41323
123.91027,0.40368
123.66920,0.39471
123.42812,0.38756
123.18705,0.38216
122.94598,0.37802
122.70491,0.37469
122.46384,0.37202
122.22277,0.37037
121.98170,0.36996
121.74063,0.36994
121.49956,0.36934
121.25849,0.36886
121.01742,0.37044
120.77635,0.37483
120.53528,0.38106
120.29421,0.38831
120.05314,0.39720
119.81207,0.40896
119.57100,0.42411
119.32993,0.44189
119.08885,0.46048
118.84778,0.47830
118.60671,0.49588
118.36564,0.51585
118.12457,0.53970
117.88350,0.56532
117.64243,0.58876
117.40136,0.60794
117.16029,0.62343
116.91922,0.63643
116.67815,0.64626
116.43708,0.65030
116.19601,0.64640
115.95494,0.63516
115.71387,0.62065
115.47280,0.60892
115.23173,0.60367
114.99066,0.60236
114.74958,0.59943
114.50851,0.59367
114.26744,0.58734
114.02637,0.58010
113.78530,0.56982
113.54423,0.55855
113.30316,0.55216
113.06209,0.55311
112.82102,0.55715
112.57995,0.56007
112.33888,0.56334
112.09781,0.56835
111.85674,0.57172
111.61567,0.57160
111.37460,0.57142
111.13353,0.57332
110.89246,0.57430
110.65139,0.57120
110.41031,0.56500
110.16924,0.55820
109.92817,0.55148
109.68710,0.54403
109.44603,0.53507
109.20496,0.52474
108.96389,0.51281
108.72282,0.49760
108.48175,0.47900
108.24068,0.46089
107.99961,0.44769
107.75854,0.43964
107.51747,0.43341
107.27640,0.42633
107.03533,0.41798
106.79426,0.40760
106.55319,0.39324
106.31212,0.37549
106.07104,0.35923
105.82997,0.34817
105.58890,0.34074
105.34783,0.33378
105.10676,0.32676
104.86569,0.31969
104.62462,0.31088
104.38355,0.29996
104.14248,0.29003
103.90141,0.28414
103.66034,0.28174
103.41927,0.27965
103.17820,0.27478
102.93713,0.26618
102.69606,0.25541
102.45499,0.24555
102.21392,0.23965
101.97285,0.23887
101.73177,0.24090
101.49070,0.24122
101.24963,0.23755
101.00856,0.23168
100.76749,0.22627
100.52642,0.22187
100.28535,0.21778
100.04428,0.21363
99.80321,0.20939
99.56214,0.20491
99.32107,0.20025
99.08000,0.19665
98.83893,0.19632
98.59786,0.19947
98.35679,0.20263
98.11572,0.20203
97.87465,0.19830
97.63358,0.19538
97.39250,0.19569
97.15143,0.19856
96.91036,0.20259
96.66929,0.20710
96.42822,0.21171
96.18715,0.21599
95.94608,0.22028
95.70501,0.22569
95.46394,0.23236
95.22287,0.23865
94.98180,0.24285
94.74073,0.24477
94.49966,0.24513
94.25859,0.24471
94.01752,0.24447
93.77645,0.24517
93.53538,0.24682
93.29431,0.24854
93.05323,0.24875
92.81216,0.24639
92.57109,0.24299
92.33002,0.24200
92.08895,0.24455
91.84788,0.24810
91.60681,0.25043
91.36574,0.25286
91.12467,0.25876
90.88360,0.27082
90.64253,0.28997
90.40146,0.31522
90.16039,0.34442
89.91932,0.37689
89.67825,0.41450
89.43718,0.45817
89.19611,0.50428
88.95504,0.54668
88.71396,0.58095
88.47289,0.60406
88.23182,0.61302
87.99075,0.60712
87.74968,0.58755
87.50861,0.55458
87.26754,0.51135
87.02647,0.46657
86.78540,0.42782
86.54433,0.39591
86.30326,0.36822
86.06219,0.34342
85.82112,0.32118
85.58005,0.30083
85.33898,0.28196
85.09791,0.26500
84.85684,0.25053
84.61577,0.23812
84.37469,0.22655
84.13362,0.21545
83.89255,0.20522
83.65148,0.19549
83.41041,0.18530
83.16934,0.17506
82.92827,0.16643
82.68720,0.16008
82.44613,0.15469
82.20506,0.14849
81.96399,0.14149
81.72292,0.13608
81.48185,0.13444
81.24078,0.13544
80.99971,0.13573
80.75864,0.13381
80.51757,0.13119
80.27650,0.12981
80.03542,0.13010
79.79435,0.13139
79.55328,0.13266
79.31221,0.13310
79.07114,0.13247
78.83007,0.13070
78.58900,0.12731
78.34793,0.12207
78.10686,0.11618
77.86579,0.11181
77.62472,0.11059
77.38365,0.11207
77.14258,0.11286
76.90151,0.10929
76.66044,0.10199
76.41937,0.09547
76.17830,0.09240
75.93723,0.09145
75.69615,0.09075
75.45508,0.09006
75.21401,0.09004
74.97294,0.09183
74.73187,0.09622
74.49080,0.10140
74.24973,0.10347
74.00866,0.10111
73.76759,0.09776
73.52652,0.09657
73.28545,0.09655
73.04438,0.09587
72.80331,0.09547
72.56224,0.09601
72.32117,0.09556
72.08010,0.09311
71.83903,0.09051
71.59796,0.08976
71.35688,0.09127
71.11581,0.09403
70.87474,0.09626
70.63367,0.09873
70.39260,0.10638
70.15153,0.12217
69.91046,0.14140
69.66939,0.15631
69.42832,0.16380
69.18725,0.16534
68.94618,0.16369
68.70511,0.16120
68.46404,0.15778
68.22297,0.15134
67.98190,0.14127
67.74083,0.12948
67.49976,0.11803
67.25869,0.10728
67.01761,0.09705
66.77654,0.08846
66.53547,0.08290
66.29440,0.07975
66.05333,0.07735
65.81226,0.07609
65.57119,0.07776
65.33012,0.08275
65.08905,0.08990
64.84798,0.09832
64.60691,0.10749
64.36584,0.11651
64.12477,0.12389
63.88370,0.12791
63.64263,0.12766
63.40156,0.12344
63.16049,0.11656
62.91942,0.10920
62.67834,0.10342
62.43727,0.09958
62.19620,0.09638
61.95513,0.09235
61.71406,0.08618
61.47299,0.07707
61.23192,0.06669
60.99085,0.05954
60.74978,0.05919
60.50871,0.06422
60.26764,0.06951
60.02657,0.07149
59.78550,0.07084
59.54443,0.07027
59.30336,0.07167
59.06229,0.07466
58.82122,0.07662
58.58015,0.07589
58.33907,0.07462
58.09800,0.07540
57.85693,0.07684
57.61586,0.07668
57.37479,0.07624
57.13372,0.07710
56.89265,0.07687
56.65158,0.07286
56.41051,0.06679
56.16944,0.06255
55.92837,0.06134
55.68730,0.06181
55.44623,0.06281
55.20516,0.06388
54.96409,0.06474
54.72302,0.06609
54.48195,0.06937
54.24088,0.07487
53.99980,0.08117
53.75873,0.08630
53.51766,0.08791
53.27659,0.08423
53.03552,0.07667
52.79445,0.06940
52.55338,0.06563
52.31231,0.06533
52.07124,0.06548
51.83017,0.06259
51.58910,0.05639
51.34803,0.05118
51.10696,0.05222
50.86589,0.06033
50.62482,0.07083
50.38375,0.07856
50.14268,0.08254
49.90161,0.08417
49.66053,0.08327
49.41946,0.07893
49.17839,0.07225
48.93732,0.06536
48.69625,0.05955
48.45518,0.05539
48.21411,0.05360
47.97304,0.05551
47.73197,0.06191
47.49090,0.06983
47.24983,0.07214
47.00876,0.06444
46.76769,0.05073
46.52662,0.03889
46.28555,0.03321
46.04448,0.03344
45.80341,0.03717
45.56234,0.04040
45.32126,0.03969
45.08019,0.03549
44.83912,0.03103
44.59805,0.02894
44.35698,0.02979
44.11591,0.03131
43.87484,0.02944
43.63377,0.02289
43.39270,0.01482
43.15163,0.00921
42.91056,0.00831
42.66949,0.01354
42.42842,0.02388
42.18735,0.03318
41.94628,0.03504
41.70521,0.03060
41.46414,0.02615
41.22307,0.02426
40.98199,0.02281
40.74092,0.02108
40.49985,0.02068
40.25878,0.02148
40.01771,0.02234
39.77664,0.02626
39.53557,0.03813
39.29450,0.05647
39.05343,0.07418
38.81236,0.08509
38.57129,0.08395
38.33022,0.06912
38.08915,0.05155
37.84808,0.04764
37.60701,0.05886
37.36594,0.07208
37.12487,0.07976
36.88380,0.08131
36.64272,0.07205
36.40165,0.05006
36.16058,0.02523
35.91951,0.01462
35.67844,0.03147
35.43737,0.07085
35.19630,0.10862
34.95523,0.11737
34.71416,0.09432
34.47309,0.07243
34.23202,0.08123
33.99095,0.11409
33.74988,0.14537
33.50881,0.15754
33.26774,0.15366
33.02667,0.15430
32.78560,0.16922
32.54453,0.18244
32.30345,0.17129
32.06238,0.13117
31.82131,0.07787
31.58024,0.02516
31.33917,-0.01561
31.09810,-0.02405
30.85703,-0.00756
30.61596,0.00214
30.37489,-0.00846
30.13382,-0.02820
29.89275,-0.03039
29.65168,-0.00464
29.41061,0.02966
29.16954,0.05453
28.92847,0.07128
28.68740,0.09302
28.44633,0.13336
28.20526,0.18610
27.96418,0.20440
27.72311,0.14272
27.48204,0.03581
27.24097,-0.05131
26.99990,-0.08651
26.75883,-0.07465
26.51776,-0.03987
26.27669,-0.00543
26.03562,0.01164
25.79455,0.00622
25.55348,-0.00543
25.31241,0.01657
25.07134,0.06367
24.83027,0.09323
24.58920,0.09058
24.34813,0.06237
24.10706,0.02633
23.86599,-0.00803
23.62491,-0.01202
23.38384,-0.03649
23.14277,-0.12075
22.90170,-0.14423
22.66063,-0.07999
22.41956,-0.01464
22.17849,-0.02943
21.93742,-0.11215
21.69635,-0.20318
21.45528,-0.27010
21.21421,-0.29142
20.97314,-0.17642
20.73207,-0.00706
20.49100,0.13661
20.24993,0.24582
20.00886,0.32891
19.76779,0.27529
19.52672,0.07979
19.28564,-0.09608
19.04457,-0.05062
18.80350,0.02584
18.56243,-0.04280
18.32136,-0.11359
18.08029,-0.10009
17.83922,0.05075
17.59815,0.31109
17.35708,0.44992
17.11601,0.38979
16.87494,0.25042
16.63387,0.13908
16.39280,0.05858
16.15173,-0.01928
15.91066,-0.03146
15.66959,0.22339
15.42852,0.31621
15.18745,0.17403
14.94637,0.06460
14.70530,0.03861
14.46423,0.07861
14.22316,0.21106
13.98209,0.43353
13.74102,0.34576
13.49995,0.23101
13.25888,0.29783
13.01781,0.43436
12.77674,0.32071
12.53567,0.24423
12.29460,0.13781
12.05353,0.15125
11.81246,0.24657
11.57139,0.33164
11.33032,0.25162
11.08925,0.10447
10.84818,0.01075
10.60710,0.05825
10.36603,0.17466
10.12496,0.23235
9.88389,0.31161
9.64282,0.25872
9.40175,-0.02954
9.16068,-0.30760
8.91961,0.33222
8.67854,0.11809
8.43747,-0.07870
8.19640,-0.09003
7.95533,-0.05334
7.71426,-0.14017
7.47319,-0.07747
7.23212,0.06882
6.99105,0.15833
6.74998,0.25444
6.50891,0.30357
6.26783,0.21086
6.02676,0.03796
5.78569,-0.12952
5.54462,-0.25469
5.30355,-0.38946
5.06248,-0.43188
4.82141,-0.60771
4.58034,-0.58418
4.33927,-0.25980
4.09820,-0.22966
3.85713,-0.29307
3.61606,-0.10521
3.37499,0.10018
3.13392,-0.02638
2.89285,-0.00446
2.65178,0.10643
2.41071,0.13581
2.16964,-0.14895
1.92856,-0.18551
1.68749,0.20574
1.44642,0.30565
1.20535,0.18370
0.96428,0.06619
0.72321,-0.03744
0.48214,0.13990
0.24107,0.34828
-0.00000,0.03812
