399.69498,1.81190
399.45391,1.81883
399.21284,1.81730
398.97177,1.81605
398.73070,1.78910
398.48963,1.74703
398.24856,1.72989
398.00749,1.74799
397.76642,1.77243
397.52535,1.72717
397.28428,1.69187
397.04321,1.70725
396.80214,1.75367
396.56107,1.81189
396.32000,1.86605
396.07892,1.87820
395.83785,1.83554
395.59678,1.76264
395.35571,1.70363
395.11464,1.68619
394.87357,1.68949
394.63250,1.66099
394.39143,1.65584
394.15036,1.69573
393.90929,1.73772
393.66822,1.75967
393.42715,1.76923
393.18608,1.75486
392.94501,1.71431
392.70394,1.71610
392.46287,1.74666
392.22180,1.73822
391.98073,1.71272
391.73965,1.67428
391.49858,1.62690
391.25751,1.60338
391.01644,1.62184
390.77537,1.67434
390.53430,1.71728
390.29323,1.71138
390.05216,1.67922
389.81109,1.66348
389.57002,1.68713
389.32895,1.72428
389.08788,1.67410
388.84681,1.59593
388.60574,1.53845
388.36467,1.50304
388.12360,1.48647
387.88253,1.49196
387.64146,1.52884
387.40038,1.59374
387.15931,1.65783
386.91824,1.68793
386.67717,1.67037
386.43610,1.62170
386.19503,1.56547
385.95396,1.50694
385.71289,1.45371
385.47182,1.45555
385.23075,1.53254
384.98968,1.63351
384.74861,1.66632
384.50754,1.66087
384.26647,1.64332
384.02540,1.62609
383.78433,1.61398
383.54326,1.53308
383.30219,1.47290
383.06111,1.45994
382.82004,1.47234
382.57897,1.48807
382.33790,1.48827
382.09683,1.44387
381.85576,1.41310
381.61469,1.37979
381.37362,1.33018
381.13255,1.28436
380.89148,1.26829
380.65041,1.28799
380.40934,1.32238
380.16827,1.35026
379.92720,1.37775
379.68613,1.41637
379.44506,1.47644
379.20399,1.56623
378.96292,1.66400
378.72184,1.70192
378.48077,1.66077
378.23970,1.57605
377.99863,1.49948
377.75756,1.47253
377.51649,1.50423
377.27542,1.56723
377.03435,1.60571
376.79328,1.59344
376.55221,1.58061
376.31114,1.57159
376.07007,1.54627
375.82900,1.53481
375.58793,1.56351
375.34686,1.61641
375.10579,1.65953
374.86472,1.67653
374.62365,1.66091
374.38257,1.64905
374.14150,1.65821
373.90043,1.66858
373.65936,1.64151
373.41829,1.59788
373.17722,1.55793
372.93615,1.51412
372.69508,1.47696
372.45401,1.45141
372.21294,1.44443
371.97187,1.45673
371.73080,1.47765
371.48973,1.49895
371.24866,1.51244
371.00759,1.51482
370.76652,1.51628
370.52545,1.53009
370.28437,1.55346
370.04330,1.56080
369.80223,1.55059
369.56116,1.54893
369.32009,1.56321
369.07902,1.57265
368.83795,1.56889
368.59688,1.56824
368.35581,1.58155
368.11474,1.60206
367.87367,1.59454
367.63260,1.54466
367.39153,1.48974
367.15046,1.46058
366.90939,1.45820
366.66832,1.46252
366.42725,1.46271
366.18618,1.47394
365.94510,1.50827
365.70403,1.54967
365.46296,1.56602
365.22189,1.55379
364.98082,1.51742
364.73975,1.48113
364.49868,1.47161
364.25761,1.48537
364.01654,1.51930
363.77547,1.56006
363.53440,1.57180
363.29333,1.53640
363.05226,1.48708
362.81119,1.45950
362.57012,1.45854
362.32905,1.46239
362.08798,1.45392
361.84691,1.44894
361.60583,1.46410
361.36476,1.48861
361.12369,1.49529
360.88262,1.47707
360.64155,1.45283
360.40048,1.43126
360.15941,1.40878
359.91834,1.39500
359.67727,1.39539
359.43620,1.40157
359.19513,1.40874
358.95406,1.42098
358.71299,1.43705
358.47192,1.44507
358.23085,1.44153
357.98978,1.43629
357.74871,1.43423
357.50764,1.43131
357.26656,1.42303
357.02549,1.41215
356.78442,1.40594
356.54335,1.40504
356.30228,1.40524
356.06121,1.40394
355.82014,1.40077
355.57907,1.40051
355.33800,1.41287
355.09693,1.43850
354.85586,1.45514
354.61479,1.43824
354.37372,1.41019
354.13265,1.40415
353.89158,1.41670
353.65051,1.42626
353.40944,1.41911
353.16837,1.40287
352.92729,1.39781
352.68622,1.41356
352.44515,1.43491
352.20408,1.43530
351.96301,1.41407
351.72194,1.39828
351.48087,1.40098
351.23980,1.41692
350.99873,1.44127
350.75766,1.47507
350.51659,1.51477
350.27552,1.54242
350.03445,1.54050
349.79338,1.51322
349.55231,1.48570
349.31124,1.47107
349.07017,1.46794
348.82910,1.47617
348.58802,1.48822
348.34695,1.49189
348.10588,1.48816
347.86481,1.48502
347.62374,1.47547
347.38267,1.45837
347.14160,1.45352
346.90053,1.47518
346.65946,1.50694
346.41839,1.51855
346.17732,1.50850
345.93625,1.50475
345.69518,1.52202
345.45411,1.54569
345.21304,1.54261
344.97197,1.51930
344.73090,1.50398
344.48983,1.49390
344.24875,1.49007
344.00768,1.50255
343.76661,1.52934
343.52554,1.56037
343.28447,1.55609
343.04340,1.51257
342.80233,1.49205
342.56126,1.50916
342.32019,1.54610
342.07912,1.57099
341.83805,1.55822
341.59698,1.52260
341.35591,1.49464
341.11484,1.49877
340.87377,1.53893
340.63270,1.58153
340.39163,1.53031
340.15056,1.48120
339.90948,1.49552
339.66841,1.55397
339.42734,1.60956
339.18627,1.62419
338.94520,1.59821
338.70413,1.56381
338.46306,1.55532
338.22199,1.58002
337.98092,1.60940
337.73985,1.61339
337.49878,1.59765
337.25771,1.56814
337.01664,1.53895
336.77557,1.54052
336.53450,1.58529
336.29343,1.62505
336.05236,1.61985
335.81129,1.62944
335.57021,1.60203
335.32914,1.55628
335.08807,1.53716
334.84700,1.53995
334.60593,1.53155
334.36486,1.50470
334.12379,1.48487
333.88272,1.48516
333.64165,1.49652
333.40058,1.49958
333.15951,1.48389
332.91844,1.46212
332.67737,1.45710
332.43630,1.47223
332.19523,1.48945
331.95416,1.49781
331.71309,1.50878
331.47202,1.53138
331.23094,1.54407
330.98987,1.52726
330.74880,1.50968
330.50773,1.54350
330.26666,1.61489
330.02559,1.56119
329.78452,1.48615
329.54345,1.44549
329.30238,1.44142
329.06131,1.46057
328.82024,1.46861
328.57917,1.44863
328.33810,1.43003
328.09703,1.45698
327.85596,1.56089
327.61489,1.70189
327.37382,1.67607
327.13275,1.63219
326.89167,1.59405
326.65060,1.55464
326.40953,1.56371
326.16846,1.50812
325.92739,1.44371
325.68632,1.44172
325.44525,1.49054
325.20418,1.53466
324.96311,1.54151
324.72204,1.52380
324.48097,1.50245
324.23990,1.49360
323.99883,1.51051
323.75776,1.55752
323.51669,1.60917
323.27562,1.60240
323.03455,1.57749
322.79348,1.57992
322.55240,1.58996
322.31133,1.53748
322.07026,1.51349
321.82919,1.52171
321.58812,1.51476
321.34705,1.49903
321.10598,1.47368
320.86491,1.40780
320.62384,1.37179
320.38277,1.41572
320.14170,1.52336
319.90063,1.58956
319.65956,1.56617
319.41849,1.49459
319.17742,1.43678
318.93635,1.40903
318.69528,1.39895
318.45421,1.39159
318.21313,1.38578
317.97206,1.38393
317.73099,1.38648
317.48992,1.41337
317.24885,1.47392
317.00778,1.52537
316.76671,1.52194
316.52564,1.48362
316.28457,1.47714
316.04350,1.52596
315.80243,1.55039
315.56136,1.56524
315.32029,1.52007
315.07922,1.45159
314.83815,1.43571
314.59708,1.46861
314.35601,1.52026
314.11494,1.51418
313.87386,1.50037
313.63279,1.52748
313.39172,1.57121
313.15065,1.59475
312.90958,1.59675
312.66851,1.59073
312.42744,1.54530
312.18637,1.49372
311.94530,1.46498
311.70423,1.45477
311.46316,1.46043
311.22209,1.48019
310.98102,1.51141
310.73995,1.54483
310.49888,1.56997
310.25781,1.57278
310.01674,1.55377
309.77567,1.54331
309.53459,1.56101
309.29352,1.60112
309.05245,1.62762
308.81138,1.61259
308.57031,1.58435
308.32924,1.56985
308.08817,1.56135
307.84710,1.54839
307.60603,1.54150
307.36496,1.55555
307.12389,1.58041
306.88282,1.58645
306.64175,1.57262
306.40068,1.56894
306.15961,1.56608
305.91854,1.54000
305.67747,1.51728
305.43640,1.51810
305.19532,1.54498
304.95425,1.59632
304.71318,1.65265
304.47211,1.66837
304.23104,1.63470
303.98997,1.58814
303.74890,1.52361
303.50783,1.45874
303.26676,1.42358
303.02569,1.42612
302.78462,1.45114
302.54355,1.47872
302.30248,1.50481
302.06141,1.55001
301.82034,1.61985
301.57927,1.66231
301.33820,1.63170
301.09713,1.56484
300.85605,1.51436
300.61498,1.49359
300.37391,1.48641
300.13284,1.47419
299.89177,1.45713
299.65070,1.44638
299.40963,1.44390
299.16856,1.43780
298.92749,1.42635
298.68642,1.41990
298.44535,1.42191
298.20428,1.42245
297.96321,1.41057
297.72214,1.39123
297.48107,1.38291
297.24000,1.39851
296.99893,1.42385
296.75786,1.41731
296.51678,1.37106
296.27571,1.31903
296.03464,1.28750
295.79357,1.28726
295.55250,1.32319
295.31143,1.39405
295.07036,1.46948
294.82929,1.48084
294.58822,1.41858
294.34715,1.35170
294.10608,1.32081
293.86501,1.33054
293.62394,1.36897
293.38287,1.40979
293.14180,1.41437
292.90073,1.37371
292.65966,1.33092
292.41859,1.31584
292.17751,1.32680
291.93644,1.34635
291.69537,1.35426
291.45430,1.34037
291.21323,1.31949
290.97216,1.31208
290.73109,1.32346
290.49002,1.34657
290.24895,1.36601
290.00788,1.36853
289.76681,1.35813
289.52574,1.35154
289.28467,1.35312
289.04360,1.34995
288.80253,1.33310
288.56146,1.31074
288.32039,1.29351
288.07932,1.28356
287.83824,1.28571
287.59717,1.30156
287.35610,1.31565
287.11503,1.31292
286.87396,1.30111
286.63289,1.29550
286.39182,1.30197
286.15075,1.31426
285.90968,1.32080
285.66861,1.31895
285.42754,1.31608
285.18647,1.31505
284.94540,1.31149
284.70433,1.30242
284.46326,1.29140
284.22219,1.28319
283.98112,1.27522
283.74005,1.26362
283.49897,1.25521
283.25790,1.25992
283.01683,1.27380
282.77576,1.27822
282.53469,1.26211
282.29362,1.23952
282.05255,1.23007
281.81148,1.23586
281.57041,1.24436
281.32934,1.24472
281.08827,1.23945
280.84720,1.24031
280.60613,1.25216
280.36506,1.26539
280.12399,1.26731
279.88292,1.25933
279.64185,1.25467
279.40078,1.26152
279.15970,1.27212
278.91863,1.27195
278.67756,1.26220
278.43649,1.25651
278.19542,1.25949
277.95435,1.26530
277.71328,1.27233
277.47221,1.28446
277.23114,1.29821
276.99007,1.30001
276.74900,1.28278
276.50793,1.26094
276.26686,1.25682
276.02579,1.27523
275.78472,1.29696
275.54365,1.29978
275.30258,1.28462
275.06151,1.26870
274.82043,1.26270
274.57936,1.26570
274.33829,1.27163
274.09722,1.27403
273.85615,1.26884
273.61508,1.25628
273.37401,1.24227
273.13294,1.23831
272.89187,1.25161
272.65080,1.27274
272.40973,1.27974
272.16866,1.26444
271.92759,1.24576
271.68652,1.24303
271.44545,1.25420
271.20438,1.26612
270.96331,1.27252
270.72224,1.27418
270.48116,1.27233
270.24009,1.27241
269.99902,1.28310
269.75795,1.30505
269.51688,1.32821
269.27581,1.34301
269.03474,1.35115
268.79367,1.36072
268.55260,1.36957
268.31153,1.36599
268.07046,1.34925
267.82939,1.33212
267.58832,1.32334
267.34725,1.32124
267.10618,1.32301
266.86511,1.33141
266.62404,1.35057
266.38297,1.37787
266.14189,1.40126
265.90082,1.40878
265.65975,1.40047
265.41868,1.38722
265.17761,1.37991
264.93654,1.38230
264.69547,1.39072
264.45440,1.40052
264.21333,1.41422
263.97226,1.43555
263.73119,1.45899
263.49012,1.47812
263.24905,1.49713
263.00798,1.52233
262.76691,1.54862
262.52584,1.56548
262.28477,1.57314
262.04370,1.58423
261.80262,1.60785
261.56155,1.63171
261.32048,1.63771
261.07941,1.63627
260.83834,1.65286
260.59727,1.68980
260.35620,1.72304
260.11513,1.72881
259.87406,1.71215
259.63299,1.70748
259.39192,1.74704
259.15085,1.83471
258.90978,1.93786
258.66871,2.01434
258.42764,2.05254
258.18657,2.04135
257.94550,1.98601
257.70443,1.95433
257.46335,1.98699
257.22228,2.03958
256.98121,2.02489
256.74014,1.94226
256.49907,1.86128
256.25800,1.80686
256.01693,1.77749
255.77586,1.78214
255.53479,1.83562
255.29372,1.93350
255.05265,2.03920
254.81158,2.09363
254.57051,2.07853
254.32944,1.96125
254.08837,1.85830
253.84730,1.78150
253.60623,1.72306
253.36516,1.69077
253.12408,1.68929
252.88301,1.71605
252.64194,1.75767
252.40087,1.79386
252.15980,1.82329
251.91873,1.85489
251.67766,1.83709
251.43659,1.76075
251.19552,1.71777
250.95445,1.71937
250.71338,1.73676
250.47231,1.73833
250.23124,1.71711
249.99017,1.69415
249.74910,1.68345
249.50803,1.67818
249.26696,1.67550
249.02589,1.67985
248.78481,1.68224
248.54374,1.66946
248.30267,1.65695
248.06160,1.66657
247.82053,1.69752
247.57946,1.73781
247.33839,1.77783
247.09732,1.79255
246.85625,1.74883
246.61518,1.68196
246.37411,1.63366
246.13304,1.62533
245.89197,1.66997
245.65090,1.75102
245.40983,1.82809
245.16876,1.90469
244.92769,1.97238
244.68661,1.97688
244.44554,1.92805
244.20447,1.90255
243.96340,1.94491
243.72233,2.02756
243.48126,2.08217
243.24019,2.09780
242.99912,2.09226
242.75805,2.03681
242.51698,1.99265
242.27591,1.96330
242.03484,1.89810
241.79377,1.78052
241.55270,1.65207
241.31163,1.55667
241.07056,1.49426
240.82949,1.44558
240.58842,1.40184
240.34734,1.36585
240.10627,1.33959
239.86520,1.32157
239.62413,1.30685
239.38306,1.28654
239.14199,1.26275
238.90092,1.24655
238.65985,1.24069
238.41878,1.23795
238.17771,1.22891
237.93664,1.20950
237.69557,1.18082
237.45450,1.14562
237.21343,1.11050
236.97236,1.08532
236.73129,1.07404
236.49022,1.06976
236.24915,1.06111
236.00807,1.04392
235.76700,1.02666
235.52593,1.02109
235.28486,1.02853
235.04379,1.03528
234.80272,1.02574
234.56165,1.00478
234.32058,0.99190
234.07951,0.99972
233.83844,1.02002
233.59737,1.02462
233.35630,1.00424
233.11523,0.98469
232.87416,0.98404
232.63309,0.99458
232.39202,0.99640
232.15095,0.98134
231.90988,0.96271
231.66880,0.95623
231.42773,0.96351
231.18666,0.97152
230.94559,0.96816
230.70452,0.96156
230.46345,0.96529
230.22238,0.97575
229.98131,0.97900
229.74024,0.97159
229.49917,0.96209
229.25810,0.95586
229.01703,0.95163
228.77596,0.94988
228.53489,0.95278
228.29382,0.95789
228.05275,0.95808
227.81168,0.95146
227.57061,0.94482
227.32953,0.94168
227.08846,0.93368
226.84739,0.91364
226.60632,0.89506
226.36525,0.89401
226.12418,0.90540
225.88311,0.90935
225.64204,0.90108
225.40097,0.89468
225.15990,0.89649
224.91883,0.90002
224.67776,0.90286
224.43669,0.91220
224.19562,0.92811
223.95455,0.93813
223.71348,0.93717
223.47241,0.93621
223.23134,0.94081
222.99026,0.94364
222.74919,0.94029
222.50812,0.93328
222.26705,0.92416
222.02598,0.91768
221.78491,0.92119
221.54384,0.93275
221.30277,0.94355
221.06170,0.95348
220.82063,0.96853
220.57956,0.98471
220.33849,0.99237
220.09742,0.99034
219.85635,0.98304
219.61528,0.97462
219.37421,0.97035
219.13314,0.97370
218.89207,0.98256
218.65099,0.99192
218.40992,0.99952
218.16885,1.00692
217.92778,1.01689
217.68671,1.03122
217.44564,1.05098
217.20457,1.07627
216.96350,1.10091
216.72243,1.11338
216.48136,1.11335
216.24029,1.11394
215.99922,1.12286
215.75815,1.13719
215.51708,1.15328
215.27601,1.17150
215.03494,1.19195
214.79387,1.21423
214.55280,1.24166
214.31172,1.27092
214.07065,1.28039
213.82958,1.26031
213.58851,1.23613
213.34744,1.22590
213.10637,1.22602
212.86530,1.22889
212.62423,1.22798
212.38316,1.21464
212.14209,1.18929
211.90102,1.16895
211.65995,1.16912
211.41888,1.18810
211.17781,1.21130
210.93674,1.22990
210.69567,1.25106
210.45460,1.28315
210.21353,1.32020
209.97245,1.34302
209.73138,1.33568
209.49031,1.30866
209.24924,1.27715
209.00817,1.24609
208.76710,1.22206
208.52603,1.20749
208.28496,1.19674
208.04389,1.18980
207.80282,1.19613
207.56175,1.22291
207.32068,1.26289
207.07961,1.29415
206.83854,1.29872
206.59747,1.27629
206.35640,1.23660
206.11533,1.19244
205.87426,1.15732
205.63318,1.13896
205.39211,1.13462
205.15104,1.13412
204.90997,1.13216
204.66890,1.13593
204.42783,1.15142
204.18676,1.17278
203.94569,1.18428
203.70462,1.17020
203.46355,1.13466
203.22248,1.09438
202.98141,1.05758
202.74034,1.02617
202.49927,1.00564
202.25820,1.00466
202.01713,1.02287
201.77606,1.04421
201.53499,1.04710
201.29391,1.02544
201.05284,0.99143
200.81177,0.95674
200.57070,0.92574
200.32963,0.90030
200.08856,0.88215
199.84749,0.87209
199.60642,0.87076
199.36535,0.87959
199.12428,0.89832
198.88321,0.91952
198.64214,0.92498
198.40107,0.90093
198.16000,0.86062
197.91893,0.82529
197.67786,0.80683
197.43679,0.80852
197.19572,0.82400
196.95464,0.83464
196.71357,0.82149
196.47250,0.79078
196.23143,0.76322
195.99036,0.74885
195.74929,0.74718
195.50822,0.75634
195.26715,0.77072
195.02608,0.77407
194.78501,0.75754
194.54394,0.73674
194.30287,0.72878
194.06180,0.73682
193.82073,0.75116
193.57966,0.75655
193.33859,0.74608
193.09752,0.72722
192.85645,0.71180
192.61537,0.70402
192.37430,0.69952
192.13323,0.69355
191.89216,0.68599
191.65109,0.67842
191.41002,0.67166
191.16895,0.66675
190.92788,0.66441
190.68681,0.66292
190.44574,0.65932
190.20467,0.65416
189.96360,0.65318
189.72253,0.66234
189.48146,0.67974
189.24039,0.69132
188.99932,0.68090
188.75825,0.65346
188.51718,0.63012
188.27610,0.62363
188.03503,0.62956
187.79396,0.63263
187.55289,0.62836
187.31182,0.62845
187.07075,0.63918
186.82968,0.65341
186.58861,0.65706
186.34754,0.64576
186.10647,0.63343
185.86540,0.63363
185.62433,0.64570
185.38326,0.65497
185.14219,0.64839
184.90112,0.63500
184.66005,0.63063
184.41898,0.63625
184.17791,0.64245
183.93683,0.64496
183.69576,0.64887
183.45469,0.65802
183.21362,0.66728
182.97255,0.66934
182.73148,0.66694
182.49041,0.66747
182.24934,0.66899
182.00827,0.66641
181.76720,0.66719
181.52613,0.68159
181.28506,0.70210
181.04399,0.70738
180.80292,0.69623
180.56185,0.68918
180.32078,0.69333
180.07971,0.69634
179.83864,0.69123
179.59756,0.68835
179.35649,0.69334
179.11542,0.69628
178.87435,0.69029
178.63328,0.68415
178.39221,0.68552
178.15114,0.69291
177.91007,0.70618
177.66900,0.72547
177.42793,0.74223
177.18686,0.75012
176.94579,0.75628
176.70472,0.76781
176.46365,0.78308
176.22258,0.79998
175.98151,0.81820
175.74044,0.83529
175.49937,0.85131
175.25829,0.87162
175.01722,0.89750
174.77615,0.92344
174.53508,0.94461
174.29401,0.95881
174.05294,0.96489
173.81187,0.96702
173.57080,0.97282
173.32973,0.98518
173.08866,1.00176
172.84759,1.01713
172.60652,1.02664
172.36545,1.03110
172.12438,1.03261
171.88331,1.02973
171.64224,1.02306
171.40117,1.02019
171.16010,1.02711
170.91902,1.03970
170.67795,1.04938
170.43688,1.05193
170.19581,1.04469
169.95474,1.02657
169.71367,1.00663
169.47260,0.99387
169.23153,0.98567
168.99046,0.97554
168.74939,0.96325
168.50832,0.95239
168.26725,0.94399
168.02618,0.93910
167.78511,0.94121
167.54404,0.95025
167.30297,0.96020
167.06190,0.96434
166.82083,0.95993
166.57975,0.95012
166.33868,0.94322
166.09761,0.94587
165.85654,0.95658
165.61547,0.96733
165.37440,0.97172
165.13333,0.97163
164.89226,0.97594
164.65119,0.99275
164.41012,1.02129
164.16905,1.04794
163.92798,1.05678
163.68691,1.04930
163.44584,1.04005
163.20477,1.03842
162.96370,1.04545
162.72263,1.05904
162.48156,1.07404
162.24048,1.08460
161.99941,1.09077
161.75834,1.09810
161.51727,1.10879
161.27620,1.11660
161.03513,1.11702
160.79406,1.11733
160.55299,1.12558
160.31192,1.13651
160.07085,1.13831
159.82978,1.12675
159.58871,1.10302
159.34764,1.06748
159.10657,1.02541
158.86550,0.98914
158.62443,0.96790
158.38336,0.96185
158.14229,0.96655
157.90121,0.97717
157.66014,0.98869
157.41907,0.99710
157.17800,1.00211
156.93693,1.00767
156.69586,1.01822
156.45479,1.03192
156.21372,1.03772
155.97265,1.02534
155.73158,0.99927
155.49051,0.97201
155.24944,0.94979
155.00837,0.93396
154.76730,0.92496
154.52623,0.92118
154.28516,0.92052
154.04409,0.92284
153.80302,0.92528
153.56194,0.91880
153.32087,0.89614
153.07980,0.86130
152.83873,0.82533
152.59766,0.79549
152.35659,0.77299
152.11552,0.75844
151.87445,0.75387
151.63338,0.75819
151.39231,0.76418
151.15124,0.76375
150.91017,0.75557
150.66910,0.74364
150.42803,0.72911
150.18696,0.70872
149.94589,0.68256
149.70482,0.65895
149.46375,0.64762
149.22267,0.65084
148.98160,0.66286
148.74053,0.67476
148.49946,0.67644
148.25839,0.66280
148.01732,0.64055
147.77625,0.61961
147.53518,0.60815
147.29411,0.61135
147.05304,0.62560
146.81197,0.63873
146.57090,0.64096
146.32983,0.63399
146.08876,0.62596
145.84769,0.62415
145.60662,0.63278
145.36555,0.64936
145.12448,0.66381
144.88340,0.66814
144.64233,0.66589
144.40126,0.66650
144.16019,0.67302
143.91912,0.67949
143.67805,0.67830
143.43698,0.66761
143.19591,0.65274
142.95484,0.64204
142.71377,0.63952
142.47270,0.63962
142.23163,0.63215
141.99056,0.61537
141.74949,0.59929
141.50842,0.59269
141.26735,0.59280
141.02628,0.58941
140.78521,0.57851
140.54413,0.56815
140.30306,0.56817
140.06199,0.57765
139.82092,0.58526
139.57985,0.58275
139.33878,0.57563
139.09771,0.57568
138.85664,0.58645
138.61557,0.60048
138.37450,0.60936
138.13343,0.61280
137.89236,0.61740
137.65129,0.62802
137.41022,0.64080
137.16915,0.65201
136.92808,0.66741
136.68701,0.69026
136.44594,0.71170
136.20486,0.72378
135.96379,0.73309
135.72272,0.74863
135.48165,0.76851
135.24058,0.79202
134.99951,0.82665
134.75844,0.87159
134.51737,0.90901
134.27630,0.92560
134.03523,0.93438
133.79416,0.95070
133.55309,0.97133
133.31202,0.99352
133.07095,1.02564
132.82988,1.06750
132.58881,1.10668
132.34774,1.13353
132.10667,1.14656
131.86559,1.15056
131.62452,1.14698
131.38345,1.13026
131.14238,1.10106
130.90131,1.07447
130.66024,1.06519
130.41917,1.06984
130.17810,1.08226
129.93703,1.10609
129.69596,1.13605
129.45489,1.14186
129.21382,1.09716
128.97275,1.02088
128.73168,0.94872
128.49061,0.89764
128.24954,0.86245
128.00847,0.83134
127.76740,0.80152
127.52632,0.77843
127.28525,0.76322
127.04418,0.75071
126.80311,0.73739
126.56204,0.72365
126.32097,0.70834
126.07990,0.68841
125.83883,0.66501
125.59776,0.64235
125.35669,0.62202
125.11562,0.60398
124.87455,0.58951
124.63348,0.57889
124.39241,0.57026
124.15134,0.56219
123.91027,0.55461
123.66920,0.54844
123.42812,0.54546
123.18705,0.54606
122.94598,0.54773
122.70491,0.54791
122.46384,0.54638
122.22277,0.54377
121.98170,0.54052
121.74063,0.53768
121.49956,0.53628
121.25849,0.53621
121.01742,0.53669
120.77635,0.53747
120.53528,0.53924
120.29421,0.54299
120.05314,0.54891
119.81207,0.55714
119.57100,0.56904
119.32993,0.58617
119.08885,0.60893
118.84778,0.63692
118.60671,0.66880
118.36564,0.70190
118.12457,0.73374
117.88350,0.76314
117.64243,0.78835
117.40136,0.80731
117.16029,0.82079
116.91922,0.83235
116.67815,0.84666
116.43708,0.86695
116.19601,0.88797
115.95494,0.89706
115.71387,0.88916
115.47280,0.87074
115.23173,0.84954
114.99066,0.83004
114.74958,0.81413
114.50851,0.80019
114.26744,0.78443
114.02637,0.76766
113.78530,0.75602
113.54423,0.75403
113.30316,0.76062
113.06209,0.77141
112.82102,0.78257
112.57995,0.79225
112.33888,0.80009
112.09781,0.80658
111.85674,0.81161
111.61567,0.81461
111.37460,0.81877
111.13353,0.82891
110.89246,0.84213
110.65139,0.84708
110.41031,0.83619
110.16924,0.81496
109.92817,0.79432
109.68710,0.77742
109.44603,0.75951
109.20496,0.73831
108.96389,0.71687
108.72282,0.69617
108.48175,0.67260
108.24068,0.64404
107.99961,0.61216
107.75854,0.57840
107.51747,0.54287
107.27640,0.50776
107.03533,0.47922
106.79426,0.46317
106.55319,0.45880
106.31212,0.45946
106.07104,0.46041
105.82997,0.46256
105.58890,0.46871
105.34783,0.48014
105.10676,0.49724
104.86569,0.51942
104.62462,0.54070
104.38355,0.54512
104.14248,0.52168
103.90141,0.48304
103.66034,0.44437
103.41927,0.41160
103.17820,0.38773
102.93713,0.37508
102.69606,0.37350
102.45499,0.38089
102.21392,0.39542
101.97285,0.41416
101.73177,0.42905
101.49070,0.42996
101.24963,0.41608
101.00856,0.39610
100.76749,0.37474
100.52642,0.35082
100.28535,0.32784
100.04428,0.31649
99.80321,0.32609
99.56214,0.35857
99.32107,0.40150
99.08000,0.41575
98.83893,0.37720
98.59786,0.32578
98.35679,0.29526
98.11572,0.29378
97.87465,0.31785
97.63358,0.35804
97.39250,0.39378
97.15143,0.39586
96.91036,0.36781
96.66929,0.34151
96.42822,0.33720
96.18715,0.36050
95.94608,0.39920
95.70501,0.41781
95.46394,0.39888
95.22287,0.37625
94.98180,0.37763
94.74073,0.40662
94.49966,0.43854
94.25859,0.43135
94.01752,0.39852
93.77645,0.38455
93.53538,0.40778
93.29431,0.44982
93.05323,0.45029
92.81216,0.40605
92.57109,0.38218
92.33002,0.40296
92.08895,0.44254
91.84788,0.44247
91.60681,0.41224
91.36574,0.40166
91.12467,0.41864
90.88360,0.43844
90.64253,0.44588
90.40146,0.46335
90.16039,0.50367
89.91932,0.53989
89.67825,0.55789
89.43718,0.59651
89.19611,0.65739
88.95504,0.68284
88.71396,0.68192
88.47289,0.70519
88.23182,0.75377
87.99075,0.78563
87.74968,0.78027
87.50861,0.75025
87.26754,0.70207
87.02647,0.65115
86.78540,0.61229
86.54433,0.58077
86.30326,0.54880
86.06219,0.51884
85.82112,0.49397
85.58005,0.47086
85.33898,0.44722
85.09791,0.42390
84.85684,0.40207
84.61577,0.38461
84.37469,0.37412
84.13362,0.36903
83.89255,0.36499
83.65148,0.35836
83.41041,0.34860
83.16934,0.33913
82.92827,0.33303
82.68720,0.32767
82.44613,0.31902
82.20506,0.30906
81.96399,0.30258
81.72292,0.29998
81.48185,0.29862
81.24078,0.29823
80.99971,0.29865
80.75864,0.29631
80.51757,0.29014
80.27650,0.28542
80.03542,0.28646
79.79435,0.29055
79.55328,0.29241
79.31221,0.29145
79.07114,0.29090
78.83007,0.29200
78.58900,0.29056
78.34793,0.28243
78.10686,0.27084
77.86579,0.26184
77.62472,0.25529
77.38365,0.24771
77.14258,0.24266
76.90151,0.24617
76.66044,0.25353
76.41937,0.25230
76.17830,0.24132
75.93723,0.23224
75.69615,0.23166
75.45508,0.23293
75.21401,0.22883
74.97294,0.22454
74.73187,0.22717
74.49080,0.23248
74.24973,0.22822
74.00866,0.21286
73.76759,0.19959
73.52652,0.19946
73.28545,0.20974
73.04438,0.21646
72.80331,0.21188
72.56224,0.20507
72.32117,0.20627
72.08010,0.21137
71.83903,0.20769
71.59796,0.19465
71.35688,0.18766
71.11581,0.19851
70.87474,0.22497
70.63367,0.25239
70.39260,0.26018
70.15153,0.24526
69.91046,0.23036
69.66939,0.23538
69.42832,0.26606
69.18725,0.32105
68.94618,0.38529
68.70511,0.40278
68.46404,0.35081
68.22297,0.29757
67.98190,0.27170
67.74083,0.27166
67.49976,0.29733
67.25869,0.34774
67.01761,0.38002
66.77654,0.32640
66.53547,0.25369
66.29440,0.20295
66.05333,0.17447
65.81226,0.16509
65.57119,0.17394
65.33012,0.20010
65.08905,0.23900
64.84798,0.28327
64.60691,0.32459
64.36584,0.34245
64.12477,0.31413
63.88370,0.25846
63.64263,0.20209
63.40156,0.15556
63.16049,0.12260
62.91942,0.10612
62.67834,0.10641
62.43727,0.11803
62.19620,0.13321
61.95513,0.14808
61.71406,0.16133
61.47299,0.17237
61.23192,0.18512
60.99085,0.20665
60.74978,0.23987
60.50871,0.27995
60.26764,0.31785
60.02657,0.34405
59.78550,0.35142
59.54443,0.34223
59.30336,0.32417
59.06229,0.30284
58.82122,0.28391
58.58015,0.27338
58.33907,0.27363
58.09800,0.28036
57.85693,0.28501
57.61586,0.28250
57.37479,0.27379
57.13372,0.26310
56.89265,0.25627
56.65158,0.25620
56.41051,0.26005
56.16944,0.26204
55.92837,0.25575
55.68730,0.23940
55.44623,0.22026
55.20516,0.20411
54.96409,0.18874
54.72302,0.17089
54.48195,0.15092
54.24088,0.12940
53.99980,0.10384
53.75873,0.07124
53.51766,0.03196
53.27659,-0.00935
53.03552,-0.04494
52.79445,-0.06675
52.55338,-0.07028
52.31231,-0.05574
52.07124,-0.02554
51.83017,0.01842
51.58910,0.07737
51.34803,0.15319
51.10696,0.22174
50.86589,0.21015
50.62482,0.12301
50.38375,0.03829
50.14268,-0.01250
49.90161,-0.02904
49.66053,-0.01613
49.41946,0.02983
49.17839,0.11533
48.93732,0.17572
48.69625,0.08559
48.45518,-0.02312
48.21411,-0.06561
47.97304,-0.03980
47.73197,0.07787
47.49090,0.28345
47.24983,0.23651
47.00876,0.07623
46.76769,0.03482
46.52662,0.12705
46.28555,0.30076
46.04448,0.20725
45.80341,0.08516
45.56234,0.08649
45.32126,0.20071
45.08019,0.27674
44.83912,0.16864
44.59805,0.14746
44.35698,0.21108
44.11591,0.24561
43.87484,0.23948
43.63377,0.27174
43.39270,0.29910
43.15163,0.25337
42.91056,0.22958
42.66949,0.24299
42.42842,0.25484
42.18735,0.23332
41.94628,0.18010
41.70521,0.12673
41.46414,0.10611
41.22307,0.11926
40.98199,0.13448
40.74092,0.13341
40.49985,0.13589
40.25878,0.16487
40.01771,0.21714
39.77664,0.25490
39.53557,0.24331
39.29450,0.21087
39.05343,0.18385
38.81236,0.15621
38.57129,0.12712
38.33022,0.10740
38.08915,0.09625
37.84808,0.08370
37.60701,0.07743
37.36594,0.09079
37.12487,0.11628
36.88380,0.12840
36.64272,0.11644
36.40165,0.10203
36.16058,0.10944
35.91951,0.14173
35.67844,0.18805
35.43737,0.23411
35.19630,0.25791
34.95523,0.24846
34.71416,0.23288
34.47309,0.23586
34.23202,0.24985
33.99095,0.25620
33.74988,0.25516
33.50881,0.26911
33.26774,0.30208
33.02667,0.32089
32.78560,0.30945
32.54453,0.29991
32.30345,0.31047
32.06238,0.32766
31.82131,0.33529
31.58024,0.30793
31.33917,0.23581
31.09810,0.18734
30.85703,0.17766
30.61596,0.18645
30.37489,0.19047
30.13382,0.17034
29.89275,0.13334
29.65168,0.10915
29.41061,0.09880
29.16954,0.07519
28.92847,0.03162
28.68740,-0.00985
28.44633,-0.02943
28.20526,-0.01417
27.96418,0.04185
27.72311,0.08339
27.48204,0.07253
27.24097,0.04139
26.99990,0.03466
26.75883,0.04345
26.51776,0.03389
26.27669,-0.00617
26.03562,-0.05058
25.79455,-0.07181
25.55348,-0.07532
25.31241,-0.07929
25.07134,-0.08267
24.83027,-0.03482
24.58920,0.04211
24.34813,0.08635
24.10706,0.06000
23.86599,-0.00285
23.62491,-0.02408
23.38384,-0.02025
23.14277,0.00432
22.90170,0.02241
22.66063,0.01440
22.41956,-0.02433
22.17849,-0.06878
21.93742,-0.09574
21.69635,-0.08427
21.45528,-0.04040
21.21421,-0.01256
20.97314,-0.01779
20.73207,-0.04805
20.49100,-0.08131
20.24993,-0.09541
20.00886,-0.09992
19.76779,-0.11698
19.52672,-0.12500
19.28564,-0.11109
19.04457,-0.10827
18.80350,-0.13692
18.56243,-0.15568
18.32136,-0.12800
18.08029,-0.09688
17.83922,-0.08376
17.59815,-0.08127
17.35708,-0.07984
17.11601,-0.08051
16.87494,-0.09693
16.63387,-0.12476
16.39280,-0.14620
16.15173,-0.15450
15.91066,-0.17002
15.66959,-0.20949
15.42852,-0.23697
15.18745,-0.21768
14.94637,-0.16848
14.70530,-0.13703
14.46423,-0.14208
14.22316,-0.16207
13.98209,-0.16724
13.74102,-0.16048
13.49995,-0.16395
13.25888,-0.16719
13.01781,-0.15571
12.77674,-0.14980
12.53567,-0.16353
12.29460,-0.18489
12.05353,-0.19699
11.81246,-0.20555
11.57139,-0.21139
11.33032,-0.19398
11.08925,-0.14894
10.84818,-0.09481
10.60710,-0.06092
10.36603,-0.06243
10.12496,-0.08148
9.88389,-0.08338
9.64282,-0.06565
9.40175,-0.05790
9.16068,-0.05152
8.91961,-0.03741
8.67854,-0.02428
8.43747,-0.02381
8.19640,-0.03469
7.95533,-0.03752
7.71426,-0.03561
7.47319,-0.04557
7.23212,-0.05545
6.99105,-0.04877
6.74998,-0.04491
6.50891,-0.06515
6.26783,-0.07600
6.02676,-0.07287
5.78569,-0.06933
5.54462,-0.05507
5.30355,-0.05022
5.06248,-0.04259
4.82141,-0.03069
4.58034,-0.01423
4.33927,0.00528
4.09820,0.00852
3.85713,-0.00616
3.61606,-0.01895
3.37499,-0.02567
3.13392,-0.05030
2.89285,-0.06869
2.65178,-0.04201
2.41071,-0.03295
2.16964,-0.07573
1.92856,-0.12591
1.68749,-0.12519
1.44642,-0.10931
1.20535,-0.12949
0.96428,-0.18646
0.72321,-0.22795
0.48214,-0.24378
0.24107,-0.24419
-0.00000,-0.22782
