399.69498,1.84734
399.45391,1.88563
399.21284,1.89744
398.97177,1.90320
398.73070,1.90873
398.48963,1.90392
398.24856,1.90906
398.00749,1.93744
397.76642,1.98388
397.52535,2.05557
397.28428,2.16681
397.04321,2.28195
396.80214,2.26101
396.56107,2.08123
396.32000,1.92250
396.07892,1.84380
395.83785,1.82512
395.59678,1.85083
395.35571,1.92566
395.11464,2.03756
394.87357,2.10650
394.63250,2.05633
394.39143,1.97552
394.15036,1.96390
393.90929,2.02112
393.66822,2.08345
393.42715,2.11280
393.18608,2.10827
392.94501,2.11882
392.70394,2.16934
392.46287,2.21270
392.22180,2.16854
391.98073,2.13688
391.73965,2.02858
391.49858,1.91874
391.25751,1.89916
391.01644,1.96516
390.77537,2.07031
390.53430,2.09539
390.29323,2.02527
390.05216,1.97028
389.81109,1.98275
389.57002,2.07325
389.32895,2.09193
389.08788,2.10311
388.84681,2.30147
388.60574,2.60270
388.36467,2.64214
388.12360,2.39963
387.88253,2.27421
387.64146,2.33217
387.40038,2.23660
387.15931,2.04034
386.91824,2.01723
386.67717,2.14893
386.43610,2.15270
386.19503,2.16585
385.95396,2.21151
385.71289,2.11370
385.47182,1.95079
385.23075,1.92884
384.98968,2.09314
384.74861,2.26038
384.50754,2.51647
384.26647,2.56169
384.02540,2.30489
383.78433,2.10362
383.54326,2.13181
383.30219,2.30807
383.06111,2.16683
382.82004,2.09919
382.57897,2.20705
382.33790,2.28775
382.09683,2.34588
381.85576,2.24402
381.61469,2.05237
381.37362,1.90756
381.13255,1.78131
380.89148,1.71701
380.65041,1.76002
380.40934,1.93357
380.16827,2.09156
379.92720,1.93011
379.68613,1.79907
379.44506,1.82004
379.20399,1.95369
378.96292,2.04935
378.72184,2.10167
378.48077,2.22790
378.23970,2.10761
377.99863,1.98899
377.75756,2.00073
377.51649,1.91669
377.27542,1.86201
377.03435,1.92961
376.79328,2.03800
376.55221,2.13967
376.31114,2.30564
376.07007,2.32650
375.82900,2.43163
375.58793,2.73494
375.34686,2.42953
375.10579,2.28369
374.86472,2.27340
374.62365,2.13666
374.38257,1.94519
374.14150,1.87451
373.90043,1.96656
373.65936,2.08144
373.41829,2.08999
373.17722,2.04535
372.93615,2.02637
372.69508,2.02474
372.45401,2.00978
372.21294,1.95076
371.97187,1.84962
371.73080,1.76857
371.48973,1.73773
371.24866,1.75720
371.00759,1.81533
370.76652,1.85000
370.52545,1.81655
370.28437,1.77142
370.04330,1.74207
369.80223,1.72747
369.56116,1.71253
369.32009,1.67804
369.07902,1.62470
368.83795,1.57277
368.59688,1.53840
368.35581,1.52704
368.11474,1.54678
367.87367,1.61046
367.63260,1.70345
367.39153,1.75938
367.15046,1.72679
366.90939,1.64116
366.66832,1.56766
366.42725,1.52247
366.18618,1.50799
365.94510,1.52476
365.70403,1.55017
365.46296,1.56162
365.22189,1.54803
364.98082,1.51301
364.73975,1.47769
364.49868,1.44777
364.25761,1.42829
364.01654,1.42729
363.77547,1.44113
363.53440,1.46153
363.29333,1.48220
363.05226,1.49563
362.81119,1.49374
362.57012,1.48173
362.32905,1.48369
362.08798,1.51718
361.84691,1.56545
361.60583,1.58447
361.36476,1.55743
361.12369,1.51831
360.88262,1.50406
360.64155,1.52175
360.40048,1.54917
360.15941,1.56209
359.91834,1.56284
359.67727,1.56194
359.43620,1.55995
359.19513,1.54996
358.95406,1.52846
358.71299,1.50127
358.47192,1.47155
358.23085,1.44244
357.98978,1.41990
357.74871,1.40853
357.50764,1.41478
357.26656,1.44372
357.02549,1.48820
356.78442,1.52706
356.54335,1.54791
356.30228,1.55599
356.06121,1.55138
355.82014,1.52131
355.57907,1.47189
355.33800,1.44441
355.09693,1.45945
354.85586,1.49758
354.61479,1.52972
354.37372,1.53600
354.13265,1.51306
353.89158,1.48450
353.65051,1.47610
353.40944,1.48420
353.16837,1.48619
352.92729,1.47840
352.68622,1.47617
352.44515,1.47858
352.20408,1.47005
351.96301,1.44923
351.72194,1.43099
351.48087,1.42543
351.23980,1.42973
350.99873,1.43986
350.75766,1.45455
350.51659,1.46358
350.27552,1.45351
350.03445,1.43339
349.79338,1.42832
349.55231,1.45212
349.31124,1.50167
349.07017,1.56217
348.82910,1.60863
348.58802,1.62223
348.34695,1.61300
348.10588,1.59549
347.86481,1.56799
347.62374,1.53608
347.38267,1.52222
347.14160,1.53691
346.90053,1.56757
346.65946,1.59174
346.41839,1.58772
346.17732,1.55628
345.93625,1.52198
345.69518,1.50269
345.45411,1.49900
345.21304,1.50511
344.97197,1.51358
344.73090,1.51390
344.48983,1.50699
344.24875,1.50782
344.00768,1.52181
343.76661,1.53629
343.52554,1.54200
343.28447,1.54887
343.04340,1.57080
342.80233,1.61090
342.56126,1.65399
342.32019,1.67571
342.07912,1.66770
341.83805,1.64097
341.59698,1.61051
341.35591,1.59482
341.11484,1.60729
340.87377,1.63878
340.63270,1.66101
340.39163,1.65936
340.15056,1.65039
339.90948,1.65884
339.66841,1.69587
339.42734,1.74992
339.18627,1.79159
338.94520,1.80174
338.70413,1.79091
338.46306,1.78111
338.22199,1.79572
337.98092,1.85017
337.73985,1.92356
337.49878,1.96181
337.25771,1.94068
337.01664,1.91089
336.77557,1.91197
336.53450,1.96011
336.29343,2.06086
336.05236,2.15587
335.81129,2.17166
335.57021,2.07582
335.32914,1.96440
335.08807,1.87818
334.84700,1.76741
334.60593,1.66620
334.36486,1.62837
334.12379,1.66033
333.88272,1.74577
333.64165,1.87188
333.40058,1.98337
333.15951,1.96119
332.91844,1.85640
332.67737,1.75204
332.43630,1.67954
332.19523,1.63351
331.95416,1.61108
331.71309,1.64047
331.47202,1.71868
331.23094,1.78907
330.98987,1.80188
330.74880,1.76810
330.50773,1.72593
330.26666,1.70023
330.02559,1.67750
329.78452,1.64594
329.54345,1.60141
329.30238,1.54950
329.06131,1.52800
328.82024,1.57733
328.57917,1.68942
328.33810,1.77454
328.09703,1.78892
327.85596,1.77121
327.61489,1.71641
327.37382,1.65189
327.13275,1.61840
326.89167,1.60489
326.65060,1.58548
326.40953,1.54856
326.16846,1.51262
325.92739,1.52917
325.68632,1.63075
325.44525,1.79407
325.20418,1.91152
324.96311,1.86907
324.72204,1.73069
324.48097,1.61950
324.23990,1.57432
323.99883,1.58555
323.75776,1.64039
323.51669,1.72808
323.27562,1.81878
323.03455,1.86718
322.79348,1.87186
322.55240,1.88802
322.31133,1.94130
322.07026,2.01625
321.82919,2.06991
321.58812,2.00401
321.34705,1.87861
321.10598,1.78987
320.86491,1.76107
320.62384,1.77140
320.38277,1.78023
320.14170,1.82185
319.90063,1.89593
319.65956,1.90374
319.41849,1.83449
319.17742,1.80656
318.93635,1.90301
318.69528,2.16166
318.45421,2.38316
318.21313,2.28442
317.97206,2.16075
317.73099,2.06987
317.48992,2.01917
317.24885,2.02891
317.00778,2.15198
316.76671,2.22739
316.52564,2.09476
316.28457,1.91354
316.04350,1.78422
315.80243,1.73691
315.56136,1.75129
315.32029,1.79318
315.07922,1.86771
314.83815,2.03779
314.59708,2.32725
314.35601,2.51903
314.11494,2.43210
313.87386,2.21107
313.63279,2.13764
313.39172,2.20295
313.15065,2.23849
312.90958,2.23972
312.66851,2.22005
312.42744,2.08900
312.18637,1.95061
311.94530,1.92315
311.70423,1.95889
311.46316,1.90596
311.22209,1.84716
310.98102,1.88515
310.73995,1.96844
310.49888,2.00919
310.25781,2.02537
310.01674,2.04522
309.77567,2.03250
309.53459,2.00909
309.29352,2.03122
309.05245,2.10938
308.81138,2.18256
308.57031,2.11169
308.32924,1.95242
308.08817,1.77699
307.84710,1.66141
307.60603,1.63665
307.36496,1.68652
307.12389,1.75140
306.88282,1.75767
306.64175,1.70731
306.40068,1.66017
306.15961,1.65371
305.91854,1.68098
305.67747,1.70223
305.43640,1.67212
305.19532,1.59035
304.95425,1.51479
304.71318,1.49214
304.47211,1.51258
304.23104,1.53061
303.98997,1.52243
303.74890,1.50434
303.50783,1.48819
303.26676,1.46399
303.02569,1.42492
302.78462,1.38644
302.54355,1.36728
302.30248,1.36406
302.06141,1.36667
301.82034,1.37703
301.57927,1.39062
301.33820,1.38513
301.09713,1.35541
300.85605,1.32991
300.61498,1.33024
300.37391,1.34702
300.13284,1.35193
299.89177,1.33152
299.65070,1.30421
299.40963,1.29203
299.16856,1.29605
298.92749,1.30057
298.68642,1.28988
298.44535,1.26163
298.20428,1.22911
297.96321,1.20799
297.72214,1.20149
297.48107,1.20121
297.24000,1.20074
296.99893,1.20156
296.75786,1.20441
296.51678,1.20489
296.27571,1.20043
296.03464,1.19278
295.79357,1.18366
295.55250,1.17471
295.31143,1.16828
295.07036,1.16442
294.82929,1.16056
294.58822,1.15597
294.34715,1.15247
294.10608,1.14798
293.86501,1.13716
293.62394,1.12310
293.38287,1.11699
293.14180,1.12320
292.90073,1.13369
292.65966,1.13947
292.41859,1.14019
292.17751,1.13805
291.93644,1.13121
291.69537,1.12023
291.45430,1.11144
291.21323,1.10798
290.97216,1.10711
290.73109,1.10793
290.49002,1.11333
290.24895,1.12217
290.00788,1.12771
289.76681,1.12668
289.52574,1.12273
289.28467,1.11826
289.04360,1.10906
288.80253,1.09270
288.56146,1.07561
288.32039,1.06489
288.07932,1.06124
287.83824,1.06102
287.59717,1.05989
287.35610,1.05683
287.11503,1.05531
286.87396,1.05815
286.63289,1.06309
286.39182,1.06510
286.15075,1.06155
285.90968,1.05312
285.66861,1.04144
285.42754,1.02894
285.18647,1.01890
284.94540,1.01428
284.70433,1.01676
284.46326,1.02703
284.22219,1.04383
283.98112,1.06164
283.74005,1.07225
283.49897,1.07044
283.25790,1.05821
283.01683,1.04405
282.77576,1.03643
282.53469,1.03643
282.29362,1.03871
282.05255,1.04004
281.81148,1.04148
281.57041,1.04160
281.32934,1.03646
281.08827,1.02802
280.84720,1.02370
280.60613,1.02537
280.36506,1.02773
280.12399,1.02777
279.88292,1.02673
279.64185,1.02451
279.40078,1.01898
279.15970,1.01017
278.91863,1.00243
278.67756,1.00032
278.43649,1.00273
278.19542,1.00416
277.95435,1.00211
277.71328,1.00007
277.47221,1.00223
277.23114,1.00906
276.99007,1.01785
276.74900,1.02551
276.50793,1.02993
276.26686,1.03022
276.02579,1.02708
275.78472,1.02306
275.54365,1.02171
275.30258,1.02358
275.06151,1.02374
274.82043,1.01846
274.57936,1.01288
274.33829,1.01541
274.09722,1.02620
273.85615,1.03629
273.61508,1.03800
273.37401,1.03308
273.13294,1.02958
272.89187,1.03094
272.65080,1.03074
272.40973,1.02155
272.16866,1.00755
271.92759,1.00036
271.68652,1.00350
271.44545,1.00959
271.20438,1.01304
270.96331,1.01739
270.72224,1.02631
270.48116,1.03609
270.24009,1.04087
269.99902,1.03879
269.75795,1.03270
269.51688,1.02866
269.27581,1.03152
269.03474,1.03932
268.79367,1.04500
268.55260,1.04599
268.31153,1.04729
268.07046,1.05228
267.82939,1.05846
267.58832,1.06342
267.34725,1.06875
267.10618,1.07560
266.86511,1.08033
266.62404,1.07868
266.38297,1.07310
266.14189,1.07162
265.90082,1.07816
265.65975,1.08818
265.41868,1.09662
265.17761,1.10480
264.93654,1.11559
264.69547,1.12718
264.45440,1.13570
264.21333,1.14009
263.97226,1.14213
263.73119,1.14457
263.49012,1.14966
263.24905,1.15622
263.00798,1.16022
262.76691,1.16136
262.52584,1.16588
262.28477,1.17892
262.04370,1.19692
261.80262,1.21064
261.56155,1.21480
261.32048,1.21339
261.07941,1.21704
260.83834,1.23260
260.59727,1.25637
260.35620,1.28268
260.11513,1.31004
259.87406,1.33874
259.63299,1.37005
259.39192,1.40521
259.15085,1.43805
258.90978,1.45210
258.66871,1.44176
258.42764,1.42234
258.18657,1.41383
257.94550,1.42347
257.70443,1.44133
257.46335,1.45781
257.22228,1.48198
256.98121,1.52327
256.74014,1.56873
256.49907,1.59733
256.25800,1.60511
256.01693,1.60334
255.77586,1.60684
255.53479,1.62500
255.29372,1.65554
255.05265,1.69717
254.81158,1.75403
254.57051,1.80811
254.32944,1.82636
254.08837,1.82777
253.84730,1.86098
253.60623,1.91613
253.36516,1.92726
253.12408,1.90720
252.88301,1.93463
252.64194,2.03879
252.40087,2.17473
252.15980,2.24473
251.91873,2.38837
251.67766,2.71597
251.43659,2.62642
251.19552,2.52243
250.95445,2.45270
250.71338,2.44786
250.47231,2.52380
250.23124,2.58349
249.99017,2.53546
249.74910,2.46788
249.50803,2.42620
249.26696,2.38085
249.02589,2.28365
248.78481,2.23265
248.54374,2.26982
248.30267,2.34571
248.06160,2.38217
247.82053,2.36849
247.57946,2.32530
247.33839,2.24252
247.09732,2.09937
246.85625,2.00374
246.61518,2.05512
246.37411,2.23945
246.13304,2.29055
245.89197,2.19538
245.65090,2.14732
245.40983,2.12547
245.16876,1.99071
244.92769,1.85328
244.68661,1.78487
244.44554,1.74019
244.20447,1.71543
243.96340,1.71399
243.72233,1.70092
243.48126,1.63313
243.24019,1.52920
242.99912,1.44381
242.75805,1.39389
242.51698,1.36724
242.27591,1.35022
242.03484,1.33550
241.79377,1.31667
241.55270,1.28923
241.31163,1.25466
241.07056,1.21764
240.82949,1.18281
240.58842,1.15140
240.34734,1.12115
240.10627,1.09110
239.86520,1.06306
239.62413,1.03838
239.38306,1.01705
239.14199,0.99841
238.90092,0.98011
238.65985,0.96016
238.41878,0.94103
238.17771,0.92741
237.93664,0.92026
237.69557,0.91517
237.45450,0.90637
237.21343,0.89256
236.97236,0.87726
236.73129,0.86387
236.49022,0.85265
236.24915,0.84225
236.00807,0.83337
235.76700,0.82767
235.52593,0.82424
235.28486,0.81972
235.04379,0.81115
234.80272,0.79912
234.56165,0.78792
234.32058,0.78178
234.07951,0.78104
233.83844,0.78142
233.59737,0.77773
233.35630,0.77001
233.11523,0.76393
232.87416,0.76279
232.63309,0.76282
232.39202,0.75919
232.15095,0.75265
231.90988,0.74707
231.66880,0.74469
231.42773,0.74487
231.18666,0.74470
230.94559,0.74173
230.70452,0.73706
230.46345,0.73386
230.22238,0.73300
229.98131,0.73248
229.74024,0.73063
229.49917,0.72770
229.25810,0.72441
229.01703,0.72145
228.77596,0.71967
228.53489,0.71904
228.29382,0.71806
228.05275,0.71598
227.81168,0.71408
227.57061,0.71290
227.32953,0.71091
227.08846,0.70808
226.84739,0.70712
226.60632,0.70892
226.36525,0.71096
226.12418,0.71149
225.88311,0.71150
225.64204,0.71155
225.40097,0.71021
225.15990,0.70664
224.91883,0.70228
224.67776,0.69892
224.43669,0.69759
224.19562,0.69931
223.95455,0.70409
223.71348,0.70900
223.47241,0.71071
223.23134,0.71032
222.99026,0.71211
222.74919,0.71755
222.50812,0.72370
222.26705,0.72781
222.02598,0.73006
221.78491,0.73091
221.54384,0.72986
221.30277,0.72868
221.06170,0.73206
220.82063,0.74177
220.57956,0.75357
220.33849,0.76310
220.09742,0.77143
219.85635,0.78100
219.61528,0.79044
219.37421,0.79646
219.13314,0.79890
218.89207,0.80164
218.65099,0.80861
218.40992,0.81971
218.16885,0.83127
217.92778,0.83987
217.68671,0.84578
217.44564,0.85342
217.20457,0.86724
216.96350,0.88513
216.72243,0.89727
216.48136,0.89664
216.24029,0.88975
215.99922,0.88948
215.75815,0.90023
215.51708,0.91576
215.27601,0.92914
215.03494,0.93910
214.79387,0.94667
214.55280,0.95286
214.31172,0.96066
214.07065,0.97195
213.82958,0.98249
213.58851,0.98760
213.34744,0.98982
213.10637,0.99364
212.86530,0.99783
212.62423,0.99921
212.38316,0.99975
212.14209,1.00468
211.90102,1.01531
211.65995,1.02617
211.41888,1.03008
211.17781,1.02621
210.93674,1.02047
210.69567,1.01897
210.45460,1.02281
210.21353,1.02701
209.97245,1.02531
209.73138,1.01771
209.49031,1.01016
209.24924,1.00738
209.00817,1.00930
208.76710,1.01243
208.52603,1.01267
208.28496,1.00888
208.04389,1.00300
207.80282,0.99552
207.56175,0.98504
207.32068,0.97288
207.07961,0.96282
206.83854,0.95631
206.59747,0.95176
206.35640,0.94748
206.11533,0.94287
205.87426,0.93923
205.63318,0.93842
205.39211,0.93855
205.15104,0.93448
204.90997,0.92381
204.66890,0.90870
204.42783,0.89272
204.18676,0.87907
203.94569,0.87003
203.70462,0.86551
203.46355,0.86174
203.22248,0.85446
202.98141,0.84358
202.74034,0.83298
202.49927,0.82442
202.25820,0.81410
202.01713,0.79799
201.77606,0.77859
201.53499,0.76238
201.29391,0.75237
201.05284,0.74666
200.81177,0.74266
200.57070,0.73885
200.32963,0.73334
200.08856,0.72469
199.84749,0.71394
199.60642,0.70296
199.36535,0.69177
199.12428,0.67960
198.88321,0.66713
198.64214,0.65592
198.40107,0.64689
198.16000,0.64068
197.91893,0.63785
197.67786,0.63735
197.43679,0.63633
197.19572,0.63235
196.95464,0.62460
196.71357,0.61338
196.47250,0.60030
196.23143,0.58858
195.99036,0.58121
195.74929,0.57848
195.50822,0.57742
195.26715,0.57439
195.02608,0.56878
194.78501,0.56323
194.54394,0.55957
194.30287,0.55670
194.06180,0.55301
193.82073,0.54827
193.57966,0.54264
193.33859,0.53610
193.09752,0.52962
192.85645,0.52486
192.61537,0.52218
192.37430,0.51992
192.13323,0.51637
191.89216,0.51172
191.65109,0.50730
191.41002,0.50402
191.16895,0.50204
190.92788,0.50123
190.68681,0.50095
190.44574,0.50017
190.20467,0.49806
189.96360,0.49443
189.72253,0.49013
189.48146,0.48671
189.24039,0.48480
188.99932,0.48345
188.75825,0.48195
188.51718,0.48105
188.27610,0.48141
188.03503,0.48240
187.79396,0.48300
187.55289,0.48269
187.31182,0.48149
187.07075,0.48020
186.82968,0.48017
186.58861,0.48160
186.34754,0.48263
186.10647,0.48134
185.86540,0.47844
185.62433,0.47654
185.38326,0.47646
185.14219,0.47617
184.90112,0.47379
184.66005,0.47008
184.41898,0.46732
184.17791,0.46677
183.93683,0.46801
183.69576,0.46993
183.45469,0.47183
183.21362,0.47348
182.97255,0.47487
182.73148,0.47627
182.49041,0.47810
182.24934,0.48035
182.00827,0.48234
181.76720,0.48298
181.52613,0.48163
181.28506,0.47949
181.04399,0.47946
180.80292,0.48327
180.56185,0.48938
180.32078,0.49455
180.07971,0.49729
179.83864,0.49912
179.59756,0.50209
179.35649,0.50602
179.11542,0.50903
178.87435,0.51071
178.63328,0.51308
178.39221,0.51779
178.15114,0.52423
177.91007,0.53164
177.66900,0.54116
177.42793,0.55373
177.18686,0.56749
176.94579,0.57956
176.70472,0.58979
176.46365,0.60062
176.22258,0.61352
175.98151,0.62706
175.74044,0.63876
175.49937,0.64781
175.25829,0.65547
175.01722,0.66416
174.77615,0.67646
174.53508,0.69342
174.29401,0.71328
174.05294,0.73286
173.81187,0.74979
173.57080,0.76231
173.32973,0.76940
173.08866,0.77272
172.84759,0.77569
172.60652,0.77969
172.36545,0.78329
172.12438,0.78502
171.88331,0.78534
171.64224,0.78633
171.40117,0.78937
171.16010,0.79346
170.91902,0.79674
170.67795,0.79876
170.43688,0.79920
170.19581,0.79610
169.95474,0.78859
169.71367,0.77949
169.47260,0.77230
169.23153,0.76725
168.99046,0.76213
168.74939,0.75647
168.50832,0.75280
168.26725,0.75347
168.02618,0.75749
167.78511,0.76123
167.54404,0.76122
167.30297,0.75688
167.06190,0.75119
166.82083,0.74729
166.57975,0.74545
166.33868,0.74513
166.09761,0.74749
165.85654,0.75299
165.61547,0.75952
165.37440,0.76506
165.13333,0.76954
164.89226,0.77326
164.65119,0.77672
164.41012,0.78197
164.16905,0.79138
163.92798,0.80502
163.68691,0.81975
163.44584,0.83149
163.20477,0.83936
162.96370,0.84597
162.72263,0.85323
162.48156,0.85977
162.24048,0.86330
161.99941,0.86288
161.75834,0.85862
161.51727,0.85130
161.27620,0.84281
161.03513,0.83593
160.79406,0.83279
160.55299,0.83304
160.31192,0.83372
160.07085,0.83256
159.82978,0.83015
159.58871,0.82759
159.34764,0.82466
159.10657,0.82128
158.86550,0.81815
158.62443,0.81548
158.38336,0.81229
158.14229,0.80770
157.90121,0.80185
157.66014,0.79507
157.41907,0.78787
157.17800,0.78225
156.93693,0.78124
156.69586,0.78516
156.45479,0.78891
156.21372,0.78609
155.97265,0.77606
155.73158,0.76402
155.49051,0.75463
155.24944,0.74864
155.00837,0.74444
154.76730,0.74024
154.52623,0.73492
154.28516,0.72797
154.04409,0.71940
153.80302,0.70955
153.56194,0.69858
153.32087,0.68673
153.07980,0.67509
152.83873,0.66480
152.59766,0.65536
152.35659,0.64441
152.11552,0.63028
151.87445,0.61419
151.63338,0.59844
151.39231,0.58396
151.15124,0.57116
150.91017,0.56079
150.66910,0.55268
150.42803,0.54503
150.18696,0.53605
149.94589,0.52545
149.70482,0.51466
149.46375,0.50583
149.22267,0.49933
148.98160,0.49301
148.74053,0.48524
148.49946,0.47753
148.25839,0.47266
148.01732,0.47125
147.77625,0.47098
147.53518,0.46915
147.29411,0.46577
147.05304,0.46346
146.81197,0.46404
146.57090,0.46606
146.32983,0.46659
146.08876,0.46449
145.84769,0.46181
145.60662,0.46154
145.36555,0.46471
145.12448,0.47018
144.88340,0.47667
144.64233,0.48334
144.40126,0.48898
144.16019,0.49264
143.91912,0.49484
143.67805,0.49650
143.43698,0.49741
143.19591,0.49654
142.95484,0.49289
142.71377,0.48580
142.47270,0.47575
142.23163,0.46488
141.99056,0.45518
141.74949,0.44697
141.50842,0.43977
141.26735,0.43410
141.02628,0.43100
140.78521,0.42992
140.54413,0.42888
140.30306,0.42709
140.06199,0.42542
139.82092,0.42415
139.57985,0.42269
139.33878,0.42181
139.09771,0.42317
138.85664,0.42645
138.61557,0.42975
138.37450,0.43291
138.13343,0.43804
137.89236,0.44681
137.65129,0.45852
137.41022,0.47102
137.16915,0.48307
136.92808,0.49517
136.68701,0.50792
136.44594,0.52111
136.20486,0.53484
135.96379,0.55007
135.72272,0.56762
135.48165,0.58782
135.24058,0.61092
134.99951,0.63622
134.75844,0.66129
134.51737,0.68459
134.27630,0.70795
134.03523,0.73340
133.79416,0.75905
133.55309,0.78184
133.31202,0.80295
133.07095,0.82621
132.82988,0.85124
132.58881,0.87232
132.34774,0.88458
132.10667,0.88827
131.86559,0.88710
131.62452,0.88540
131.38345,0.88425
131.14238,0.88173
130.90131,0.87894
130.66024,0.87987
130.41917,0.88305
130.17810,0.87878
129.93703,0.85953
129.69596,0.82954
129.45489,0.79840
129.21382,0.77076
128.97275,0.74646
128.73168,0.72463
128.49061,0.70453
128.24954,0.68528
128.00847,0.66596
127.76740,0.64486
127.52632,0.62033
127.28525,0.59369
127.04418,0.56917
126.80311,0.54926
126.56204,0.53210
126.32097,0.51515
126.07990,0.49860
125.83883,0.48340
125.59776,0.46905
125.35669,0.45503
125.11562,0.44243
124.87455,0.43227
124.63348,0.42361
124.39241,0.41469
124.15134,0.40511
123.91027,0.39578
123.66920,0.38782
123.42812,0.38198
123.18705,0.37819
122.94598,0.37547
122.70491,0.37269
122.46384,0.36914
122.22277,0.36480
121.98170,0.36089
121.74063,0.35928
121.49956,0.36046
121.25849,0.36283
121.01742,0.36489
120.77635,0.36755
120.53528,0.37345
120.29421,0.38403
120.05314,0.39760
119.81207,0.41091
119.57100,0.42237
119.32993,0.43304
119.08885,0.44539
118.84778,0.46197
118.60671,0.48342
118.36564,0.50687
118.12457,0.52843
117.88350,0.54736
117.64243,0.56478
117.40136,0.58005
117.16029,0.59218
116.91922,0.60233
116.67815,0.61187
116.43708,0.61906
116.19601,0.62036
115.95494,0.61454
115.71387,0.60380
115.47280,0.59200
115.23173,0.58207
114.99066,0.57360
114.74958,0.56386
114.50851,0.55244
114.26744,0.54274
114.02637,0.53709
113.78530,0.53317
113.54423,0.52787
113.30316,0.52210
113.06209,0.51917
112.82102,0.52052
112.57995,0.52513
112.33888,0.53131
112.09781,0.53742
111.85674,0.54185
111.61567,0.54330
111.37460,0.54161
111.13353,0.53893
110.89246,0.53928
110.65139,0.54390
110.41031,0.54777
110.16924,0.54484
109.92817,0.53544
109.68710,0.52362
109.44603,0.51027
109.20496,0.49473
108.96389,0.47996
108.72282,0.46967
108.48175,0.46214
108.24068,0.45158
107.99961,0.43528
107.75854,0.41657
107.51747,0.40089
107.27640,0.39110
107.03533,0.38607
106.79426,0.38182
106.55319,0.37440
106.31212,0.36315
106.07104,0.35035
105.82997,0.33800
105.58890,0.32636
105.34783,0.31504
105.10676,0.30434
104.86569,0.29526
104.62462,0.28894
104.38355,0.28539
104.14248,0.28284
103.90141,0.27892
103.66034,0.27256
103.41927,0.26437
103.17820,0.25585
102.93713,0.24832
102.69606,0.24194
102.45499,0.23611
102.21392,0.23056
101.97285,0.22526
101.73177,0.22007
101.49070,0.21566
101.24963,0.21367
101.00856,0.21437
100.76749,0.21553
100.52642,0.21474
100.28535,0.21191
100.04428,0.20834
99.80321,0.20449
99.56214,0.20039
99.32107,0.19689
99.08000,0.19455
98.83893,0.19302
98.59786,0.19235
98.35679,0.19313
98.11572,0.19446
97.87465,0.19407
97.63358,0.19103
97.39250,0.18708
97.15143,0.18525
96.91036,0.18723
96.66929,0.19187
96.42822,0.19675
96.18715,0.20105
95.94608,0.20558
95.70501,0.21036
95.46394,0.21470
95.22287,0.21898
94.98180,0.22455
94.74073,0.23188
94.49966,0.23964
94.25859,0.24548
94.01752,0.24773
93.77645,0.24648
93.53538,0.24287
93.29431,0.23800
93.05323,0.23336
92.81216,0.23091
92.57109,0.23171
92.33002,0.23509
92.08895,0.23965
91.84788,0.24435
91.60681,0.24867
91.36574,0.25334
91.12467,0.26092
90.88360,0.27360
90.64253,0.29049
90.40146,0.30961
90.16039,0.33174
89.91932,0.35953
89.67825,0.39331
89.43718,0.43021
89.19611,0.46657
88.95504,0.49920
88.71396,0.52562
88.47289,0.54458
88.23182,0.55458
87.99075,0.55263
87.74968,0.53712
87.50861,0.51138
87.26754,0.48141
87.02647,0.45100
86.78540,0.42069
86.54433,0.39070
86.30326,0.36230
86.06219,0.33664
85.82112,0.31381
85.58005,0.29340
85.33898,0.27485
85.09791,0.25751
84.85684,0.24149
84.61577,0.22779
84.37469,0.21626
84.13362,0.20495
83.89255,0.19313
83.65148,0.18298
83.41041,0.17644
83.16934,0.17215
82.92827,0.16755
82.68720,0.16243
82.44613,0.15823
82.20506,0.15497
81.96399,0.15154
81.72292,0.14821
81.48185,0.14616
81.24078,0.14504
80.99971,0.14297
80.75864,0.13907
80.51757,0.13443
80.27650,0.13041
80.03542,0.12747
79.79435,0.12592
79.55328,0.12575
79.31221,0.12568
79.07114,0.12459
78.83007,0.12365
78.58900,0.12431
78.34793,0.12517
78.10686,0.12331
77.86579,0.11821
77.62472,0.11212
77.38365,0.10737
77.14258,0.10473
76.90151,0.10351
76.66044,0.10261
76.41937,0.10162
76.17830,0.10087
75.93723,0.10051
75.69615,0.10024
75.45508,0.09973
75.21401,0.09900
74.97294,0.09846
74.73187,0.09844
74.49080,0.09854
74.24973,0.09785
74.00866,0.09611
73.76759,0.09438
73.52652,0.09359
73.28545,0.09317
73.04438,0.09212
72.80331,0.09076
72.56224,0.09034
72.32117,0.09151
72.08010,0.09371
71.83903,0.09524
71.59796,0.09435
71.35688,0.09153
71.11581,0.08967
70.87474,0.09118
70.63367,0.09626
70.39260,0.10378
70.15153,0.11241
69.91046,0.12185
69.66939,0.13352
69.42832,0.14788
69.18725,0.16090
68.94618,0.16671
68.70511,0.16412
68.46404,0.15634
68.22297,0.14533
67.98190,0.13124
67.74083,0.11624
67.49976,0.10445
67.25869,0.09746
67.01761,0.09271
66.77654,0.08711
66.53547,0.08096
66.29440,0.07714
66.05333,0.07735
65.81226,0.08074
65.57119,0.08532
65.33012,0.08908
65.08905,0.09092
64.84798,0.09173
64.60691,0.09427
64.36584,0.10061
64.12477,0.10924
63.88370,0.11572
63.64263,0.11694
63.40156,0.11346
63.16049,0.10712
62.91942,0.09893
62.67834,0.08989
62.43727,0.08212
62.19620,0.07777
61.95513,0.07715
61.71406,0.07868
61.47299,0.08017
61.23192,0.07998
60.99085,0.07755
60.74978,0.07351
60.50871,0.06948
60.26764,0.06719
60.02657,0.06730
59.78550,0.06897
59.54443,0.07076
59.30336,0.07162
59.06229,0.07135
58.82122,0.07020
58.58015,0.06814
58.33907,0.06517
58.09800,0.06219
57.85693,0.06101
57.61586,0.06337
57.37479,0.06919
57.13372,0.07521
56.89265,0.07664
56.65158,0.07164
56.41051,0.06335
56.16944,0.05663
55.92837,0.05357
55.68730,0.05292
55.44623,0.05294
55.20516,0.05311
54.96409,0.05324
54.72302,0.05287
54.48195,0.05192
54.24088,0.05155
53.99980,0.05339
53.75873,0.05732
53.51766,0.06063
53.27659,0.06078
53.03552,0.05815
52.79445,0.05500
52.55338,0.05358
52.31231,0.05540
52.07124,0.05953
51.83017,0.06235
51.58910,0.06083
51.34803,0.05561
51.10696,0.04914
50.86589,0.04229
50.62482,0.03561
50.38375,0.03201
50.14268,0.03525
49.90161,0.04542
49.66053,0.05728
49.41946,0.06481
49.17839,0.06730
48.93732,0.06839
48.69625,0.06861
48.45518,0.06333
48.21411,0.05100
47.97304,0.03869
47.73197,0.03495
47.49090,0.03974
47.24983,0.04506
47.00876,0.04423
46.76769,0.03719
46.52662,0.02819
46.28555,0.02060
46.04448,0.01489
45.80341,0.01169
45.56234,0.01369
45.32126,0.02139
45.08019,0.02940
44.83912,0.03181
44.59805,0.02927
44.35698,0.02707
44.11591,0.02862
43.87484,0.03191
43.63377,0.03172
43.39270,0.02686
43.15163,0.02253
42.91056,0.02322
42.66949,0.02723
42.42842,0.03132
42.18735,0.03561
41.94628,0.04179
41.70521,0.04870
41.46414,0.05166
41.22307,0.04735
40.98199,0.03875
40.74092,0.03346
40.49985,0.03559
40.25878,0.04033
40.01771,0.03973
39.77664,0.03388
39.53557,0.03051
39.29450,0.03203
39.05343,0.03455
38.81236,0.03942
38.57129,0.05032
38.33022,0.06085
38.08915,0.05961
37.84808,0.04868
37.60701,0.04226
37.36594,0.04657
37.12487,0.05413
36.88380,0.05828
36.64272,0.06274
36.40165,0.07302
36.16058,0.08722
35.91951,0.09916
35.67844,0.10318
35.43737,0.09493
35.19630,0.07488
34.95523,0.05233
34.71416,0.03962
34.47309,0.03805
34.23202,0.04189
33.99095,0.05248
33.74988,0.07144
33.50881,0.08971
33.26774,0.09675
33.02667,0.09416
32.78560,0.09297
32.54453,0.09490
32.30345,0.08913
32.06238,0.07415
31.82131,0.06665
31.58024,0.07169
31.33917,0.07120
31.09810,0.06249
30.85703,0.06746
30.61596,0.09310
30.37489,0.10496
30.13382,0.06868
29.89275,0.00699
29.65168,-0.02037
29.41061,0.01676
29.16954,0.08614
28.92847,0.13648
28.68740,0.15527
28.44633,0.16280
28.20526,0.18085
27.96418,0.21636
27.72311,0.25491
27.48204,0.27179
27.24097,0.25244
26.99990,0.20797
26.75883,0.15856
26.51776,0.11860
26.27669,0.10360
26.03562,0.11513
25.79455,0.14194
25.55348,0.17842
25.31241,0.21925
25.07134,0.24389
24.83027,0.23369
24.58920,0.21425
24.34813,0.23067
24.10706,0.28164
23.86599,0.32441
23.62491,0.33975
23.38384,0.34514
23.14277,0.35187
22.90170,0.39438
22.66063,0.45606
22.41956,0.45832
22.17849,0.39097
21.93742,0.34486
21.69635,0.34703
21.45528,0.36916
21.21421,0.39009
20.97314,0.40158
20.73207,0.41057
20.49100,0.40679
20.24993,0.37580
20.00886,0.32358
19.76779,0.30009
19.52672,0.32875
19.28564,0.38900
19.04457,0.46602
18.80350,0.53466
18.56243,0.59791
18.32136,0.64514
18.08029,0.55576
17.83922,0.51905
17.59815,0.60280
17.35708,0.74381
17.11601,0.65161
16.87494,0.52096
16.63387,0.57423
16.39280,0.70332
16.15173,0.74213
15.91066,0.68793
15.66959,0.63897
15.42852,0.65109
15.18745,0.71768
14.94637,0.70891
14.70530,0.54369
14.46423,0.47750
14.22316,0.58811
13.98209,0.79724
13.74102,0.98093
13.49995,0.87767
13.25888,0.69194
13.01781,0.59911
12.77674,0.57070
12.53567,0.61228
12.29460,0.69380
12.05353,0.74772
11.81246,0.81719
11.57139,0.93202
11.33032,0.97959
11.08925,1.04581
10.84818,0.71582
10.60710,0.58247
10.36603,0.61590
10.12496,0.76272
9.88389,1.02283
9.64282,1.16712
9.40175,1.01594
9.16068,0.93032
8.91961,0.87612
8.67854,0.78850
8.43747,0.79054
8.19640,0.82376
7.95533,0.80925
7.71426,0.85796
7.47319,0.91674
7.23212,0.87908
6.99105,0.77338
6.74998,0.81192
6.50891,0.96438
6.26783,1.07137
6.02676,1.12479
5.78569,1.01990
5.54462,0.80587
5.30355,0.63672
5.06248,0.62510
4.82141,0.82602
4.58034,0.94891
4.33927,0.89503
4.09820,0.75413
3.85713,0.77658
3.61606,0.89304
3.37499,0.97964
3.13392,0.75372
2.89285,0.50135
2.65178,0.41093
2.41071,0.42226
2.16964,0.46205
1.92856,0.49478
1.68749,0.47147
1.44642,0.49915
1.20535,0.66389
0.96428,0.86406
0.72321,0.93670
0.48214,0.78356
0.24107,0.58893
-0.00000,0.47851
