399.69498,1.92357
399.45391,1.97193
399.21284,1.94022
398.97177,1.85206
398.73070,1.77545
398.48963,1.73683
398.24856,1.73514
398.00749,1.77180
397.76642,1.84049
397.52535,1.90629
397.28428,1.95248
397.04321,2.05039
396.80214,2.21696
396.56107,2.24596
396.32000,2.13075
396.07892,2.05260
395.83785,2.02620
395.59678,2.02298
395.35571,2.02682
395.11464,2.04637
394.87357,2.07237
394.63250,2.09781
394.39143,2.11066
394.15036,2.01015
393.90929,1.88736
393.66822,1.85702
393.42715,1.91847
393.18608,2.02725
392.94501,2.07469
392.70394,2.05385
392.46287,2.03485
392.22180,2.04110
391.98073,2.11862
391.73965,2.17719
391.49858,2.10587
391.25751,2.03912
391.01644,2.03044
390.77537,2.03488
390.53430,1.97829
390.29323,1.91669
390.05216,1.88098
389.81109,1.86135
389.57002,1.87119
389.32895,1.99579
389.08788,2.28796
388.84681,2.32113
388.60574,2.12263
388.36467,2.11358
388.12360,2.18156
387.88253,2.21998
387.64146,2.16878
387.40038,2.10565
387.15931,2.23898
386.91824,2.40759
386.67717,2.13485
386.43610,1.87093
386.19503,1.78731
385.95396,1.83354
385.71289,1.88358
385.47182,1.93234
385.23075,2.04920
384.98968,2.13750
384.74861,2.18089
384.50754,2.24229
384.26647,2.52074
384.02540,2.31029
383.78433,2.04615
383.54326,1.91710
383.30219,1.82930
383.06111,1.79039
382.82004,1.83019
382.57897,1.91039
382.33790,1.85112
382.09683,1.81014
381.85576,1.84134
381.61469,1.95310
381.37362,2.17832
381.13255,2.10981
380.89148,1.91604
380.65041,1.80044
380.40934,1.76314
380.16827,1.78505
379.92720,1.79056
379.68613,1.77032
379.44506,1.90559
379.20399,2.20948
378.96292,2.20472
378.72184,2.03608
378.48077,1.92804
378.23970,2.00317
377.99863,2.20522
377.75756,2.10870
377.51649,1.89478
377.27542,1.87284
377.03435,1.99310
376.79328,2.07986
376.55221,1.97232
376.31114,1.87895
376.07007,1.89637
375.82900,1.90802
375.58793,1.88315
375.34686,1.87379
375.10579,1.94988
374.86472,2.16222
374.62365,2.34448
374.38257,2.16740
374.14150,1.99416
373.90043,1.94816
373.65936,2.00220
373.41829,2.06267
373.17722,2.01604
372.93615,1.90923
372.69508,1.85645
372.45401,1.86158
372.21294,1.86031
371.97187,1.82880
371.73080,1.80642
371.48973,1.81557
371.24866,1.81537
371.00759,1.78587
370.76652,1.76507
370.52545,1.76028
370.28437,1.75134
370.04330,1.74269
369.80223,1.73325
369.56116,1.70667
369.32009,1.68166
369.07902,1.65348
368.83795,1.60711
368.59688,1.57786
368.35581,1.59687
368.11474,1.65630
367.87367,1.70372
367.63260,1.68126
367.39153,1.60802
367.15046,1.54063
366.90939,1.50839
366.66832,1.51876
366.42725,1.56049
366.18618,1.60214
365.94510,1.62327
365.70403,1.63203
365.46296,1.62760
365.22189,1.60122
364.98082,1.56760
364.73975,1.54475
364.49868,1.53970
364.25761,1.54592
364.01654,1.54298
363.77547,1.52439
363.53440,1.49334
363.29333,1.45388
363.05226,1.42510
362.81119,1.42897
362.57012,1.46571
362.32905,1.50493
362.08798,1.50853
361.84691,1.48386
361.60583,1.47134
361.36476,1.48782
361.12369,1.51361
360.88262,1.51966
360.64155,1.50417
360.40048,1.49295
360.15941,1.49958
359.91834,1.51271
359.67727,1.51294
359.43620,1.49066
359.19513,1.46328
358.95406,1.45291
358.71299,1.45798
358.47192,1.45860
358.23085,1.44799
357.98978,1.43993
357.74871,1.44677
357.50764,1.46178
357.26656,1.47266
357.02549,1.48063
356.78442,1.48956
356.54335,1.49294
356.30228,1.47528
356.06121,1.44221
355.82014,1.42152
355.57907,1.42948
355.33800,1.46298
355.09693,1.50377
354.85586,1.52084
354.61479,1.49490
354.37372,1.44230
354.13265,1.39664
353.89158,1.38219
353.65051,1.39707
353.40944,1.41797
353.16837,1.42772
352.92729,1.43426
352.68622,1.45525
352.44515,1.48276
352.20408,1.48430
351.96301,1.45279
351.72194,1.42489
351.48087,1.43169
351.23980,1.46870
350.99873,1.50659
350.75766,1.52847
350.51659,1.53980
350.27552,1.54385
350.03445,1.53733
349.79338,1.51697
349.55231,1.48611
349.31124,1.45832
349.07017,1.44909
348.82910,1.46446
348.58802,1.49841
348.34695,1.53307
348.10588,1.54187
347.86481,1.51313
347.62374,1.47818
347.38267,1.47658
347.14160,1.50978
346.90053,1.54710
346.65946,1.55548
346.41839,1.53185
346.17732,1.50173
345.93625,1.48815
345.69518,1.49720
345.45411,1.51431
345.21304,1.51974
344.97197,1.51540
344.73090,1.51968
344.48983,1.53589
344.24875,1.55238
344.00768,1.57888
343.76661,1.63870
343.52554,1.70686
343.28447,1.72508
343.04340,1.70437
342.80233,1.68585
342.56126,1.67254
342.32019,1.65803
342.07912,1.65322
341.83805,1.66747
341.59698,1.70114
341.35591,1.74687
341.11484,1.78754
340.87377,1.79285
340.63270,1.74417
340.39163,1.67187
340.15056,1.61464
339.90948,1.60452
339.66841,1.65443
339.42734,1.74518
339.18627,1.81847
338.94520,1.84692
338.70413,1.81611
338.46306,1.73498
338.22199,1.68754
337.98092,1.70506
337.73985,1.76326
337.49878,1.80775
337.25771,1.79031
337.01664,1.74883
336.77557,1.73766
336.53450,1.75868
336.29343,1.79214
336.05236,1.81843
335.81129,1.82994
335.57021,1.83796
335.32914,1.85794
335.08807,1.86303
334.84700,1.83924
334.60593,1.80419
334.36486,1.75167
334.12379,1.71792
333.88272,1.72259
333.64165,1.75112
333.40058,1.76969
333.15951,1.75550
332.91844,1.72170
332.67737,1.69187
332.43630,1.67779
332.19523,1.68156
331.95416,1.70565
331.71309,1.73762
331.47202,1.74968
331.23094,1.75737
330.98987,1.76222
330.74880,1.73747
330.50773,1.67682
330.26666,1.60997
330.02559,1.56713
329.78452,1.56475
329.54345,1.60359
329.30238,1.66475
329.06131,1.71574
328.82024,1.72284
328.57917,1.67765
328.33810,1.61610
328.09703,1.57482
327.85596,1.56783
327.61489,1.59824
327.37382,1.65905
327.13275,1.71716
326.89167,1.74700
326.65060,1.76642
326.40953,1.76741
326.16846,1.72350
325.92739,1.65528
325.68632,1.59895
325.44525,1.57274
325.20418,1.58174
324.96311,1.63030
324.72204,1.70193
324.48097,1.75263
324.23990,1.76339
323.99883,1.77466
323.75776,1.81503
323.51669,1.86086
323.27562,1.86681
323.03455,1.82054
322.79348,1.78383
322.55240,1.80857
322.31133,1.87329
322.07026,1.88479
321.82919,1.87502
321.58812,1.94238
321.34705,1.91044
321.10598,1.80502
320.86491,1.73442
320.62384,1.70156
320.38277,1.69411
320.14170,1.71091
319.90063,1.75005
319.65956,1.77593
319.41849,1.77273
319.17742,1.79386
318.93635,1.84464
318.69528,1.89623
318.45421,1.94901
318.21313,1.97889
317.97206,1.95531
317.73099,1.90492
317.48992,1.87942
317.24885,1.89078
317.00778,1.91561
316.76671,1.96092
316.52564,2.02326
316.28457,2.03447
316.04350,2.00382
315.80243,1.99895
315.56136,2.05618
315.32029,2.09177
315.07922,2.01840
314.83815,1.91065
314.59708,1.82899
314.35601,1.80520
314.11494,1.83211
313.87386,1.83296
313.63279,1.79643
313.39172,1.78803
313.15065,1.83512
312.90958,1.91991
312.66851,1.97135
312.42744,1.96518
312.18637,1.97536
311.94530,2.00327
311.70423,2.06669
311.46316,2.26122
311.22209,2.39709
310.98102,2.30334
310.73995,2.15608
310.49888,2.00962
310.25781,1.90018
310.01674,1.87131
309.77567,1.91370
309.53459,1.95830
309.29352,1.99272
309.05245,2.03574
308.81138,2.00788
308.57031,1.96803
308.32924,1.97985
308.08817,2.00142
307.84710,2.01907
307.60603,1.99568
307.36496,1.93087
307.12389,1.87770
306.88282,1.84301
306.64175,1.80284
306.40068,1.75317
306.15961,1.71634
305.91854,1.69273
305.67747,1.66457
305.43640,1.63009
305.19532,1.60095
304.95425,1.57832
304.71318,1.54966
304.47211,1.51678
304.23104,1.49355
303.98997,1.48020
303.74890,1.46468
303.50783,1.44667
303.26676,1.44168
303.02569,1.45666
302.78462,1.47457
302.54355,1.47276
302.30248,1.44999
302.06141,1.42003
301.82034,1.39776
301.57927,1.39087
301.33820,1.39192
301.09713,1.38752
300.85605,1.37848
300.61498,1.37501
300.37391,1.37321
300.13284,1.35755
299.89177,1.32933
299.65070,1.30798
299.40963,1.30493
299.16856,1.31281
298.92749,1.31264
298.68642,1.29036
298.44535,1.25213
298.20428,1.21820
297.96321,1.20186
297.72214,1.20175
297.48107,1.21028
297.24000,1.22050
296.99893,1.22618
296.75786,1.22513
296.51678,1.22361
296.27571,1.22767
296.03464,1.23044
295.79357,1.22000
295.55250,1.19990
295.31143,1.18487
295.07036,1.17809
294.82929,1.16985
294.58822,1.15632
294.34715,1.14567
294.10608,1.14395
293.86501,1.14638
293.62394,1.14527
293.38287,1.14020
293.14180,1.13476
292.90073,1.13048
292.65966,1.12838
292.41859,1.13005
292.17751,1.13447
291.93644,1.13676
291.69537,1.13265
291.45430,1.12320
291.21323,1.11310
290.97216,1.10665
290.73109,1.10628
290.49002,1.10898
290.24895,1.10669
290.00788,1.09579
289.76681,1.08341
289.52574,1.08042
289.28467,1.08951
289.04360,1.10279
288.80253,1.10806
288.56146,1.09897
288.32039,1.08242
288.07932,1.07258
287.83824,1.07587
287.59717,1.08491
287.35610,1.08859
287.11503,1.08442
286.87396,1.07714
286.63289,1.07031
286.39182,1.06522
286.15075,1.06417
285.90968,1.06817
285.66861,1.07314
285.42754,1.07223
285.18647,1.06184
284.94540,1.04467
284.70433,1.02898
284.46326,1.02376
284.22219,1.03135
283.98112,1.04541
283.74005,1.05766
283.49897,1.06466
283.25790,1.06672
283.01683,1.06512
282.77576,1.06265
282.53469,1.06176
282.29362,1.06069
282.05255,1.05595
281.81148,1.04881
281.57041,1.04327
281.32934,1.04057
281.08827,1.04108
280.84720,1.04560
280.60613,1.05125
280.36506,1.05225
280.12399,1.04715
279.88292,1.03968
279.64185,1.03281
279.40078,1.02708
279.15970,1.02298
278.91863,1.02104
278.67756,1.02040
278.43649,1.01877
278.19542,1.01462
277.95435,1.01131
277.71328,1.01572
277.47221,1.02917
277.23114,1.04307
276.99007,1.04674
276.74900,1.03848
276.50793,1.02649
276.26686,1.01983
276.02579,1.02052
275.78472,1.02349
275.54365,1.02220
275.30258,1.01574
275.06151,1.01083
274.82043,1.01443
274.57936,1.02612
274.33829,1.03773
274.09722,1.04075
273.85615,1.03560
273.61508,1.03064
273.37401,1.03215
273.13294,1.03769
272.89187,1.03943
272.65080,1.03392
272.40973,1.02732
272.16866,1.02851
271.92759,1.03875
271.68652,1.05086
271.44545,1.05746
271.20438,1.05684
270.96331,1.05050
270.72224,1.04055
270.48116,1.03175
270.24009,1.02943
269.99902,1.03320
269.75795,1.03754
269.51688,1.03870
269.27581,1.03802
269.03474,1.03891
268.79367,1.04351
268.55260,1.05179
268.31153,1.06124
268.07046,1.06848
267.82939,1.07350
267.58832,1.07985
267.34725,1.08779
267.10618,1.09375
266.86511,1.09699
266.62404,1.10046
266.38297,1.10626
266.14189,1.11392
265.90082,1.12177
265.65975,1.12690
265.41868,1.12497
265.17761,1.11575
264.93654,1.10641
264.69547,1.10482
264.45440,1.11249
264.21333,1.12513
263.97226,1.13770
263.73119,1.14759
263.49012,1.15421
263.24905,1.15832
263.00798,1.16172
262.76691,1.16695
262.52584,1.17735
262.28477,1.19323
262.04370,1.20801
261.80262,1.21634
261.56155,1.22466
261.32048,1.24220
261.07941,1.26497
260.83834,1.28073
260.59727,1.28830
260.35620,1.29856
260.11513,1.31645
259.87406,1.33538
259.63299,1.35248
259.39192,1.37525
259.15085,1.40612
258.90978,1.43349
258.66871,1.44723
258.42764,1.45517
258.18657,1.47332
257.94550,1.50377
257.70443,1.53310
257.46335,1.55669
257.22228,1.58044
256.98121,1.59890
256.74014,1.60826
256.49907,1.62400
256.25800,1.65949
256.01693,1.70607
255.77586,1.72839
255.53479,1.70577
255.29372,1.67598
255.05265,1.67920
254.81158,1.72224
254.57051,1.78973
254.32944,1.85954
254.08837,1.89907
253.84730,1.89988
253.60623,1.89952
253.36516,1.92744
253.12408,1.94633
252.88301,1.92966
252.64194,1.93088
252.40087,1.97624
252.15980,2.04716
251.91873,2.11675
251.67766,2.18393
251.43659,2.26956
251.19552,2.40353
250.95445,2.52968
250.71338,2.53762
250.47231,2.53440
250.23124,2.46359
249.99017,2.30274
249.74910,2.15620
249.50803,2.07495
249.26696,2.08844
249.02589,2.11173
248.78481,2.08000
248.54374,2.12100
248.30267,2.23870
248.06160,2.30392
247.82053,2.31513
247.57946,2.44918
247.33839,2.64856
247.09732,2.42064
246.85625,2.25179
246.61518,2.20099
246.37411,2.18539
246.13304,2.16348
245.89197,2.12523
245.65090,2.10723
245.40983,2.07736
245.16876,1.99533
244.92769,1.87859
244.68661,1.77726
244.44554,1.72327
244.20447,1.70544
243.96340,1.68602
243.72233,1.64183
243.48126,1.58825
243.24019,1.54318
242.99912,1.50049
242.75805,1.45120
242.51698,1.40326
242.27591,1.36908
242.03484,1.34881
241.79377,1.32790
241.55270,1.29069
241.31163,1.23814
241.07056,1.18592
240.82949,1.14692
240.58842,1.12220
240.34734,1.10495
240.10627,1.08689
239.86520,1.06157
239.62413,1.02831
239.38306,0.99535
239.14199,0.97418
238.90092,0.96861
238.65985,0.97029
238.41878,0.96539
238.17771,0.94798
237.93664,0.92481
237.69557,0.90540
237.45450,0.89228
237.21343,0.88156
236.97236,0.86934
236.73129,0.85579
236.49022,0.84313
236.24915,0.83295
236.00807,0.82623
235.76700,0.82265
235.52593,0.81941
235.28486,0.81399
235.04379,0.80778
234.80272,0.80345
234.56165,0.80011
234.32058,0.79469
234.07951,0.78745
233.83844,0.78253
233.59737,0.78184
233.35630,0.78161
233.11523,0.77677
232.87416,0.76690
232.63309,0.75622
232.39202,0.74927
232.15095,0.74777
231.90988,0.75055
231.66880,0.75400
231.42773,0.75368
231.18666,0.74840
230.94559,0.74168
230.70452,0.73688
230.46345,0.73307
230.22238,0.72739
229.98131,0.71975
229.74024,0.71295
229.49917,0.70933
229.25810,0.70887
229.01703,0.71054
228.77596,0.71327
228.53489,0.71536
228.29382,0.71585
228.05275,0.71686
227.81168,0.72072
227.57061,0.72490
227.32953,0.72411
227.08846,0.71771
226.84739,0.71060
226.60632,0.70773
226.36525,0.71020
226.12418,0.71535
225.88311,0.71862
225.64204,0.71674
225.40097,0.71044
225.15990,0.70368
224.91883,0.70083
224.67776,0.70331
224.43669,0.70842
224.19562,0.71246
223.95455,0.71422
223.71348,0.71455
223.47241,0.71425
223.23134,0.71379
222.99026,0.71393
222.74919,0.71555
222.50812,0.71936
222.26705,0.72553
222.02598,0.73248
221.78491,0.73657
221.54384,0.73580
221.30277,0.73386
221.06170,0.73715
220.82063,0.74731
220.57956,0.75963
220.33849,0.76941
220.09742,0.77637
219.85635,0.78153
219.61528,0.78466
219.37421,0.78729
219.13314,0.79376
218.89207,0.80597
218.65099,0.81961
218.40992,0.82848
218.16885,0.83171
217.92778,0.83378
217.68671,0.83855
217.44564,0.84631
217.20457,0.85596
216.96350,0.86689
216.72243,0.87840
216.48136,0.88963
216.24029,0.90082
215.99922,0.91198
215.75815,0.92088
215.51708,0.92646
215.27601,0.93170
215.03494,0.93978
214.79387,0.95026
214.55280,0.96072
214.31172,0.97075
214.07065,0.98146
213.82958,0.99281
213.58851,1.00260
213.34744,1.00703
213.10637,1.00487
212.86530,1.00031
212.62423,0.99851
212.38316,1.00058
212.14209,1.00459
211.90102,1.01044
211.65995,1.02013
211.41888,1.03206
211.17781,1.03949
210.93674,1.03775
210.69567,1.02901
210.45460,1.01899
210.21353,1.01304
209.97245,1.01413
209.73138,1.01985
209.49031,1.02352
209.24924,1.02225
209.00817,1.01963
208.76710,1.01850
208.52603,1.01705
208.28496,1.01267
208.04389,1.00684
207.80282,1.00244
207.56175,0.99770
207.32068,0.98808
207.07961,0.97391
206.83854,0.96059
206.59747,0.95168
206.35640,0.94711
206.11533,0.94614
205.87426,0.94759
205.63318,0.94759
205.39211,0.94075
205.15104,0.92554
204.90997,0.90669
204.66890,0.89108
204.42783,0.88108
204.18676,0.87328
203.94569,0.86470
203.70462,0.85695
203.46355,0.85183
203.22248,0.84731
202.98141,0.84042
202.74034,0.83041
202.49927,0.81794
202.25820,0.80518
202.01713,0.79556
201.77606,0.78949
201.53499,0.78322
201.29391,0.77363
201.05284,0.76169
200.81177,0.74988
200.57070,0.73913
200.32963,0.72901
200.08856,0.71864
199.84749,0.70699
199.60642,0.69402
199.36535,0.68168
199.12428,0.67264
198.88321,0.66747
198.64214,0.66469
198.40107,0.66296
198.16000,0.66127
197.91893,0.65738
197.67786,0.64853
197.43679,0.63465
197.19572,0.61982
196.95464,0.60976
196.71357,0.60706
196.47250,0.60835
196.23143,0.60764
195.99036,0.60252
195.74929,0.59476
195.50822,0.58641
195.26715,0.57852
195.02608,0.57211
194.78501,0.56781
194.54394,0.56474
194.30287,0.56085
194.06180,0.55486
193.82073,0.54800
193.57966,0.54274
193.33859,0.53968
193.09752,0.53710
192.85645,0.53362
192.61537,0.52954
192.37430,0.52530
192.13323,0.52034
191.89216,0.51429
191.65109,0.50822
191.41002,0.50378
191.16895,0.50153
190.92788,0.50099
190.68681,0.50141
190.44574,0.50119
190.20467,0.49815
189.96360,0.49247
189.72253,0.48737
189.48146,0.48544
189.24039,0.48573
188.99932,0.48569
188.75825,0.48426
188.51718,0.48220
188.27610,0.48065
188.03503,0.48021
187.79396,0.48053
187.55289,0.48042
187.31182,0.47920
187.07075,0.47759
186.82968,0.47637
186.58861,0.47490
186.34754,0.47263
186.10647,0.47065
185.86540,0.47025
185.62433,0.47099
185.38326,0.47181
185.14219,0.47247
184.90112,0.47267
184.66005,0.47145
184.41898,0.46915
184.17791,0.46850
183.93683,0.47162
183.69576,0.47649
183.45469,0.47872
183.21362,0.47727
182.97255,0.47584
182.73148,0.47770
182.49041,0.48188
182.24934,0.48488
182.00827,0.48476
181.76720,0.48250
181.52613,0.48035
181.28506,0.48009
181.04399,0.48214
180.80292,0.48520
180.56185,0.48723
180.32078,0.48788
180.07971,0.48926
179.83864,0.49336
179.59756,0.49969
179.35649,0.50616
179.11542,0.51124
178.87435,0.51412
178.63328,0.51455
178.39221,0.51427
178.15114,0.51690
177.91007,0.52440
177.66900,0.53445
177.42793,0.54323
177.18686,0.55086
176.94579,0.56103
176.70472,0.57485
176.46365,0.58943
176.22258,0.60328
175.98151,0.61849
175.74044,0.63544
175.49937,0.65079
175.25829,0.66372
175.01722,0.67838
174.77615,0.69698
174.53508,0.71519
174.29401,0.72780
174.05294,0.73594
173.81187,0.74438
173.57080,0.75429
173.32973,0.76313
173.08866,0.77047
172.84759,0.77924
172.60652,0.79081
172.36545,0.80243
172.12438,0.80976
171.88331,0.81050
171.64224,0.80603
171.40117,0.79971
171.16010,0.79399
170.91902,0.78931
170.67795,0.78591
170.43688,0.78501
170.19581,0.78639
169.95474,0.78712
169.71367,0.78511
169.47260,0.78077
169.23153,0.77498
168.99046,0.76882
168.74939,0.76454
168.50832,0.76333
168.26725,0.76371
168.02618,0.76344
167.78511,0.76086
167.54404,0.75531
167.30297,0.74888
167.06190,0.74618
166.82083,0.74962
166.57975,0.75613
166.33868,0.76056
166.09761,0.76144
165.85654,0.76150
165.61547,0.76363
165.37440,0.76847
165.13333,0.77546
164.89226,0.78394
164.65119,0.79291
164.41012,0.80071
164.16905,0.80593
163.92798,0.80888
163.68691,0.81159
163.44584,0.81605
163.20477,0.82223
162.96370,0.82872
162.72263,0.83577
162.48156,0.84507
162.24048,0.85612
161.99941,0.86518
161.75834,0.86886
161.51727,0.86700
161.27620,0.86214
161.03513,0.85743
160.79406,0.85443
160.55299,0.85216
160.31192,0.84840
160.07085,0.84196
159.82978,0.83345
159.58871,0.82445
159.34764,0.81697
159.10657,0.81298
158.86550,0.81284
158.62443,0.81429
158.38336,0.81413
158.14229,0.81126
157.90121,0.80667
157.66014,0.80137
157.41907,0.79612
157.17800,0.79173
156.93693,0.78904
156.69586,0.78834
156.45479,0.78873
156.21372,0.78867
155.97265,0.78669
155.73158,0.78128
155.49051,0.77177
155.24944,0.76077
155.00837,0.75293
154.76730,0.74893
154.52623,0.74317
154.28516,0.73016
154.04409,0.71113
153.80302,0.69208
153.56194,0.67769
153.32087,0.66848
153.07980,0.66177
152.83873,0.65435
152.59766,0.64485
152.35659,0.63351
152.11552,0.62060
151.87445,0.60691
151.63338,0.59444
151.39231,0.58415
151.15124,0.57416
150.91017,0.56280
150.66910,0.55133
150.42803,0.54153
150.18696,0.53322
149.94589,0.52537
149.70482,0.51770
149.46375,0.50995
149.22267,0.50179
148.98160,0.49383
148.74053,0.48699
148.49946,0.48129
148.25839,0.47646
148.01732,0.47256
147.77625,0.46918
147.53518,0.46530
147.29411,0.46062
147.05304,0.45593
146.81197,0.45242
146.57090,0.45120
146.32983,0.45303
146.08876,0.45759
145.84769,0.46345
145.60662,0.46927
145.36555,0.47481
145.12448,0.48063
144.88340,0.48666
144.64233,0.49143
144.40126,0.49321
144.16019,0.49175
143.91912,0.48831
143.67805,0.48452
143.43698,0.48165
143.19591,0.48014
142.95484,0.47860
142.71377,0.47449
142.47270,0.46682
142.23163,0.45745
141.99056,0.44896
141.74949,0.44264
141.50842,0.43891
141.26735,0.43687
141.02628,0.43382
140.78521,0.42810
140.54413,0.42195
140.30306,0.41865
140.06199,0.41828
139.82092,0.41870
139.57985,0.41902
139.33878,0.41996
139.09771,0.42202
138.85664,0.42487
138.61557,0.42841
138.37450,0.43326
138.13343,0.44012
137.89236,0.44884
137.65129,0.45876
137.41022,0.46974
137.16915,0.48191
136.92808,0.49469
136.68701,0.50783
136.44594,0.52304
136.20486,0.54191
135.96379,0.56330
135.72272,0.58491
135.48165,0.60595
135.24058,0.62639
134.99951,0.64561
134.75844,0.66375
134.51737,0.68256
134.27630,0.70316
134.03523,0.72462
133.79416,0.74565
133.55309,0.76676
133.31202,0.78994
133.07095,0.81592
132.82988,0.84229
132.58881,0.86488
132.34774,0.88086
132.10667,0.89113
131.86559,0.90019
131.62452,0.91056
131.38345,0.91734
131.14238,0.91328
130.90131,0.89906
130.66024,0.88170
130.41917,0.86581
130.17810,0.85199
129.93703,0.83859
129.69596,0.82176
129.45489,0.79876
129.21382,0.77227
128.97275,0.74674
128.73168,0.72229
128.49061,0.69691
128.24954,0.67138
128.00847,0.64761
127.76740,0.62485
127.52632,0.60156
127.28525,0.57883
127.04418,0.55872
126.80311,0.54044
126.56204,0.52167
126.32097,0.50269
126.07990,0.48585
125.83883,0.47185
125.59776,0.45965
125.35669,0.44886
125.11562,0.43962
124.87455,0.43107
124.63348,0.42204
124.39241,0.41274
124.15134,0.40407
123.91027,0.39565
123.66920,0.38612
123.42812,0.37606
123.18705,0.36888
122.94598,0.36707
122.70491,0.36820
122.46384,0.36692
122.22277,0.36109
121.98170,0.35367
121.74063,0.34883
121.49956,0.34870
121.25849,0.35326
121.01742,0.36057
120.77635,0.36738
120.53528,0.37185
120.29421,0.37536
120.05314,0.38075
119.81207,0.39011
119.57100,0.40453
119.32993,0.42329
119.08885,0.44320
118.84778,0.46154
118.60671,0.47962
118.36564,0.50051
118.12457,0.52408
117.88350,0.54716
117.64243,0.56765
117.40136,0.58593
117.16029,0.60249
116.91922,0.61544
116.67815,0.62175
116.43708,0.62117
116.19601,0.61732
115.95494,0.61322
115.71387,0.60724
115.47280,0.59713
115.23173,0.58542
114.99066,0.57559
114.74958,0.56668
114.50851,0.55623
114.26744,0.54569
114.02637,0.53879
113.78530,0.53606
113.54423,0.53411
113.30316,0.52984
113.06209,0.52371
112.82102,0.51853
112.57995,0.51519
112.33888,0.51179
112.09781,0.50802
111.85674,0.50734
111.61567,0.51254
111.37460,0.52192
111.13353,0.53143
110.89246,0.53814
110.65139,0.54056
110.41031,0.53803
110.16924,0.53159
109.92817,0.52379
109.68710,0.51617
109.44603,0.50737
109.20496,0.49484
108.96389,0.47893
108.72282,0.46372
108.48175,0.45227
108.24068,0.44275
107.99961,0.43219
107.75854,0.42153
107.51747,0.41295
107.27640,0.40439
107.03533,0.39157
106.79426,0.37487
106.55319,0.35956
106.31212,0.34894
106.07104,0.34086
105.82997,0.33111
105.58890,0.31802
105.34783,0.30319
105.10676,0.28977
104.86569,0.28090
104.62462,0.27788
104.38355,0.27867
104.14248,0.27895
103.90141,0.27530
103.66034,0.26743
103.41927,0.25780
103.17820,0.24937
102.93713,0.24321
102.69606,0.23825
102.45499,0.23414
102.21392,0.23233
101.97285,0.23301
101.73177,0.23336
101.49070,0.23053
101.24963,0.22476
101.00856,0.21832
100.76749,0.21296
100.52642,0.20904
100.28535,0.20600
100.04428,0.20334
99.80321,0.20115
99.56214,0.19950
99.32107,0.19770
99.08000,0.19470
98.83893,0.19042
98.59786,0.18632
98.35679,0.18432
98.11572,0.18502
97.87465,0.18733
97.63358,0.18957
97.39250,0.19037
97.15143,0.18957
96.91036,0.18879
96.66929,0.19014
96.42822,0.19387
96.18715,0.19857
95.94608,0.20345
95.70501,0.20898
95.46394,0.21536
95.22287,0.22170
94.98180,0.22683
94.74073,0.23026
94.49966,0.23266
94.25859,0.23506
94.01752,0.23715
93.77645,0.23730
93.53538,0.23503
93.29431,0.23220
93.05323,0.23103
92.81216,0.23187
92.57109,0.23336
92.33002,0.23411
92.08895,0.23407
91.84788,0.23440
91.60681,0.23629
91.36574,0.24039
91.12467,0.24728
90.88360,0.25812
90.64253,0.27439
90.40146,0.29683
90.16039,0.32425
89.91932,0.35390
89.67825,0.38408
89.43718,0.41556
89.19611,0.44934
88.95504,0.48338
88.71396,0.51267
88.47289,0.53248
88.23182,0.54003
87.99075,0.53375
87.74968,0.51451
87.50861,0.48781
87.26754,0.46015
87.02647,0.43367
86.78540,0.40724
86.54433,0.38105
86.30326,0.35695
86.06219,0.33516
85.82112,0.31406
85.58005,0.29286
85.33898,0.27260
85.09791,0.25442
84.85684,0.23852
84.61577,0.22463
84.37469,0.21245
84.13362,0.20141
83.89255,0.19146
83.65148,0.18363
83.41041,0.17846
83.16934,0.17429
82.92827,0.16879
82.68720,0.16192
82.44613,0.15544
82.20506,0.15040
81.96399,0.14643
81.72292,0.14268
81.48185,0.13885
81.24078,0.13538
80.99971,0.13310
80.75864,0.13201
80.51757,0.13102
80.27650,0.12926
80.03542,0.12709
79.79435,0.12501
79.55328,0.12283
79.31221,0.12055
79.07114,0.11912
78.83007,0.11940
78.58900,0.12102
78.34793,0.12249
78.10686,0.12218
77.86579,0.11920
77.62472,0.11411
77.38365,0.10862
77.14258,0.10420
76.90151,0.10101
76.66044,0.09820
76.41937,0.09521
76.17830,0.09204
75.93723,0.08881
75.69615,0.08628
75.45508,0.08601
75.21401,0.08821
74.97294,0.09042
74.73187,0.09062
74.49080,0.09002
74.24973,0.09059
74.00866,0.09135
73.76759,0.08987
73.52652,0.08615
73.28545,0.08305
73.04438,0.08280
72.80331,0.08420
72.56224,0.08437
72.32117,0.08275
72.08010,0.08143
71.83903,0.08176
71.59796,0.08312
71.35688,0.08506
71.11581,0.08790
70.87474,0.09125
70.63367,0.09399
70.39260,0.09611
70.15153,0.09965
69.91046,0.10724
69.66939,0.11962
69.42832,0.13444
69.18725,0.14762
68.94618,0.15607
68.70511,0.15839
68.46404,0.15340
68.22297,0.14082
67.98190,0.12381
67.74083,0.10802
67.49976,0.09681
67.25869,0.08940
67.01761,0.08377
66.77654,0.07956
66.53547,0.07701
66.29440,0.07483
66.05333,0.07130
65.81226,0.06743
65.57119,0.06693
65.33012,0.07162
65.08905,0.07901
64.84798,0.08587
64.60691,0.09233
64.36584,0.09984
64.12477,0.10659
63.88370,0.10874
63.64263,0.10597
63.40156,0.10182
63.16049,0.09835
62.91942,0.09394
62.67834,0.08706
62.43727,0.07922
62.19620,0.07329
61.95513,0.07015
61.71406,0.06786
61.47299,0.06372
61.23192,0.05724
60.99085,0.05063
60.74978,0.04641
60.50871,0.04569
60.26764,0.04799
60.02657,0.05139
59.78550,0.05367
59.54443,0.05489
59.30336,0.05749
59.06229,0.06164
58.82122,0.06305
58.58015,0.05835
58.33907,0.05063
58.09800,0.04599
57.85693,0.04595
57.61586,0.04698
57.37479,0.04636
57.13372,0.04517
56.89265,0.04450
56.65158,0.04293
56.41051,0.03941
56.16944,0.03554
55.92837,0.03372
55.68730,0.03474
55.44623,0.03723
55.20516,0.03885
54.96409,0.03835
54.72302,0.03693
54.48195,0.03665
54.24088,0.03783
53.99980,0.03961
53.75873,0.04213
53.51766,0.04603
53.27659,0.05035
53.03552,0.05287
52.79445,0.05258
52.55338,0.05049
52.31231,0.04712
52.07124,0.04130
51.83017,0.03334
51.58910,0.02723
51.34803,0.02683
51.10696,0.03080
50.86589,0.03376
50.62482,0.03241
50.38375,0.02832
50.14268,0.02414
49.90161,0.01992
49.66053,0.01466
49.41946,0.00977
49.17839,0.00807
48.93732,0.01016
48.69625,0.01465
48.45518,0.02026
48.21411,0.02483
47.97304,0.02371
47.73197,0.01343
47.49090,-0.00264
47.24983,-0.01746
47.00876,-0.02774
46.76769,-0.03408
46.52662,-0.03628
46.28555,-0.03357
46.04448,-0.02848
45.80341,-0.02575
45.56234,-0.02763
45.32126,-0.03350
45.08019,-0.04104
44.83912,-0.04560
44.59805,-0.04312
44.35698,-0.03519
44.11591,-0.02787
43.87484,-0.02446
43.63377,-0.02348
43.39270,-0.02308
43.15163,-0.02330
42.91056,-0.02329
42.66949,-0.02149
42.42842,-0.02024
42.18735,-0.02503
41.94628,-0.03577
41.70521,-0.04406
41.46414,-0.04587
41.22307,-0.04854
40.98199,-0.05811
40.74092,-0.06913
40.49985,-0.07038
40.25878,-0.05685
40.01771,-0.03523
39.77664,-0.01748
39.53557,-0.01084
39.29450,-0.01538
39.05343,-0.02759
38.81236,-0.04287
38.57129,-0.05499
38.33022,-0.05836
38.08915,-0.05551
37.84808,-0.05637
37.60701,-0.06364
37.36594,-0.06583
37.12487,-0.05334
36.88380,-0.03434
36.64272,-0.02300
36.40165,-0.02556
36.16058,-0.04114
35.91951,-0.06202
35.67844,-0.07265
35.43737,-0.06107
35.19630,-0.03703
34.95523,-0.02679
34.71416,-0.04449
34.47309,-0.07444
34.23202,-0.08593
33.99095,-0.06678
33.74988,-0.04026
33.50881,-0.03743
33.26774,-0.05621
33.02667,-0.06768
32.78560,-0.04957
32.54453,-0.00875
32.30345,0.02364
32.06238,0.02889
31.82131,0.01828
31.58024,0.01099
31.33917,0.01318
31.09810,0.02475
30.85703,0.04969
30.61596,0.08720
30.37489,0.12096
30.13382,0.12771
29.89275,0.09702
29.65168,0.04491
29.41061,0.00036
29.16954,-0.02322
28.92847,-0.02883
28.68740,-0.00606
28.44633,0.04115
28.20526,0.07829
27.96418,0.08333
27.72311,0.07842
27.48204,0.09163
27.24097,0.11805
26.99990,0.13435
26.75883,0.12878
26.51776,0.12400
26.27669,0.15224
26.03562,0.19162
25.79455,0.17788
25.55348,0.11833
25.31241,0.09495
25.07134,0.14552
24.83027,0.22843
24.58920,0.30155
24.34813,0.35333
24.10706,0.36762
23.86599,0.33684
23.62491,0.30438
23.38384,0.30938
23.14277,0.32494
22.90170,0.31899
22.66063,0.30143
22.41956,0.28712
22.17849,0.26156
21.93742,0.21453
21.69635,0.15657
21.45528,0.11779
21.21421,0.11910
20.97314,0.16636
20.73207,0.27258
20.49100,0.43772
20.24993,0.57582
20.00886,0.59254
19.76779,0.55571
19.52672,0.51887
19.28564,0.45954
19.04457,0.39691
18.80350,0.35710
18.56243,0.37881
18.32136,0.46085
18.08029,0.56903
17.83922,0.65295
17.59815,0.65622
17.35708,0.69752
17.11601,0.75584
16.87494,0.75849
16.63387,0.74600
16.39280,0.64631
16.15173,0.58127
15.91066,0.59742
15.66959,0.69078
15.42852,0.73441
15.18745,0.67324
14.94637,0.65144
14.70530,0.67336
14.46423,0.83765
14.22316,1.18153
13.98209,1.07107
13.74102,0.97344
13.49995,0.76350
13.25888,0.63728
13.01781,0.75228
12.77674,1.04089
12.53567,0.92003
12.29460,0.73630
12.05353,0.63143
11.81246,0.59819
11.57139,0.62703
11.33032,0.57560
11.08925,0.53258
10.84818,0.56227
10.60710,0.60597
10.36603,0.63500
10.12496,0.65633
9.88389,0.65480
9.64282,0.66863
9.40175,0.66129
9.16068,0.62981
8.91961,0.69266
8.67854,0.76426
8.43747,0.64263
8.19640,0.57745
7.95533,0.53834
7.71426,0.50336
7.47319,0.59338
7.23212,0.46112
6.99105,0.30169
6.74998,0.29614
6.50891,0.34737
6.26783,0.36553
6.02676,0.37536
5.78569,0.44453
5.54462,0.59107
5.30355,0.65082
5.06248,0.60273
4.82141,0.62868
4.58034,0.67596
4.33927,0.74598
4.09820,0.69902
3.85713,0.71110
3.61606,0.79522
3.37499,0.72058
3.13392,0.66177
2.89285,0.80498
2.65178,1.10257
2.41071,1.03109
2.16964,1.01336
1.92856,0.81103
1.68749,0.72637
1.44642,0.77208
1.20535,0.86286
0.96428,0.89933
0.72321,0.87289
0.48214,0.87994
0.24107,0.89655
-0.00000,0.62508
