399.69498,1.84740
399.45391,1.92131
399.21284,1.99718
398.97177,2.02075
398.73070,2.00058
398.48963,2.00118
398.24856,2.08026
398.00749,2.20058
397.76642,2.21359
397.52535,2.18196
397.28428,2.16327
397.04321,2.13586
396.80214,2.07252
396.56107,1.99386
396.32000,1.96480
396.07892,1.99302
395.83785,2.03470
395.59678,2.04395
395.35571,2.03110
395.11464,2.02923
394.87357,2.01890
394.63250,1.97698
394.39143,1.92301
394.15036,1.89717
393.90929,1.91387
393.66822,1.94376
393.42715,1.95222
393.18608,1.96834
392.94501,2.04092
392.70394,2.14421
392.46287,2.15363
392.22180,2.07860
391.98073,2.01337
391.73965,2.02875
391.49858,2.12941
391.25751,2.26502
391.01644,2.37958
390.77537,2.28574
390.53430,2.14885
390.29323,2.17296
390.05216,2.32883
389.81109,2.29086
389.57002,2.16439
389.32895,2.14514
389.08788,2.25221
388.84681,2.50460
388.60574,2.89643
388.36467,2.83027
388.12360,2.90278
387.88253,2.42216
387.64146,2.24267
387.40038,2.33763
387.15931,2.50936
386.91824,2.48445
386.67717,2.29439
386.43610,2.15057
386.19503,2.17861
385.95396,2.35943
385.71289,2.37093
385.47182,2.30382
385.23075,2.27778
384.98968,2.23641
384.74861,2.18735
384.50754,2.17732
384.26647,2.17369
384.02540,2.10182
383.78433,1.98606
383.54326,1.96065
383.30219,2.16667
383.06111,2.53538
382.82004,2.22190
382.57897,2.04216
382.33790,2.00680
382.09683,1.92914
381.85576,1.90815
381.61469,1.96468
381.37362,1.98434
381.13255,2.04141
380.89148,2.25135
380.65041,2.21694
380.40934,2.08478
380.16827,2.02335
379.92720,1.90329
379.68613,1.83325
379.44506,1.86426
379.20399,1.95213
378.96292,2.11931
378.72184,2.38887
378.48077,2.41171
378.23970,2.12515
377.99863,1.94538
377.75756,1.89373
377.51649,1.92301
377.27542,2.05551
377.03435,2.27218
376.79328,2.29838
376.55221,2.15881
376.31114,2.08747
376.07007,2.14366
375.82900,2.29100
375.58793,2.25391
375.34686,2.07783
375.10579,1.97154
374.86472,1.94738
374.62365,1.98476
374.38257,2.11200
374.14150,2.21450
373.90043,2.00662
373.65936,1.84493
373.41829,1.77824
373.17722,1.77406
372.93615,1.82541
372.69508,1.89917
372.45401,1.92445
372.21294,1.91613
371.97187,1.90826
371.73080,1.91808
371.48973,1.95518
371.24866,1.98877
371.00759,1.96182
370.76652,1.86658
370.52545,1.76042
370.28437,1.68239
370.04330,1.63564
369.80223,1.62024
369.56116,1.64138
369.32009,1.68924
369.07902,1.73256
368.83795,1.75526
368.59688,1.75190
368.35581,1.71752
368.11474,1.68251
367.87367,1.67212
367.63260,1.68264
367.39153,1.69517
367.15046,1.69652
366.90939,1.68890
366.66832,1.67786
366.42725,1.66253
366.18618,1.63510
365.94510,1.59742
365.70403,1.56830
365.46296,1.55907
365.22189,1.56765
364.98082,1.58014
364.73975,1.57431
364.49868,1.54590
364.25761,1.51374
364.01654,1.49844
363.77547,1.50902
363.53440,1.53813
363.29333,1.56499
363.05226,1.56898
362.81119,1.55452
362.57012,1.54327
362.32905,1.54035
362.08798,1.53240
361.84691,1.51624
361.60583,1.50910
361.36476,1.51900
361.12369,1.52649
360.88262,1.51183
360.64155,1.48414
360.40048,1.46649
360.15941,1.47162
359.91834,1.49444
359.67727,1.51677
359.43620,1.52375
359.19513,1.51366
358.95406,1.49063
358.71299,1.45910
358.47192,1.42968
358.23085,1.41538
357.98978,1.42073
357.74871,1.44013
357.50764,1.46160
357.26656,1.47363
357.02549,1.48080
356.78442,1.49011
356.54335,1.48952
356.30228,1.46720
356.06121,1.43148
355.82014,1.41069
355.57907,1.42436
355.33800,1.46287
355.09693,1.49828
354.85586,1.51224
354.61479,1.50983
354.37372,1.49931
354.13265,1.48016
353.89158,1.45637
353.65051,1.44106
353.40944,1.43971
353.16837,1.44766
352.92729,1.45793
352.68622,1.45944
352.44515,1.44165
352.20408,1.41051
351.96301,1.38853
351.72194,1.39484
351.48087,1.42653
351.23980,1.45752
350.99873,1.46355
350.75766,1.44957
350.51659,1.43917
350.27552,1.44412
350.03445,1.45718
349.79338,1.46351
349.55231,1.45506
349.31124,1.43892
349.07017,1.42766
348.82910,1.42393
348.58802,1.42227
348.34695,1.41974
348.10588,1.41939
347.86481,1.43120
347.62374,1.46003
347.38267,1.49257
347.14160,1.50548
346.90053,1.49501
346.65946,1.48544
346.41839,1.49731
346.17732,1.51983
345.93625,1.52087
345.69518,1.49375
345.45411,1.46865
345.21304,1.46889
344.97197,1.48950
344.73090,1.51307
344.48983,1.53488
344.24875,1.55829
344.00768,1.57584
343.76661,1.58206
343.52554,1.58660
343.28447,1.59447
343.04340,1.59582
342.80233,1.59075
342.56126,1.59744
342.32019,1.61911
342.07912,1.63273
341.83805,1.62467
341.59698,1.61483
341.35591,1.62299
341.11484,1.64989
340.87377,1.69316
340.63270,1.74438
340.39163,1.78253
340.15056,1.78838
339.90948,1.77071
339.66841,1.75397
339.42734,1.75302
339.18627,1.76939
338.94520,1.79228
338.70413,1.80376
338.46306,1.80587
338.22199,1.82457
337.98092,1.86170
337.73985,1.89189
337.49878,1.90778
337.25771,1.91547
337.01664,1.91944
336.77557,1.90967
336.53450,1.88635
336.29343,1.86462
336.05236,1.85499
335.81129,1.86601
335.57021,1.89701
335.32914,1.91738
335.08807,1.89941
334.84700,1.86574
334.60593,1.84444
334.36486,1.83780
334.12379,1.82576
333.88272,1.79959
333.64165,1.77537
333.40058,1.75251
333.15951,1.71072
332.91844,1.65734
332.67737,1.62542
332.43630,1.63337
332.19523,1.67164
331.95416,1.71182
331.71309,1.72558
331.47202,1.71047
331.23094,1.69020
330.98987,1.69302
330.74880,1.72928
330.50773,1.77551
330.26666,1.78137
330.02559,1.72867
329.78452,1.65797
329.54345,1.60978
329.30238,1.59404
329.06131,1.60140
328.82024,1.61735
328.57917,1.62868
328.33810,1.62589
328.09703,1.60550
327.85596,1.58119
327.61489,1.58367
327.37382,1.63207
327.13275,1.70652
326.89167,1.75713
326.65060,1.74733
326.40953,1.69278
326.16846,1.64720
325.92739,1.64140
325.68632,1.67466
325.44525,1.71717
325.20418,1.72758
324.96311,1.70767
324.72204,1.69510
324.48097,1.70933
324.23990,1.73749
323.99883,1.75732
323.75776,1.74920
323.51669,1.72829
323.27562,1.72107
323.03455,1.74906
322.79348,1.83398
322.55240,1.96484
322.31133,2.05805
322.07026,2.05167
321.82919,1.99413
321.58812,1.91243
321.34705,1.86445
321.10598,1.89671
320.86491,1.98592
320.62384,2.02319
320.38277,1.95715
320.14170,1.89634
319.90063,1.88874
319.65956,1.92334
319.41849,1.97507
319.17742,2.04261
318.93635,2.10315
318.69528,2.10646
318.45421,2.06417
318.21313,2.00185
317.97206,1.99899
317.73099,2.07606
317.48992,2.13663
317.24885,2.11279
317.00778,2.09191
316.76671,2.14310
316.52564,2.24612
316.28457,2.27318
316.04350,2.19423
315.80243,2.10046
315.56136,2.02502
315.32029,2.03413
315.07922,2.15756
314.83815,2.21651
314.59708,2.08801
314.35601,2.04947
314.11494,2.08127
313.87386,2.17986
313.63279,2.33234
313.39172,2.29129
313.15065,2.23184
312.90958,2.32724
312.66851,2.32701
312.42744,2.21478
312.18637,2.25984
311.94530,2.53096
311.70423,2.68973
311.46316,2.49135
311.22209,2.19182
310.98102,2.11757
310.73995,2.18783
310.49888,2.24426
310.25781,2.22276
310.01674,2.25243
309.77567,2.39683
309.53459,2.47977
309.29352,2.51081
309.05245,2.22727
308.81138,2.03392
308.57031,1.95129
308.32924,1.89157
308.08817,1.83810
307.84710,1.82229
307.60603,1.84615
307.36496,1.87149
307.12389,1.87720
306.88282,1.86977
306.64175,1.84372
306.40068,1.78588
306.15961,1.69695
305.91854,1.61795
305.67747,1.57939
305.43640,1.57061
305.19532,1.56773
304.95425,1.56600
304.71318,1.56182
304.47211,1.54369
304.23104,1.52158
303.98997,1.51084
303.74890,1.50883
303.50783,1.50154
303.26676,1.47852
303.02569,1.44104
302.78462,1.39805
302.54355,1.36446
302.30248,1.35054
302.06141,1.35169
301.82034,1.35674
301.57927,1.36042
301.33820,1.36282
301.09713,1.36129
300.85605,1.35461
300.61498,1.34615
300.37391,1.33685
300.13284,1.32489
299.89177,1.30991
299.65070,1.29605
299.40963,1.28655
299.16856,1.27785
298.92749,1.26381
298.68642,1.24522
298.44535,1.22940
298.20428,1.22035
297.96321,1.21567
297.72214,1.21272
297.48107,1.21355
297.24000,1.22074
296.99893,1.23081
296.75786,1.23518
296.51678,1.22888
296.27571,1.21683
296.03464,1.20730
295.79357,1.20242
295.55250,1.19943
295.31143,1.19641
295.07036,1.19094
294.82929,1.17852
294.58822,1.15932
294.34715,1.14169
294.10608,1.13430
293.86501,1.13792
293.62394,1.14586
293.38287,1.15016
293.14180,1.14680
292.90073,1.13656
292.65966,1.12319
292.41859,1.11265
292.17751,1.10976
291.93644,1.11368
291.69537,1.11957
291.45430,1.12370
291.21323,1.12504
290.97216,1.12410
290.73109,1.12157
290.49002,1.11803
290.24895,1.11425
290.00788,1.11028
289.76681,1.10448
289.52574,1.09567
289.28467,1.08530
289.04360,1.07602
288.80253,1.06872
288.56146,1.06409
288.32039,1.06493
288.07932,1.07191
287.83824,1.07992
287.59717,1.08150
287.35610,1.07458
287.11503,1.06506
286.87396,1.06045
286.63289,1.06219
286.39182,1.06497
286.15075,1.06408
285.90968,1.06068
285.66861,1.05812
285.42754,1.05613
285.18647,1.05130
284.94540,1.04241
284.70433,1.03355
284.46326,1.03098
284.22219,1.03660
283.98112,1.04470
283.74005,1.04775
283.49897,1.04488
283.25790,1.04154
283.01683,1.04170
282.77576,1.04365
282.53469,1.04338
282.29362,1.03940
282.05255,1.03305
281.81148,1.02718
281.57041,1.02532
281.32934,1.02921
281.08827,1.03583
280.84720,1.03914
280.60613,1.03729
280.36506,1.03491
280.12399,1.03646
279.88292,1.04094
279.64185,1.04435
279.40078,1.04408
279.15970,1.03968
278.91863,1.03239
278.67756,1.02512
278.43649,1.02200
278.19542,1.02599
277.95435,1.03496
277.71328,1.04213
277.47221,1.04266
277.23114,1.03785
276.99007,1.03170
276.74900,1.02666
276.50793,1.02401
276.26686,1.02405
276.02579,1.02430
275.78472,1.02153
275.54365,1.01687
275.30258,1.01509
275.06151,1.01847
274.82043,1.02427
274.57936,1.02857
274.33829,1.02951
274.09722,1.02708
273.85615,1.02263
273.61508,1.01840
273.37401,1.01629
273.13294,1.01716
272.89187,1.02075
272.65080,1.02461
272.40973,1.02565
272.16866,1.02516
271.92759,1.02861
271.68652,1.03749
271.44545,1.04658
271.20438,1.05124
270.96331,1.05219
270.72224,1.05140
270.48116,1.04932
270.24009,1.04663
269.99902,1.04466
269.75795,1.04395
269.51688,1.04359
269.27581,1.04232
269.03474,1.04051
268.79367,1.03964
268.55260,1.03986
268.31153,1.04046
268.07046,1.04334
267.82939,1.05133
267.58832,1.06202
267.34725,1.06891
267.10618,1.06950
266.86511,1.06783
266.62404,1.06860
266.38297,1.07250
266.14189,1.07801
265.90082,1.08453
265.65975,1.09247
265.41868,1.10189
265.17761,1.11178
264.93654,1.12007
264.69547,1.12481
264.45440,1.12623
264.21333,1.12677
263.97226,1.12882
263.73119,1.13298
263.49012,1.13796
263.24905,1.14224
263.00798,1.14653
262.76691,1.15422
262.52584,1.16720
262.28477,1.18303
262.04370,1.19765
261.80262,1.20846
261.56155,1.21528
261.32048,1.22163
261.07941,1.23273
260.83834,1.24799
260.59727,1.26097
260.35620,1.26932
260.11513,1.27644
259.87406,1.28515
259.63299,1.29858
259.39192,1.31848
259.15085,1.33725
258.90978,1.34348
258.66871,1.34090
258.42764,1.34856
258.18657,1.37673
257.94550,1.41590
257.70443,1.45020
257.46335,1.47493
257.22228,1.49550
256.98121,1.51607
256.74014,1.53948
256.49907,1.56773
256.25800,1.59909
256.01693,1.63281
255.77586,1.67672
255.53479,1.72518
255.29372,1.74898
255.05265,1.75366
254.81158,1.77448
254.57051,1.81519
254.32944,1.85576
254.08837,1.89626
253.84730,1.95312
253.60623,2.01732
253.36516,2.05822
253.12408,2.05984
252.88301,2.04183
252.64194,2.03757
252.40087,2.06971
252.15980,2.13053
251.91873,2.19593
251.67766,2.23595
251.43659,2.27216
251.19552,2.38538
250.95445,2.52475
250.71338,2.50031
250.47231,2.42216
250.23124,2.38143
249.99017,2.35777
249.74910,2.38206
249.50803,2.48104
249.26696,2.50644
249.02589,2.42797
248.78481,2.38893
248.54374,2.39549
248.30267,2.31896
248.06160,2.17785
247.82053,2.11307
247.57946,2.15401
247.33839,2.27166
247.09732,2.37858
246.85625,2.31350
246.61518,2.13339
246.37411,1.99820
246.13304,1.95322
245.89197,1.97917
245.65090,2.02131
245.40983,2.01502
245.16876,1.96485
244.92769,1.92383
244.68661,1.90011
244.44554,1.87088
244.20447,1.81782
243.96340,1.73946
243.72233,1.65198
243.48126,1.57121
243.24019,1.50484
242.99912,1.45409
242.75805,1.41510
242.51698,1.38268
242.27591,1.34953
242.03484,1.31046
241.79377,1.26989
241.55270,1.23732
241.31163,1.21595
241.07056,1.19854
240.82949,1.17481
240.58842,1.14410
240.34734,1.11481
240.10627,1.09176
239.86520,1.07185
239.62413,1.05122
239.38306,1.03047
239.14199,1.01089
238.90092,0.99116
238.65985,0.97038
238.41878,0.95006
238.17771,0.93196
237.93664,0.91642
237.69557,0.90317
237.45450,0.89167
237.21343,0.88053
236.97236,0.86861
236.73129,0.85680
236.49022,0.84699
236.24915,0.83922
236.00807,0.83137
235.76700,0.82182
235.52593,0.81183
235.28486,0.80401
235.04379,0.79853
234.80272,0.79282
234.56165,0.78580
234.32058,0.77975
234.07951,0.77674
233.83844,0.77555
233.59737,0.77382
233.35630,0.77105
233.11523,0.76814
232.87416,0.76584
232.63309,0.76430
232.39202,0.76277
232.15095,0.75978
231.90988,0.75518
231.66880,0.75099
231.42773,0.74871
231.18666,0.74710
230.94559,0.74421
230.70452,0.74048
230.46345,0.73711
230.22238,0.73327
229.98131,0.72832
229.74024,0.72431
229.49917,0.72308
229.25810,0.72332
229.01703,0.72278
228.77596,0.72141
228.53489,0.71995
228.29382,0.71786
228.05275,0.71483
227.81168,0.71219
227.57061,0.71182
227.32953,0.71381
227.08846,0.71559
226.84739,0.71443
226.60632,0.71068
226.36525,0.70720
226.12418,0.70594
225.88311,0.70687
225.64204,0.70915
225.40097,0.71157
225.15990,0.71270
224.91883,0.71266
224.67776,0.71336
224.43669,0.71552
224.19562,0.71709
223.95455,0.71667
223.71348,0.71599
223.47241,0.71677
223.23134,0.71835
222.99026,0.72008
222.74919,0.72304
222.50812,0.72777
222.26705,0.73278
222.02598,0.73655
221.78491,0.73948
221.54384,0.74301
221.30277,0.74759
221.06170,0.75231
220.82063,0.75648
220.57956,0.76036
220.33849,0.76450
220.09742,0.76951
219.85635,0.77583
219.61528,0.78242
219.37421,0.78736
219.13314,0.79138
218.89207,0.79770
218.65099,0.80738
218.40992,0.81821
218.16885,0.82905
217.92778,0.84082
217.68671,0.85334
217.44564,0.86488
217.20457,0.87489
216.96350,0.88388
216.72243,0.89140
216.48136,0.89719
216.24029,0.90219
215.99922,0.90653
215.75815,0.90950
215.51708,0.91249
215.27601,0.91941
215.03494,0.93202
214.79387,0.94660
214.55280,0.95747
214.31172,0.96272
214.07065,0.96485
213.82958,0.96759
213.58851,0.97309
213.34744,0.98018
213.10637,0.98561
212.86530,0.98822
212.62423,0.99058
212.38316,0.99562
212.14209,1.00263
211.90102,1.00791
211.65995,1.00901
211.41888,1.00763
211.17781,1.00751
210.93674,1.01060
210.69567,1.01592
210.45460,1.02047
210.21353,1.02110
209.97245,1.01784
209.73138,1.01414
209.49031,1.01201
209.24924,1.00990
209.00817,1.00750
208.76710,1.00660
208.52603,1.00552
208.28496,0.99982
208.04389,0.99000
207.80282,0.98212
207.56175,0.97972
207.32068,0.97968
207.07961,0.97664
206.83854,0.96948
206.59747,0.96186
206.35640,0.95669
206.11533,0.95295
205.87426,0.94796
205.63318,0.94062
205.39211,0.93107
205.15104,0.91956
204.90997,0.90731
204.66890,0.89671
204.42783,0.88871
204.18676,0.88128
203.94569,0.87224
203.70462,0.86205
203.46355,0.85208
203.22248,0.84187
202.98141,0.83027
202.74034,0.81806
202.49927,0.80720
202.25820,0.79842
202.01713,0.79116
201.77606,0.78510
201.53499,0.77948
201.29391,0.77208
201.05284,0.76150
200.81177,0.74982
200.57070,0.73989
200.32963,0.73122
200.08856,0.72151
199.84749,0.71075
199.60642,0.70099
199.36535,0.69335
199.12428,0.68672
198.88321,0.67886
198.64214,0.66874
198.40107,0.65836
198.16000,0.65126
197.91893,0.64866
197.67786,0.64769
197.43679,0.64394
197.19572,0.63565
196.95464,0.62503
196.71357,0.61548
196.47250,0.60846
196.23143,0.60335
195.99036,0.59878
195.74929,0.59365
195.50822,0.58776
195.26715,0.58182
195.02608,0.57612
194.78501,0.57013
194.54394,0.56387
194.30287,0.55806
194.06180,0.55279
193.82073,0.54770
193.57966,0.54353
193.33859,0.54146
193.09752,0.54071
192.85645,0.53860
192.61537,0.53346
192.37430,0.52670
192.13323,0.52123
191.89216,0.51833
191.65109,0.51702
191.41002,0.51595
191.16895,0.51455
190.92788,0.51239
190.68681,0.50914
190.44574,0.50525
190.20467,0.50130
189.96360,0.49700
189.72253,0.49194
189.48146,0.48715
189.24039,0.48460
188.99932,0.48494
188.75825,0.48683
188.51718,0.48854
188.27610,0.48925
188.03503,0.48843
187.79396,0.48566
187.55289,0.48181
187.31182,0.47892
187.07075,0.47803
186.82968,0.47829
186.58861,0.47857
186.34754,0.47874
186.10647,0.47897
185.86540,0.47941
185.62433,0.48042
185.38326,0.48169
185.14219,0.48178
184.90112,0.47962
184.66005,0.47618
184.41898,0.47376
184.17791,0.47394
183.93683,0.47674
183.69576,0.48089
183.45469,0.48433
183.21362,0.48546
182.97255,0.48457
182.73148,0.48363
182.49041,0.48424
182.24934,0.48650
182.00827,0.48954
181.76720,0.49197
181.52613,0.49248
181.28506,0.49123
181.04399,0.48998
180.80292,0.49004
180.56185,0.49129
180.32078,0.49313
180.07971,0.49560
179.83864,0.49931
179.59756,0.50470
179.35649,0.51136
179.11542,0.51790
178.87435,0.52316
178.63328,0.52749
178.39221,0.53242
178.15114,0.53873
177.91007,0.54561
177.66900,0.55216
177.42793,0.55893
177.18686,0.56745
176.94579,0.57846
176.70472,0.59114
176.46365,0.60356
176.22258,0.61423
175.98151,0.62378
175.74044,0.63466
175.49937,0.64850
175.25829,0.66436
175.01722,0.68029
174.77615,0.69562
174.53508,0.71067
174.29401,0.72498
174.05294,0.73810
173.81187,0.75096
173.57080,0.76404
173.32973,0.77570
173.08866,0.78439
172.84759,0.79079
172.60652,0.79581
172.36545,0.79903
172.12438,0.80037
171.88331,0.80119
171.64224,0.80253
171.40117,0.80344
171.16010,0.80233
170.91902,0.79910
170.67795,0.79487
170.43688,0.79077
170.19581,0.78754
169.95474,0.78515
169.71367,0.78208
169.47260,0.77702
169.23153,0.77132
168.99046,0.76742
168.74939,0.76550
168.50832,0.76383
168.26725,0.76166
168.02618,0.75947
167.78511,0.75735
167.54404,0.75504
167.30297,0.75343
167.06190,0.75374
166.82083,0.75497
166.57975,0.75450
166.33868,0.75261
166.09761,0.75295
165.85654,0.75708
165.61547,0.76314
165.37440,0.77034
165.13333,0.77960
164.89226,0.78993
164.65119,0.79885
164.41012,0.80584
164.16905,0.81262
163.92798,0.81992
163.68691,0.82572
163.44584,0.82752
163.20477,0.82619
162.96370,0.82572
162.72263,0.82860
162.48156,0.83399
162.24048,0.84051
161.99941,0.84747
161.75834,0.85316
161.51727,0.85555
161.27620,0.85542
161.03513,0.85586
160.79406,0.85850
160.55299,0.86190
160.31192,0.86372
160.07085,0.86249
159.82978,0.85734
159.58871,0.84864
159.34764,0.83961
159.10657,0.83455
158.86550,0.83399
158.62443,0.83361
158.38336,0.82899
158.14229,0.82092
157.90121,0.81441
157.66014,0.81239
157.41907,0.81223
157.17800,0.80925
156.93693,0.80220
156.69586,0.79382
156.45479,0.78774
156.21372,0.78548
155.97265,0.78548
155.73158,0.78447
155.49051,0.77997
155.24944,0.77193
155.00837,0.76232
154.76730,0.75308
154.52623,0.74477
154.28516,0.73749
154.04409,0.73145
153.80302,0.72543
153.56194,0.71655
153.32087,0.70315
153.07980,0.68671
152.83873,0.67016
152.59766,0.65494
152.35659,0.64035
152.11552,0.62577
151.87445,0.61272
151.63338,0.60290
151.39231,0.59510
151.15124,0.58668
150.91017,0.57679
150.66910,0.56613
150.42803,0.55521
150.18696,0.54459
149.94589,0.53500
149.70482,0.52631
149.46375,0.51772
149.22267,0.50888
148.98160,0.50052
148.74053,0.49383
148.49946,0.48934
148.25839,0.48619
148.01732,0.48296
147.77625,0.47908
147.53518,0.47521
147.29411,0.47235
147.05304,0.47098
146.81197,0.47095
146.57090,0.47184
146.32983,0.47344
146.08876,0.47596
145.84769,0.47935
145.60662,0.48298
145.36555,0.48621
145.12448,0.48898
144.88340,0.49158
144.64233,0.49415
144.40126,0.49677
144.16019,0.49971
143.91912,0.50299
143.67805,0.50588
143.43698,0.50692
143.19591,0.50489
142.95484,0.49986
142.71377,0.49295
142.47270,0.48506
142.23163,0.47638
141.99056,0.46709
141.74949,0.45787
141.50842,0.44952
141.26735,0.44291
141.02628,0.43882
140.78521,0.43700
140.54413,0.43598
140.30306,0.43440
140.06199,0.43232
139.82092,0.43088
139.57985,0.43120
139.33878,0.43386
139.09771,0.43873
138.85664,0.44500
138.61557,0.45145
138.37450,0.45733
138.13343,0.46322
137.89236,0.47069
137.65129,0.48026
137.41022,0.49040
137.16915,0.49945
136.92808,0.50822
136.68701,0.51918
136.44594,0.53362
136.20486,0.55094
135.96379,0.56982
135.72272,0.58921
135.48165,0.60856
135.24058,0.62745
134.99951,0.64589
134.75844,0.66543
134.51737,0.68831
134.27630,0.71420
134.03523,0.73975
133.79416,0.76266
133.55309,0.78387
133.31202,0.80484
133.07095,0.82527
132.82988,0.84411
132.58881,0.86009
132.34774,0.87170
132.10667,0.87967
131.86559,0.88738
131.62452,0.89613
131.38345,0.90267
131.14238,0.90282
130.90131,0.89574
130.66024,0.88440
130.41917,0.87346
130.17810,0.86471
129.93703,0.85394
129.69596,0.83611
129.45489,0.81223
129.21382,0.78738
128.97275,0.76373
128.73168,0.73979
128.49061,0.71486
128.24954,0.69016
128.00847,0.66667
127.76740,0.64473
127.52632,0.62438
127.28525,0.60455
127.04418,0.58330
126.80311,0.56048
126.56204,0.53849
126.32097,0.51941
126.07990,0.50348
125.83883,0.49053
125.59776,0.48035
125.35669,0.47102
125.11562,0.45973
124.87455,0.44590
124.63348,0.43219
124.39241,0.42173
124.15134,0.41506
123.91027,0.40981
123.66920,0.40294
123.42812,0.39362
123.18705,0.38407
122.94598,0.37753
122.70491,0.37529
122.46384,0.37553
122.22277,0.37498
121.98170,0.37173
121.74063,0.36669
121.49956,0.36268
121.25849,0.36227
121.01742,0.36616
120.77635,0.37311
120.53528,0.38168
120.29421,0.39174
120.05314,0.40335
119.81207,0.41521
119.57100,0.42628
119.32993,0.43841
119.08885,0.45466
118.84778,0.47546
118.60671,0.49846
118.36564,0.52152
118.12457,0.54351
117.88350,0.56378
117.64243,0.58279
117.40136,0.60143
117.16029,0.61839
116.91922,0.63055
116.67815,0.63608
116.43708,0.63490
116.19601,0.62820
115.95494,0.61919
115.71387,0.61103
115.47280,0.60372
115.23173,0.59600
114.99066,0.58777
114.74958,0.57885
114.50851,0.56819
114.26744,0.55626
114.02637,0.54604
113.78530,0.54008
113.54423,0.53786
113.30316,0.53702
113.06209,0.53606
112.82102,0.53479
112.57995,0.53332
112.33888,0.53264
112.09781,0.53516
111.85674,0.54170
111.61567,0.54888
111.37460,0.55277
111.13353,0.55365
110.89246,0.55395
110.65139,0.55400
110.41031,0.55260
110.16924,0.54890
109.92817,0.54210
109.68710,0.53196
109.44603,0.52068
109.20496,0.51138
108.96389,0.50440
108.72282,0.49690
108.48175,0.48635
108.24068,0.47314
107.99961,0.45926
107.75854,0.44586
107.51747,0.43312
107.27640,0.42095
107.03533,0.40857
106.79426,0.39520
106.55319,0.38198
106.31212,0.37124
106.07104,0.36330
105.82997,0.35575
105.58890,0.34660
105.34783,0.33665
105.10676,0.32786
104.86569,0.32068
104.62462,0.31391
104.38355,0.30636
104.14248,0.29825
103.90141,0.29068
103.66034,0.28403
103.41927,0.27759
103.17820,0.27065
102.93713,0.26346
102.69606,0.25702
102.45499,0.25213
102.21392,0.24876
101.97285,0.24626
101.73177,0.24397
101.49070,0.24167
101.24963,0.23966
101.00856,0.23812
100.76749,0.23633
100.52642,0.23297
100.28535,0.22743
100.04428,0.22059
99.80321,0.21431
99.56214,0.21037
99.32107,0.20938
99.08000,0.21016
98.83893,0.21062
98.59786,0.20965
98.35679,0.20770
98.11572,0.20553
97.87465,0.20351
97.63358,0.20219
97.39250,0.20252
97.15143,0.20482
96.91036,0.20849
96.66929,0.21296
96.42822,0.21799
96.18715,0.22292
95.94608,0.22709
95.70501,0.23086
95.46394,0.23497
95.22287,0.23938
94.98180,0.24349
94.74073,0.24677
94.49966,0.24857
94.25859,0.24850
94.01752,0.24731
93.77645,0.24642
93.53538,0.24661
93.29431,0.24776
93.05323,0.24929
92.81216,0.25033
92.57109,0.25019
92.33002,0.24926
92.08895,0.24889
91.84788,0.25000
91.60681,0.25270
91.36574,0.25776
91.12467,0.26728
90.88360,0.28250
90.64253,0.30183
90.40146,0.32306
90.16039,0.34658
89.91932,0.37433
89.67825,0.40656
89.43718,0.44154
89.19611,0.47745
88.95504,0.51269
88.71396,0.54490
88.47289,0.57000
88.23182,0.58212
87.99075,0.57679
87.74968,0.55566
87.50861,0.52561
87.26754,0.49284
87.02647,0.46059
86.78540,0.43037
86.54433,0.40246
86.30326,0.37634
86.06219,0.35185
85.82112,0.32949
85.58005,0.30949
85.33898,0.29127
85.09791,0.27411
84.85684,0.25794
84.61577,0.24341
84.37469,0.23115
84.13362,0.22126
83.89255,0.21364
83.65148,0.20803
83.41041,0.20316
83.16934,0.19717
82.92827,0.18949
82.68720,0.18149
82.44613,0.17469
82.20506,0.16962
81.96399,0.16630
81.72292,0.16444
81.48185,0.16280
81.24078,0.15994
80.99971,0.15592
80.75864,0.15225
80.51757,0.14973
80.27650,0.14763
80.03542,0.14522
79.79435,0.14299
79.55328,0.14160
79.31221,0.14059
79.07114,0.13931
78.83007,0.13820
78.58900,0.13797
78.34793,0.13772
78.10686,0.13563
77.86579,0.13152
77.62472,0.12719
77.38365,0.12409
77.14258,0.12202
76.90151,0.12054
76.66044,0.12006
76.41937,0.12077
76.17830,0.12123
75.93723,0.11960
75.69615,0.11575
75.45508,0.11129
75.21401,0.10774
74.97294,0.10551
74.73187,0.10432
74.49080,0.10393
74.24973,0.10441
74.00866,0.10582
73.76759,0.10788
73.52652,0.10988
73.28545,0.11099
73.04438,0.11083
72.80331,0.10989
72.56224,0.10910
72.32117,0.10890
72.08010,0.10892
71.83903,0.10885
71.59796,0.10937
71.35688,0.11151
71.11581,0.11524
70.87474,0.11956
70.63367,0.12379
70.39260,0.12810
70.15153,0.13270
69.91046,0.13771
69.66939,0.14356
69.42832,0.15065
69.18725,0.15831
68.94618,0.16411
68.70511,0.16488
68.46404,0.15939
68.22297,0.15015
67.98190,0.14090
67.74083,0.13314
67.49976,0.12653
67.25869,0.12092
67.01761,0.11608
66.77654,0.11116
66.53547,0.10590
66.29440,0.10119
66.05333,0.09785
65.81226,0.09588
65.57119,0.09516
65.33012,0.09592
65.08905,0.09809
64.84798,0.10120
64.60691,0.10525
64.36584,0.11079
64.12477,0.11717
63.88370,0.12209
63.64263,0.12379
63.40156,0.12252
63.16049,0.11917
62.91942,0.11445
62.67834,0.10961
62.43727,0.10591
62.19620,0.10308
61.95513,0.09950
61.71406,0.09395
61.47299,0.08699
61.23192,0.08039
60.99085,0.07578
60.74978,0.07397
60.50871,0.07509
60.26764,0.07850
60.02657,0.08269
59.78550,0.08607
59.54443,0.08794
59.30336,0.08824
59.06229,0.08728
58.82122,0.08591
58.58015,0.08495
58.33907,0.08434
58.09800,0.08368
57.85693,0.08295
57.61586,0.08181
57.37479,0.07900
57.13372,0.07354
56.89265,0.06655
56.65158,0.06099
56.41051,0.05905
56.16944,0.06017
55.92837,0.06179
55.68730,0.06224
55.44623,0.06200
55.20516,0.06234
54.96409,0.06327
54.72302,0.06357
54.48195,0.06241
54.24088,0.06063
53.99980,0.06002
53.75873,0.06193
53.51766,0.06682
53.27659,0.07403
53.03552,0.08156
52.79445,0.08672
52.55338,0.08770
52.31231,0.08418
52.07124,0.07742
51.83017,0.07041
51.58910,0.06619
51.34803,0.06504
51.10696,0.06455
50.86589,0.06318
50.62482,0.06239
50.38375,0.06425
50.14268,0.06788
49.90161,0.07002
49.66053,0.06881
49.41946,0.06506
49.17839,0.06046
48.93732,0.05623
48.69625,0.05250
48.45518,0.04890
48.21411,0.04689
47.97304,0.04912
47.73197,0.05447
47.49090,0.05692
47.24983,0.05250
47.00876,0.04416
46.76769,0.03758
46.52662,0.03473
46.28555,0.03392
46.04448,0.03374
45.80341,0.03426
45.56234,0.03471
45.32126,0.03328
45.08019,0.03084
44.83912,0.03175
44.59805,0.03807
44.35698,0.04528
44.11591,0.04713
43.87484,0.04368
43.63377,0.04021
43.39270,0.03875
43.15163,0.03604
42.91056,0.03114
42.66949,0.02895
42.42842,0.03273
42.18735,0.03920
41.94628,0.04417
41.70521,0.04723
41.46414,0.04845
41.22307,0.04724
40.98199,0.04539
40.74092,0.04568
40.49985,0.04750
40.25878,0.04821
40.01771,0.04877
39.77664,0.05309
39.53557,0.06181
39.29450,0.07153
39.05343,0.07926
38.81236,0.08314
38.57129,0.08103
38.33022,0.07523
38.08915,0.07645
37.84808,0.09243
37.60701,0.11333
37.36594,0.12075
37.12487,0.11003
36.88380,0.09233
36.64272,0.07769
36.40165,0.06696
36.16058,0.05886
35.91951,0.05515
35.67844,0.05652
35.43737,0.05996
35.19630,0.06368
34.95523,0.06925
34.71416,0.07652
34.47309,0.07964
34.23202,0.07540
33.99095,0.07469
33.74988,0.09174
33.50881,0.12087
33.26774,0.14008
33.02667,0.13898
32.78560,0.13091
32.54453,0.13168
32.30345,0.13788
32.06238,0.13501
31.82131,0.12060
31.58024,0.10993
31.33917,0.11468
31.09810,0.12421
30.85703,0.12034
30.61596,0.10221
30.37489,0.08448
30.13382,0.07687
29.89275,0.07408
29.65168,0.06947
29.41061,0.06458
29.16954,0.06426
28.92847,0.07715
28.68740,0.10818
28.44633,0.14415
28.20526,0.16397
27.96418,0.16621
27.72311,0.17365
27.48204,0.19965
27.24097,0.22697
26.99990,0.23274
26.75883,0.21213
26.51776,0.18153
26.27669,0.16645
26.03562,0.17805
25.79455,0.21174
25.55348,0.24854
25.31241,0.26351
25.07134,0.24881
24.83027,0.21651
24.58920,0.18395
24.34813,0.16776
24.10706,0.18656
23.86599,0.24463
23.62491,0.31363
23.38384,0.36262
23.14277,0.38996
22.90170,0.40796
22.66063,0.42189
22.41956,0.43349
22.17849,0.46560
21.93742,0.52304
21.69635,0.56283
21.45528,0.56880
21.21421,0.55386
20.97314,0.52839
20.73207,0.52437
20.49100,0.54754
20.24993,0.56948
20.00886,0.56301
19.76779,0.54568
19.52672,0.55929
19.28564,0.60637
19.04457,0.65086
18.80350,0.65182
18.56243,0.60375
18.32136,0.56463
18.08029,0.58674
17.83922,0.67681
17.59815,0.77400
17.35708,0.73792
17.11601,0.58072
16.87494,0.47584
16.63387,0.50424
16.39280,0.64527
16.15173,0.78707
15.91066,0.86056
15.66959,0.89510
15.42852,0.75211
15.18745,0.53573
14.94637,0.41876
14.70530,0.38739
14.46423,0.38978
14.22316,0.42122
13.98209,0.48527
13.74102,0.56731
13.49995,0.61446
13.25888,0.61372
13.01781,0.60150
12.77674,0.57152
12.53567,0.55339
12.29460,0.55973
12.05353,0.63859
11.81246,0.85355
11.57139,1.09241
11.33032,0.82452
11.08925,0.67412
10.84818,0.65680
10.60710,0.67499
10.36603,0.66739
10.12496,0.64847
9.88389,0.67922
9.64282,0.74691
9.40175,0.81838
9.16068,0.73604
8.91961,0.58884
8.67854,0.57862
8.43747,0.82827
8.19640,1.17804
7.95533,1.06068
7.71426,0.91761
7.47319,0.82222
7.23212,0.76950
6.99105,0.80082
6.74998,0.79486
6.50891,0.67691
6.26783,0.59360
6.02676,0.60977
5.78569,0.60382
5.54462,0.70664
5.30355,1.06886
5.06248,1.46061
4.82141,0.88149
4.58034,0.64692
4.33927,0.67302
4.09820,0.80336
3.85713,1.05142
3.61606,1.29555
3.37499,1.30495
3.13392,1.33273
2.89285,1.22980
2.65178,1.38745
2.41071,1.52086
2.16964,1.01943
1.92856,0.79246
1.68749,0.79494
1.44642,0.69598
1.20535,0.56695
0.96428,0.51883
0.72321,0.50418
0.48214,0.40765
0.24107,0.33200
-0.00000,0.46145
