399.69498,1.53791
399.45391,1.54234
399.21284,1.54231
398.97177,1.54045
398.73070,1.53991
398.48963,1.53920
398.24856,1.53507
398.00749,1.52687
397.76642,1.51791
397.52535,1.51251
397.28428,1.51070
397.04321,1.50725
396.80214,1.49919
396.56107,1.49253
396.32000,1.49478
396.07892,1.50555
395.83785,1.52123
395.59678,1.53903
395.35571,1.55349
395.11464,1.55693
394.87357,1.54609
394.63250,1.52659
394.39143,1.51028
394.15036,1.50695
393.90929,1.51424
393.66822,1.51987
393.42715,1.51711
393.18608,1.50968
392.94501,1.50171
392.70394,1.49574
392.46287,1.49755
392.22180,1.50776
391.98073,1.51309
391.73965,1.50252
391.49858,1.48790
391.25751,1.48955
391.01644,1.50755
390.77537,1.52226
390.53430,1.52116
390.29323,1.51211
390.05216,1.50925
389.81109,1.51643
389.57002,1.52495
389.32895,1.52168
389.08788,1.50086
388.84681,1.47008
388.60574,1.44384
388.36467,1.43300
388.12360,1.43704
387.88253,1.44300
387.64146,1.43777
387.40038,1.42330
387.15931,1.41186
386.91824,1.41258
386.67717,1.42499
386.43610,1.43850
386.19503,1.44122
385.95396,1.43177
385.71289,1.41887
385.47182,1.41086
385.23075,1.40619
384.98968,1.39703
384.74861,1.37808
384.50754,1.35007
384.26647,1.32336
384.02540,1.30983
383.78433,1.31004
383.54326,1.31251
383.30219,1.30917
383.06111,1.30770
382.82004,1.31687
382.57897,1.32754
382.33790,1.32694
382.09683,1.32129
381.85576,1.32090
381.61469,1.32267
381.37362,1.32082
381.13255,1.31703
380.89148,1.31299
380.65041,1.30521
380.40934,1.29363
380.16827,1.28731
379.92720,1.29412
379.68613,1.31026
379.44506,1.32437
379.20399,1.32982
378.96292,1.32823
378.72184,1.32214
378.48077,1.31197
378.23970,1.30127
377.99863,1.30007
377.75756,1.31657
377.51649,1.34450
377.27542,1.36449
377.03435,1.36531
376.79328,1.35869
376.55221,1.36535
376.31114,1.39137
376.07007,1.41849
375.82900,1.42280
375.58793,1.40463
375.34686,1.38674
375.10579,1.38550
374.86472,1.39572
374.62365,1.40264
374.38257,1.40166
374.14150,1.40093
373.90043,1.40587
373.65936,1.41097
373.41829,1.41069
373.17722,1.40815
372.93615,1.40699
372.69508,1.40433
372.45401,1.39707
372.21294,1.38639
371.97187,1.37375
371.73080,1.35997
371.48973,1.34814
371.24866,1.34326
371.00759,1.34867
370.76652,1.36244
370.52545,1.37574
370.28437,1.37829
370.04330,1.36915
369.80223,1.35793
369.56116,1.35269
369.32009,1.35296
369.07902,1.35513
368.83795,1.35771
368.59688,1.36065
368.35581,1.36403
368.11474,1.36780
367.87367,1.37084
367.63260,1.36920
367.39153,1.35854
367.15046,1.34148
366.90939,1.32836
366.66832,1.32630
366.42725,1.32962
366.18618,1.32649
365.94510,1.31484
365.70403,1.30417
365.46296,1.30074
365.22189,1.30003
364.98082,1.29669
364.73975,1.29355
364.49868,1.29479
364.25761,1.29764
364.01654,1.29653
363.77547,1.29170
363.53440,1.28746
363.29333,1.28491
363.05226,1.28282
362.81119,1.28186
362.57012,1.28221
362.32905,1.28002
362.08798,1.27161
361.84691,1.25944
361.60583,1.25043
361.36476,1.24996
361.12369,1.25893
360.88262,1.27335
360.64155,1.28511
360.40048,1.28691
360.15941,1.27909
359.91834,1.26890
359.67727,1.26239
359.43620,1.25982
359.19513,1.25856
358.95406,1.25752
358.71299,1.25693
358.47192,1.25629
358.23085,1.25475
357.98978,1.25255
357.74871,1.25114
357.50764,1.25185
357.26656,1.25380
357.02549,1.25385
356.78442,1.25075
356.54335,1.24812
356.30228,1.24957
356.06121,1.25296
355.82014,1.25336
355.57907,1.25065
355.33800,1.24984
355.09693,1.25346
354.85586,1.25852
354.61479,1.26177
354.37372,1.26330
354.13265,1.26412
353.89158,1.26478
353.65051,1.26624
353.40944,1.26952
353.16837,1.27469
352.92729,1.27763
352.68622,1.27205
352.44515,1.25749
352.20408,1.24124
351.96301,1.23041
351.72194,1.22602
351.48087,1.22696
351.23980,1.23393
350.99873,1.24548
350.75766,1.25504
350.51659,1.25569
350.27552,1.24622
350.03445,1.23242
349.79338,1.22362
349.55231,1.22583
349.31124,1.23574
349.07017,1.24349
348.82910,1.24331
348.58802,1.23872
348.34695,1.23668
348.10588,1.24055
347.86481,1.24859
347.62374,1.25597
347.38267,1.25899
347.14160,1.25935
346.90053,1.26241
346.65946,1.27022
346.41839,1.27983
346.17732,1.28828
345.93625,1.29430
345.69518,1.29495
345.45411,1.28788
345.21304,1.27781
344.97197,1.27376
344.73090,1.28039
344.48983,1.29412
344.24875,1.30622
344.00768,1.31010
343.76661,1.30636
343.52554,1.29989
343.28447,1.29455
343.04340,1.29274
342.80233,1.29532
342.56126,1.30067
342.32019,1.30639
342.07912,1.31128
341.83805,1.31475
341.59698,1.31756
341.35591,1.32362
341.11484,1.33561
340.87377,1.34874
340.63270,1.35446
340.39163,1.35079
340.15056,1.34381
339.90948,1.34003
339.66841,1.34338
339.42734,1.35722
339.18627,1.37802
338.94520,1.39160
338.70413,1.39073
338.46306,1.38507
338.22199,1.38354
337.98092,1.38308
337.73985,1.37862
337.49878,1.37299
337.25771,1.37300
337.01664,1.37990
336.77557,1.38594
336.53450,1.38197
336.29343,1.36888
336.05236,1.35622
335.81129,1.35084
335.57021,1.35293
335.32914,1.35810
335.08807,1.36038
334.84700,1.35872
334.60593,1.35804
334.36486,1.36121
334.12379,1.36618
333.88272,1.37036
333.64165,1.37171
333.40058,1.36664
333.15951,1.35324
332.91844,1.33607
332.67737,1.32288
332.43630,1.31712
332.19523,1.31827
331.95416,1.32478
331.71309,1.33197
331.47202,1.33554
331.23094,1.33873
330.98987,1.34685
330.74880,1.35643
330.50773,1.36012
330.26666,1.35742
330.02559,1.34957
329.78452,1.33251
329.54345,1.30732
329.30238,1.28586
329.06131,1.27767
328.82024,1.28058
328.57917,1.28561
328.33810,1.28571
328.09703,1.28007
327.85596,1.27465
327.61489,1.27704
327.37382,1.28374
327.13275,1.28219
326.89167,1.27115
326.65060,1.26092
326.40953,1.25500
326.16846,1.24994
325.92739,1.24914
325.68632,1.25986
325.44525,1.27882
325.20418,1.29269
324.96311,1.29369
324.72204,1.28681
324.48097,1.27989
324.23990,1.27434
323.99883,1.26991
323.75776,1.27075
323.51669,1.27966
323.27562,1.28936
323.03455,1.28993
322.79348,1.28492
322.55240,1.28434
322.31133,1.28816
322.07026,1.29259
321.82919,1.30080
321.58812,1.31310
321.34705,1.31959
321.10598,1.31342
320.86491,1.29919
320.62384,1.28510
320.38277,1.27916
320.14170,1.28630
319.90063,1.30120
319.65956,1.31048
319.41849,1.30767
319.17742,1.30282
318.93635,1.30909
318.69528,1.32433
318.45421,1.33605
318.21313,1.34074
317.97206,1.34290
317.73099,1.33963
317.48992,1.32568
317.24885,1.30769
317.00778,1.29764
316.76671,1.30214
316.52564,1.31903
316.28457,1.33584
316.04350,1.34121
315.80243,1.33873
315.56136,1.33807
315.32029,1.34113
315.07922,1.34417
314.83815,1.34555
314.59708,1.34889
314.35601,1.35864
314.11494,1.37469
313.87386,1.38923
313.63279,1.39103
313.39172,1.37794
313.15065,1.35914
312.90958,1.34175
312.66851,1.33022
312.42744,1.32849
312.18637,1.33694
311.94530,1.35234
311.70423,1.36931
311.46316,1.38041
311.22209,1.38037
310.98102,1.37260
310.73995,1.36582
310.49888,1.36449
310.25781,1.36616
310.01674,1.36814
309.77567,1.37159
309.53459,1.37714
309.29352,1.38403
309.05245,1.39494
308.81138,1.40936
308.57031,1.41480
308.32924,1.40359
308.08817,1.38632
307.84710,1.37671
307.60603,1.37617
307.36496,1.37879
307.12389,1.38319
306.88282,1.39028
306.64175,1.39550
306.40068,1.39310
306.15961,1.38538
305.91854,1.37911
305.67747,1.37480
305.43640,1.36885
305.19532,1.36033
304.95425,1.34979
304.71318,1.33847
304.47211,1.32900
304.23104,1.32292
303.98997,1.31871
303.74890,1.31546
303.50783,1.31639
303.26676,1.32339
303.02569,1.33179
302.78462,1.33541
302.54355,1.33302
302.30248,1.32740
302.06141,1.32219
301.82034,1.32019
301.57927,1.32079
301.33820,1.31954
301.09713,1.31277
300.85605,1.30175
300.61498,1.29040
300.37391,1.28042
300.13284,1.27102
299.89177,1.26277
299.65070,1.25820
299.40963,1.25755
299.16856,1.25701
298.92749,1.25328
298.68642,1.24745
298.44535,1.24313
298.20428,1.24294
297.96321,1.24641
297.72214,1.24989
297.48107,1.24990
297.24000,1.24678
296.99893,1.24282
296.75786,1.23861
296.51678,1.23369
296.27571,1.22924
296.03464,1.22723
295.79357,1.22732
295.55250,1.22662
295.31143,1.22158
295.07036,1.21172
294.82929,1.20187
294.58822,1.19785
294.34715,1.19994
294.10608,1.20210
293.86501,1.19892
293.62394,1.19106
293.38287,1.18220
293.14180,1.17468
292.90073,1.16947
292.65966,1.16791
292.41859,1.17129
292.17751,1.17769
291.93644,1.18081
291.69537,1.17583
291.45430,1.16534
291.21323,1.15652
290.97216,1.15347
290.73109,1.15348
290.49002,1.15075
290.24895,1.14415
290.00788,1.13843
289.76681,1.13774
289.52574,1.14151
289.28467,1.14628
289.04360,1.14876
288.80253,1.14689
288.56146,1.14065
288.32039,1.13325
288.07932,1.12947
287.83824,1.13071
287.59717,1.13289
287.35610,1.13148
287.11503,1.12727
286.87396,1.12455
286.63289,1.12500
286.39182,1.12629
286.15075,1.12543
285.90968,1.12196
285.66861,1.11779
285.42754,1.11434
285.18647,1.11077
284.94540,1.10617
284.70433,1.10258
284.46326,1.10288
284.22219,1.10627
283.98112,1.10888
283.74005,1.10829
283.49897,1.10504
283.25790,1.10122
283.01683,1.09932
282.77576,1.10097
282.53469,1.10576
282.29362,1.11150
282.05255,1.11570
281.81148,1.11742
281.57041,1.11791
281.32934,1.11903
281.08827,1.12066
280.84720,1.12063
280.60613,1.11784
280.36506,1.11490
280.12399,1.11515
279.88292,1.11733
279.64185,1.11711
279.40078,1.11461
279.15970,1.11488
278.91863,1.12001
278.67756,1.12543
278.43649,1.12565
278.19542,1.12096
277.95435,1.11601
277.71328,1.11364
277.47221,1.11312
277.23114,1.11308
276.99007,1.11303
276.74900,1.11221
276.50793,1.11020
276.26686,1.10847
276.02579,1.10885
275.78472,1.11112
275.54365,1.11415
275.30258,1.11779
275.06151,1.12225
274.82043,1.12640
274.57936,1.12808
274.33829,1.12622
274.09722,1.12199
273.85615,1.11793
273.61508,1.11594
273.37401,1.11624
273.13294,1.11855
272.89187,1.12381
272.65080,1.13216
272.40973,1.14006
272.16866,1.14343
271.92759,1.14364
271.68652,1.14533
271.44545,1.14900
271.20438,1.15090
270.96331,1.14881
270.72224,1.14380
270.48116,1.13855
270.24009,1.13693
269.99902,1.14155
269.75795,1.14973
269.51688,1.15514
269.27581,1.15527
269.03474,1.15449
268.79367,1.15755
268.55260,1.16461
268.31153,1.17381
268.07046,1.18443
267.82939,1.19520
267.58832,1.20299
267.34725,1.20673
267.10618,1.20966
266.86511,1.21397
266.62404,1.21749
266.38297,1.21869
266.14189,1.22028
265.90082,1.22515
265.65975,1.23269
265.41868,1.24080
265.17761,1.24876
264.93654,1.25777
264.69547,1.26995
264.45440,1.28612
264.21333,1.30355
263.97226,1.31669
263.73119,1.32120
263.49012,1.31887
263.24905,1.31852
263.00798,1.32713
262.76691,1.34212
262.52584,1.35709
262.28477,1.37248
262.04370,1.39368
261.80262,1.41989
261.56155,1.44381
261.32048,1.46141
261.07941,1.47434
260.83834,1.48430
260.59727,1.49273
260.35620,1.50329
260.11513,1.51940
259.87406,1.54406
259.63299,1.57994
259.39192,1.62593
259.15085,1.67159
258.90978,1.70204
258.66871,1.71595
258.42764,1.72471
258.18657,1.73713
257.94550,1.75636
257.70443,1.78656
257.46335,1.83063
257.22228,1.87073
256.98121,1.86985
256.74014,1.84307
256.49907,1.83067
256.25800,1.83985
256.01693,1.84955
255.77586,1.83700
255.53479,1.80634
255.29372,1.77287
255.05265,1.74329
254.81158,1.71584
254.57051,1.69109
254.32944,1.67763
254.08837,1.68258
253.84730,1.69975
253.60623,1.71025
253.36516,1.69967
253.12408,1.67105
252.88301,1.63753
252.64194,1.61037
252.40087,1.59472
252.15980,1.59070
251.91873,1.59507
251.67766,1.60236
251.43659,1.60674
251.19552,1.60514
250.95445,1.59848
250.71338,1.59139
250.47231,1.58430
250.23124,1.57163
249.99017,1.55736
249.74910,1.55284
249.50803,1.56065
249.26696,1.57304
249.02589,1.58022
248.78481,1.57751
248.54374,1.56668
248.30267,1.55563
248.06160,1.55387
247.82053,1.56296
247.57946,1.57450
247.33839,1.58062
247.09732,1.58484
246.85625,1.59742
246.61518,1.62152
246.37411,1.65022
246.13304,1.67584
245.89197,1.69493
245.65090,1.70332
245.40983,1.69950
245.16876,1.69766
244.92769,1.71826
244.68661,1.76146
244.44554,1.80372
244.20447,1.82940
243.96340,1.85102
243.72233,1.88147
243.48126,1.91799
243.24019,1.96091
242.99912,2.01357
242.75805,2.03160
242.51698,1.92846
242.27591,1.81678
242.03484,1.73847
241.79377,1.67462
241.55270,1.61144
241.31163,1.54714
241.07056,1.48535
240.82949,1.43073
240.58842,1.38404
240.34734,1.34034
240.10627,1.29523
239.86520,1.25142
239.62413,1.21535
239.38306,1.18907
239.14199,1.16857
238.90092,1.14913
238.65985,1.12982
238.41878,1.11226
238.17771,1.09704
237.93664,1.08269
237.69557,1.06704
237.45450,1.04920
237.21343,1.03060
236.97236,1.01397
236.73129,1.00080
236.49022,0.98999
236.24915,0.97937
236.00807,0.96878
235.76700,0.96038
235.52593,0.95515
235.28486,0.95140
235.04379,0.94706
234.80272,0.94106
234.56165,0.93315
234.32058,0.92455
234.07951,0.91753
233.83844,0.91300
233.59737,0.90951
233.35630,0.90583
233.11523,0.90237
232.87416,0.89916
232.63309,0.89480
232.39202,0.88905
232.15095,0.88354
231.90988,0.87899
231.66880,0.87418
231.42773,0.86881
231.18666,0.86490
230.94559,0.86398
230.70452,0.86486
230.46345,0.86537
230.22238,0.86475
229.98131,0.86356
229.74024,0.86237
229.49917,0.86084
229.25810,0.85811
229.01703,0.85437
228.77596,0.85134
228.53489,0.85002
228.29382,0.84914
228.05275,0.84689
227.81168,0.84325
227.57061,0.83993
227.32953,0.83827
227.08846,0.83719
226.84739,0.83411
226.60632,0.82854
226.36525,0.82325
226.12418,0.82037
225.88311,0.81921
225.64204,0.81909
225.40097,0.82070
225.15990,0.82353
224.91883,0.82558
224.67776,0.82599
224.43669,0.82539
224.19562,0.82419
223.95455,0.82267
223.71348,0.82227
223.47241,0.82444
223.23134,0.82852
222.99026,0.83286
222.74919,0.83771
222.50812,0.84476
222.26705,0.85362
222.02598,0.86130
221.78491,0.86554
221.54384,0.86667
221.30277,0.86651
221.06170,0.86693
220.82063,0.86899
220.57956,0.87287
220.33849,0.87899
220.09742,0.88784
219.85635,0.89811
219.61528,0.90748
219.37421,0.91579
219.13314,0.92468
218.89207,0.93463
218.65099,0.94529
218.40992,0.95720
218.16885,0.96974
217.92778,0.97942
217.68671,0.98353
217.44564,0.98438
217.20457,0.98736
216.96350,0.99571
216.72243,1.00890
216.48136,1.02528
216.24029,1.04346
215.99922,1.06156
215.75815,1.07783
215.51708,1.09217
215.27601,1.10491
215.03494,1.11461
214.79387,1.11990
214.55280,1.12283
214.31172,1.12729
214.07065,1.13470
213.82958,1.14435
213.58851,1.15659
213.34744,1.17261
213.10637,1.19125
212.86530,1.20830
212.62423,1.21924
212.38316,1.22300
212.14209,1.22301
211.90102,1.22271
211.65995,1.22171
211.41888,1.21881
211.17781,1.21475
210.93674,1.21130
210.69567,1.20987
210.45460,1.21122
210.21353,1.21459
209.97245,1.21652
209.73138,1.21346
209.49031,1.20592
209.24924,1.19774
209.00817,1.19304
208.76710,1.19301
208.52603,1.19438
208.28496,1.19271
208.04389,1.18714
207.80282,1.17976
207.56175,1.17204
207.32068,1.16373
207.07961,1.15424
206.83854,1.14449
206.59747,1.13676
206.35640,1.13138
206.11533,1.12521
205.87426,1.11520
205.63318,1.10160
205.39211,1.08666
205.15104,1.07212
204.90997,1.05827
204.66890,1.04466
204.42783,1.03130
204.18676,1.01898
203.94569,1.00845
203.70462,0.99987
203.46355,0.99304
203.22248,0.98708
202.98141,0.97984
202.74034,0.96903
202.49927,0.95428
202.25820,0.93783
202.01713,0.92285
201.77606,0.91100
201.53499,0.90107
201.29391,0.89060
201.05284,0.87880
200.81177,0.86656
200.57070,0.85449
200.32963,0.84296
200.08856,0.83267
199.84749,0.82405
199.60642,0.81651
199.36535,0.80851
199.12428,0.79844
198.88321,0.78629
198.64214,0.77427
198.40107,0.76477
198.16000,0.75800
197.91893,0.75210
197.67786,0.74527
197.43679,0.73705
197.19572,0.72802
196.95464,0.71933
196.71357,0.71230
196.47250,0.70737
196.23143,0.70331
195.99036,0.69798
195.74929,0.68979
195.50822,0.67890
195.26715,0.66783
195.02608,0.66012
194.78501,0.65721
194.54394,0.65676
194.30287,0.65465
194.06180,0.64906
193.82073,0.64210
193.57966,0.63692
193.33859,0.63437
193.09752,0.63253
192.85645,0.62897
192.61537,0.62356
192.37430,0.61826
192.13323,0.61448
191.89216,0.61198
191.65109,0.60965
191.41002,0.60629
191.16895,0.60174
190.92788,0.59729
190.68681,0.59430
190.44574,0.59240
190.20467,0.59010
189.96360,0.58682
189.72253,0.58296
189.48146,0.57884
189.24039,0.57479
188.99932,0.57168
188.75825,0.57023
188.51718,0.57014
188.27610,0.57014
188.03503,0.56880
187.79396,0.56570
187.55289,0.56250
187.31182,0.56173
187.07075,0.56383
186.82968,0.56619
186.58861,0.56610
186.34754,0.56357
186.10647,0.56053
185.86540,0.55840
185.62433,0.55776
185.38326,0.55874
185.14219,0.56082
184.90112,0.56301
184.66005,0.56473
184.41898,0.56599
184.17791,0.56708
183.93683,0.56856
183.69576,0.57070
183.45469,0.57262
183.21362,0.57302
182.97255,0.57220
182.73148,0.57228
182.49041,0.57419
182.24934,0.57564
182.00827,0.57436
181.76720,0.57226
181.52613,0.57295
181.28506,0.57596
181.04399,0.57798
180.80292,0.57836
180.56185,0.57914
180.32078,0.58107
180.07971,0.58364
179.83864,0.58710
179.59756,0.59185
179.35649,0.59682
179.11542,0.60091
178.87435,0.60526
178.63328,0.61179
178.39221,0.62007
178.15114,0.62813
177.91007,0.63595
177.66900,0.64517
177.42793,0.65558
177.18686,0.66582
176.94579,0.67658
176.70472,0.68978
176.46365,0.70578
176.22258,0.72324
175.98151,0.74025
175.74044,0.75587
175.49937,0.77187
175.25829,0.78995
175.01722,0.80753
174.77615,0.82069
174.53508,0.83067
174.29401,0.84171
174.05294,0.85467
173.81187,0.86791
173.57080,0.88174
173.32973,0.89751
173.08866,0.91347
172.84759,0.92516
172.60652,0.93032
172.36545,0.93154
172.12438,0.93326
171.88331,0.93733
171.64224,0.94228
171.40117,0.94625
171.16010,0.94914
170.91902,0.95082
170.67795,0.94947
170.43688,0.94418
170.19581,0.93738
169.95474,0.93153
169.71367,0.92552
169.47260,0.91657
169.23153,0.90411
168.99046,0.89100
168.74939,0.88107
168.50832,0.87589
168.26725,0.87413
168.02618,0.87419
167.78511,0.87572
167.54404,0.87829
167.30297,0.88060
167.06190,0.88186
166.82083,0.88220
166.57975,0.88217
166.33868,0.88268
166.09761,0.88472
165.85654,0.88866
165.61547,0.89430
165.37440,0.90103
165.13333,0.90815
164.89226,0.91519
164.65119,0.92207
164.41012,0.92897
164.16905,0.93668
163.92798,0.94631
163.68691,0.95760
163.44584,0.96812
163.20477,0.97545
162.96370,0.97967
162.72263,0.98258
162.48156,0.98503
162.24048,0.98662
161.99941,0.98716
161.75834,0.98737
161.51727,0.98858
161.27620,0.99244
161.03513,0.99942
160.79406,1.00717
160.55299,1.01160
160.31192,1.00918
160.07085,0.99863
159.82978,0.98326
159.58871,0.97032
159.34764,0.96430
159.10657,0.96251
158.86550,0.96004
158.62443,0.95642
158.38336,0.95425
158.14229,0.95384
157.90121,0.95230
157.66014,0.94659
157.41907,0.93657
157.17800,0.92549
156.93693,0.91689
156.69586,0.91185
156.45479,0.90992
156.21372,0.91011
155.97265,0.90987
155.73158,0.90612
155.49051,0.89869
155.24944,0.89014
155.00837,0.88234
154.76730,0.87488
154.52623,0.86618
154.28516,0.85520
154.04409,0.84292
153.80302,0.83154
153.56194,0.82139
153.32087,0.80976
153.07980,0.79437
152.83873,0.77650
152.59766,0.75898
152.35659,0.74292
152.11552,0.72805
151.87445,0.71428
151.63338,0.70131
151.39231,0.68843
151.15124,0.67550
150.91017,0.66297
150.66910,0.65063
150.42803,0.63815
150.18696,0.62637
149.94589,0.61628
149.70482,0.60735
149.46375,0.59852
149.22267,0.58988
148.98160,0.58199
148.74053,0.57475
148.49946,0.56803
148.25839,0.56283
148.01732,0.56024
147.77625,0.55937
147.53518,0.55766
147.29411,0.55394
147.05304,0.55033
146.81197,0.54993
146.57090,0.55332
146.32983,0.55773
146.08876,0.55976
145.84769,0.55865
145.60662,0.55698
145.36555,0.55839
145.12448,0.56458
144.88340,0.57391
144.64233,0.58264
144.40126,0.58806
144.16019,0.59069
143.91912,0.59266
143.67805,0.59442
143.43698,0.59447
143.19591,0.59171
142.95484,0.58639
142.71377,0.57876
142.47270,0.56869
142.23163,0.55693
141.99056,0.54552
141.74949,0.53649
141.50842,0.53031
141.26735,0.52543
141.02628,0.51989
140.78521,0.51347
140.54413,0.50794
140.30306,0.50515
140.06199,0.50533
139.82092,0.50708
139.57985,0.50905
139.33878,0.51149
139.09771,0.51558
138.85664,0.52125
138.61557,0.52692
138.37450,0.53200
138.13343,0.53847
137.89236,0.54847
137.65129,0.56104
137.41022,0.57306
137.16915,0.58355
136.92808,0.59501
136.68701,0.60972
136.44594,0.62740
136.20486,0.64712
135.96379,0.66875
135.72272,0.69156
135.48165,0.71431
135.24058,0.73761
134.99951,0.76396
134.75844,0.79423
134.51737,0.82573
134.27630,0.85547
134.03523,0.88403
133.79416,0.91399
133.55309,0.94634
133.31202,0.98129
133.07095,1.01909
132.82988,1.05589
132.58881,1.08336
132.34774,1.09705
132.10667,1.09999
131.86559,1.09771
131.62452,1.09498
131.38345,1.09443
131.14238,1.09421
130.90131,1.09098
130.66024,1.08522
130.41917,1.07854
130.17810,1.06852
129.93703,1.05057
129.69596,1.02299
129.45489,0.98859
129.21382,0.95340
128.97275,0.92202
128.73168,0.89326
128.49061,0.86264
128.24954,0.82928
128.00847,0.79661
127.76740,0.76764
127.52632,0.74249
127.28525,0.71942
127.04418,0.69651
126.80311,0.67335
126.56204,0.65089
126.32097,0.62952
126.07990,0.60890
125.83883,0.58959
125.59776,0.57279
125.35669,0.55843
125.11562,0.54519
124.87455,0.53264
124.63348,0.52150
124.39241,0.51178
124.15134,0.50232
123.91027,0.49283
123.66920,0.48465
123.42812,0.47866
123.18705,0.47401
122.94598,0.46969
122.70491,0.46602
122.46384,0.46375
122.22277,0.46267
121.98170,0.46183
121.74063,0.46089
121.49956,0.46064
121.25849,0.46204
121.01742,0.46548
120.77635,0.47094
120.53528,0.47839
120.29421,0.48725
120.05314,0.49648
119.81207,0.50603
119.57100,0.51754
119.32993,0.53288
119.08885,0.55298
118.84778,0.57770
118.60671,0.60569
118.36564,0.63424
118.12457,0.66064
117.88350,0.68411
117.64243,0.70571
117.40136,0.72622
117.16029,0.74550
116.91922,0.76255
116.67815,0.77451
116.43708,0.77755
116.19601,0.77203
115.95494,0.76357
115.71387,0.75641
115.47280,0.74952
115.23173,0.74059
114.99066,0.73053
114.74958,0.72216
114.50851,0.71641
114.26744,0.71183
114.02637,0.70669
113.78530,0.70033
113.54423,0.69288
113.30316,0.68502
113.06209,0.67833
112.82102,0.67475
112.57995,0.67458
112.33888,0.67619
112.09781,0.67825
111.85674,0.68124
111.61567,0.68617
111.37460,0.69254
111.13353,0.69829
110.89246,0.70236
110.65139,0.70672
110.41031,0.71302
110.16924,0.71801
109.92817,0.71592
109.68710,0.70465
109.44603,0.68652
109.20496,0.66426
108.96389,0.63983
108.72282,0.61610
108.48175,0.59649
108.24068,0.58255
107.99961,0.57296
107.75854,0.56486
107.51747,0.55568
107.27640,0.54332
107.03533,0.52602
106.79426,0.50385
106.55319,0.48033
106.31212,0.46050
106.07104,0.44699
105.82997,0.43854
105.58890,0.43195
105.34783,0.42504
105.10676,0.41779
104.86569,0.41089
104.62462,0.40330
104.38355,0.39280
104.14248,0.37923
103.90141,0.36563
103.66034,0.35524
103.41927,0.34857
103.17820,0.34399
102.93713,0.34019
102.69606,0.33687
102.45499,0.33360
102.21392,0.32935
101.97285,0.32364
101.73177,0.31722
101.49070,0.31124
101.24963,0.30653
101.00856,0.30353
100.76749,0.30224
100.52642,0.30189
100.28535,0.30086
100.04428,0.29776
99.80321,0.29275
99.56214,0.28766
99.32107,0.28456
99.08000,0.28449
98.83893,0.28679
98.59786,0.28871
98.35679,0.28691
98.11572,0.28124
97.87465,0.27582
97.63358,0.27506
97.39250,0.27977
97.15143,0.28606
96.91036,0.28817
96.66929,0.28470
96.42822,0.28122
96.18715,0.28424
95.94608,0.29386
95.70501,0.30369
95.46394,0.30803
95.22287,0.30874
94.98180,0.31196
94.74073,0.31963
94.49966,0.32745
94.25859,0.33037
94.01752,0.32849
93.77645,0.32622
93.53538,0.32693
93.29431,0.32989
93.05323,0.33182
92.81216,0.33142
92.57109,0.33139
92.33002,0.33369
92.08895,0.33552
91.84788,0.33406
91.60681,0.33294
91.36574,0.33793
91.12467,0.34912
90.88360,0.36219
90.64253,0.37709
90.40146,0.39954
90.16039,0.43141
89.91932,0.46648
89.67825,0.50053
89.43718,0.53931
89.19611,0.58609
88.95504,0.63148
88.71396,0.66730
88.47289,0.69606
88.23182,0.71381
87.99075,0.70826
87.74968,0.68020
87.50861,0.64302
87.26754,0.60566
87.02647,0.57054
86.78540,0.53772
86.54433,0.50609
86.30326,0.47549
86.06219,0.44711
85.82112,0.42117
85.58005,0.39717
85.33898,0.37550
85.09791,0.35629
84.85684,0.33869
84.61577,0.32290
84.37469,0.31004
84.13362,0.29962
83.89255,0.28972
83.65148,0.27995
83.41041,0.27173
83.16934,0.26538
82.92827,0.25962
82.68720,0.25361
82.44613,0.24743
82.20506,0.24088
81.96399,0.23385
81.72292,0.22750
81.48185,0.22305
81.24078,0.22040
80.99971,0.21855
80.75864,0.21671
80.51757,0.21463
80.27650,0.21229
80.03542,0.20970
79.79435,0.20736
79.55328,0.20621
79.31221,0.20639
79.07114,0.20674
78.83007,0.20636
78.58900,0.20563
78.34793,0.20504
78.10686,0.20388
77.86579,0.20104
77.62472,0.19621
77.38365,0.19039
77.14258,0.18546
76.90151,0.18278
76.66044,0.18211
76.41937,0.18205
76.17830,0.18182
75.93723,0.18187
75.69615,0.18244
75.45508,0.18229
75.21401,0.18016
74.97294,0.17728
74.73187,0.17652
74.49080,0.17888
74.24973,0.18208
74.00866,0.18326
73.76759,0.18222
73.52652,0.18088
73.28545,0.18050
73.04438,0.18082
72.80331,0.18072
72.56224,0.17889
72.32117,0.17520
72.08010,0.17181
71.83903,0.17156
71.59796,0.17535
71.35688,0.18145
71.11581,0.18660
70.87474,0.18800
70.63367,0.18595
70.39260,0.18469
70.15153,0.18939
69.91046,0.20157
69.66939,0.21810
69.42832,0.23350
69.18725,0.24252
68.94618,0.24300
68.70511,0.23741
68.46404,0.23004
68.22297,0.22273
67.98190,0.21488
67.74083,0.20642
67.49976,0.19836
67.25869,0.19084
67.01761,0.18267
66.77654,0.17282
66.53547,0.16154
66.29440,0.15011
66.05333,0.14053
65.81226,0.13508
65.57119,0.13562
65.33012,0.14285
65.08905,0.15607
64.84798,0.17356
64.60691,0.19357
64.36584,0.21405
64.12477,0.23119
63.88370,0.24068
63.64263,0.24111
63.40156,0.23481
63.16049,0.22520
62.91942,0.21517
62.67834,0.20677
62.43727,0.20072
62.19620,0.19646
61.95513,0.19318
61.71406,0.19031
61.47299,0.18701
61.23192,0.18241
60.99085,0.17668
60.74978,0.17136
60.50871,0.16836
60.26764,0.16836
60.02657,0.16967
59.78550,0.16909
59.54443,0.16474
59.30336,0.15784
59.06229,0.15053
58.82122,0.14316
58.58015,0.13528
58.33907,0.12781
58.09800,0.12291
57.85693,0.12243
57.61586,0.12662
57.37479,0.13358
57.13372,0.14048
56.89265,0.14618
56.65158,0.15177
56.41051,0.15851
56.16944,0.16634
55.92837,0.17395
55.68730,0.17928
55.44623,0.18040
55.20516,0.17656
54.96409,0.16804
54.72302,0.15593
54.48195,0.14298
54.24088,0.13382
53.99980,0.13273
53.75873,0.14160
53.51766,0.16020
53.27659,0.18657
53.03552,0.21418
52.79445,0.22974
52.55338,0.22287
52.31231,0.19910
52.07124,0.17144
51.83017,0.14888
51.58910,0.13752
51.34803,0.14162
51.10696,0.16116
50.86589,0.19137
50.62482,0.22136
50.38375,0.23064
50.14268,0.20709
49.90161,0.16931
49.66053,0.14262
49.41946,0.14275
49.17839,0.17459
48.93732,0.21639
48.69625,0.21660
48.45518,0.17339
48.21411,0.13816
47.97304,0.13656
47.73197,0.16947
47.49090,0.21112
47.24983,0.20758
47.00876,0.16473
46.76769,0.13695
46.52662,0.14067
46.28555,0.15454
46.04448,0.14848
45.80341,0.13197
45.56234,0.13557
45.32126,0.15710
45.08019,0.16180
44.83912,0.15061
44.59805,0.15715
44.35698,0.17932
44.11591,0.18555
43.87484,0.17433
43.63377,0.17170
43.39270,0.18018
43.15163,0.18596
42.91056,0.18813
42.66949,0.19177
42.42842,0.19558
42.18735,0.19913
41.94628,0.20229
41.70521,0.20300
41.46414,0.20349
41.22307,0.20616
40.98199,0.20677
40.74092,0.20202
40.49985,0.19786
40.25878,0.20226
40.01771,0.21494
39.77664,0.22821
39.53557,0.23543
39.29450,0.23642
39.05343,0.23602
38.81236,0.23979
38.57129,0.24937
38.33022,0.25973
38.08915,0.26361
37.84808,0.26033
37.60701,0.25496
37.36594,0.25017
37.12487,0.24520
36.88380,0.24042
36.64272,0.23970
36.40165,0.24650
36.16058,0.25757
35.91951,0.26247
35.67844,0.25543
35.43737,0.24538
35.19630,0.24501
34.95523,0.25483
34.71416,0.26206
34.47309,0.25560
34.23202,0.23946
33.99095,0.22476
33.74988,0.21429
33.50881,0.20628
33.26774,0.20456
33.02667,0.21061
32.78560,0.22033
32.54453,0.23150
32.30345,0.24219
32.06238,0.24824
31.82131,0.24622
31.58024,0.23507
31.33917,0.21534
31.09810,0.19051
30.85703,0.16643
30.61596,0.14847
30.37489,0.13725
30.13382,0.12776
29.89275,0.11723
29.65168,0.10939
29.41061,0.10596
29.16954,0.10239
28.92847,0.09440
28.68740,0.08091
28.44633,0.06053
28.20526,0.03232
27.96418,0.00183
27.72311,-0.01752
27.48204,-0.01555
27.24097,0.00089
26.99990,0.01025
26.75883,-0.00482
26.51776,-0.04310
26.27669,-0.08861
26.03562,-0.12163
25.79455,-0.13216
25.55348,-0.12794
25.31241,-0.12131
25.07134,-0.11417
24.83027,-0.10323
24.58920,-0.09252
24.34813,-0.08939
24.10706,-0.09414
23.86599,-0.10495
23.62491,-0.12488
23.38384,-0.15463
23.14277,-0.18735
22.90170,-0.21438
22.66063,-0.22708
22.41956,-0.22293
22.17849,-0.21293
21.93742,-0.20864
21.69635,-0.21491
21.45528,-0.22944
21.21421,-0.24638
20.97314,-0.26782
20.73207,-0.30095
20.49100,-0.33998
20.24993,-0.36464
20.00886,-0.36728
19.76779,-0.36523
19.52672,-0.36800
19.28564,-0.37004
19.04457,-0.37345
18.80350,-0.38345
18.56243,-0.39470
18.32136,-0.39790
18.08029,-0.39517
17.83922,-0.39324
17.59815,-0.39282
17.35708,-0.39253
17.11601,-0.38219
16.87494,-0.35664
16.63387,-0.33476
16.39280,-0.33510
16.15173,-0.36126
15.91066,-0.40184
15.66959,-0.42904
15.42852,-0.41414
15.18745,-0.37868
14.94637,-0.36799
14.70530,-0.38546
14.46423,-0.41138
14.22316,-0.42319
13.98209,-0.41192
13.74102,-0.40270
13.49995,-0.41774
13.25888,-0.44594
13.01781,-0.45995
12.77674,-0.45286
12.53567,-0.43622
12.29460,-0.41186
12.05353,-0.37896
11.81246,-0.35330
11.57139,-0.35305
11.33032,-0.37990
11.08925,-0.41585
10.84818,-0.43733
10.60710,-0.43012
10.36603,-0.40447
10.12496,-0.41338
9.88389,-0.44690
9.64282,-0.47239
9.40175,-0.46378
9.16068,-0.43745
8.91961,-0.42193
8.67854,-0.41516
8.43747,-0.40154
8.19640,-0.38032
7.95533,-0.35855
7.71426,-0.34607
7.47319,-0.35185
7.23212,-0.36622
6.99105,-0.37585
6.74998,-0.38390
6.50891,-0.39762
6.26783,-0.41427
6.02676,-0.42904
5.78569,-0.43868
5.54462,-0.42563
5.30355,-0.39867
5.06248,-0.37693
4.82141,-0.36640
4.58034,-0.37040
4.33927,-0.38423
4.09820,-0.39790
3.85713,-0.41295
3.61606,-0.43281
3.37499,-0.44427
3.13392,-0.43871
2.89285,-0.43979
2.65178,-0.44058
2.41071,-0.42073
2.16964,-0.39572
1.92856,-0.38366
1.68749,-0.38944
1.44642,-0.40591
1.20535,-0.40791
0.96428,-0.39616
0.72321,-0.40743
0.48214,-0.46193
0.24107,-0.45717
-0.00000,-0.10908
