399.69498,1.57606
399.45391,1.56791
399.21284,1.55654
398.97177,1.54166
398.73070,1.52267
398.48963,1.50691
398.24856,1.50729
398.00749,1.52728
397.76642,1.55507
397.52535,1.57487
397.28428,1.58224
397.04321,1.58195
396.80214,1.57918
396.56107,1.57965
396.32000,1.58529
396.07892,1.58975
395.83785,1.58472
395.59678,1.57162
395.35571,1.56113
395.11464,1.56153
394.87357,1.57129
394.63250,1.58010
394.39143,1.58034
394.15036,1.57762
393.90929,1.57987
393.66822,1.58154
393.42715,1.57464
393.18608,1.56091
392.94501,1.54371
392.70394,1.52765
392.46287,1.51999
392.22180,1.52368
391.98073,1.52856
391.73965,1.52333
391.49858,1.51298
391.25751,1.50608
391.01644,1.50458
390.77537,1.50715
390.53430,1.51041
390.29323,1.50731
390.05216,1.49586
389.81109,1.48361
389.57002,1.47632
389.32895,1.47607
389.08788,1.48636
388.84681,1.50911
388.60574,1.53482
388.36467,1.54339
388.12360,1.52612
387.88253,1.50006
387.64146,1.48450
387.40038,1.47790
387.15931,1.46869
386.91824,1.45489
386.67717,1.44977
386.43610,1.46315
386.19503,1.48443
385.95396,1.49981
385.71289,1.50746
385.47182,1.51080
385.23075,1.50654
384.98968,1.48031
384.74861,1.43585
384.50754,1.39720
384.26647,1.37702
384.02540,1.37106
383.78433,1.36645
383.54326,1.35799
383.30219,1.35301
383.06111,1.35570
382.82004,1.36096
382.57897,1.36602
382.33790,1.37058
382.09683,1.36416
381.85576,1.33719
381.61469,1.30892
381.37362,1.30230
381.13255,1.31193
380.89148,1.31582
380.65041,1.30499
380.40934,1.29482
380.16827,1.29797
379.92720,1.30676
379.68613,1.31388
379.44506,1.32260
379.20399,1.33169
378.96292,1.33404
378.72184,1.32908
378.48077,1.32321
378.23970,1.32531
377.99863,1.34238
377.75756,1.36538
377.51649,1.37367
377.27542,1.36397
377.03435,1.35477
376.79328,1.36166
376.55221,1.38204
376.31114,1.40190
376.07007,1.40814
375.82900,1.39689
375.58793,1.38480
375.34686,1.39022
375.10579,1.40670
374.86472,1.41615
374.62365,1.41292
374.38257,1.40890
374.14150,1.41628
373.90043,1.43082
373.65936,1.44547
373.41829,1.45796
373.17722,1.46677
372.93615,1.46972
372.69508,1.46551
372.45401,1.45902
372.21294,1.45578
371.97187,1.45228
371.73080,1.44195
371.48973,1.42821
371.24866,1.42086
371.00759,1.42302
370.76652,1.42580
370.52545,1.41671
370.28437,1.39455
370.04330,1.37118
369.80223,1.35680
369.56116,1.35199
369.32009,1.35417
369.07902,1.36373
368.83795,1.38088
368.59688,1.40127
368.35581,1.41744
368.11474,1.42346
367.87367,1.41857
367.63260,1.40538
367.39153,1.38700
367.15046,1.36786
366.90939,1.35396
366.66832,1.34967
366.42725,1.35560
366.18618,1.36781
365.94510,1.37834
365.70403,1.38096
365.46296,1.37665
365.22189,1.36979
364.98082,1.36157
364.73975,1.35126
364.49868,1.34042
364.25761,1.33234
364.01654,1.32998
363.77547,1.33524
363.53440,1.34643
363.29333,1.35700
363.05226,1.35905
362.81119,1.34994
362.57012,1.33623
362.32905,1.32668
362.08798,1.32261
361.84691,1.31853
361.60583,1.31100
361.36476,1.30317
361.12369,1.29835
360.88262,1.29342
360.64155,1.28445
360.40048,1.27652
360.15941,1.27942
359.91834,1.29433
359.67727,1.31148
359.43620,1.32178
359.19513,1.32452
358.95406,1.32294
358.71299,1.31836
358.47192,1.31004
358.23085,1.29803
357.98978,1.28507
357.74871,1.27521
357.50764,1.27036
357.26656,1.26805
357.02549,1.26569
356.78442,1.26678
356.54335,1.27645
356.30228,1.29189
356.06121,1.30391
355.82014,1.30727
355.57907,1.30399
355.33800,1.29994
355.09693,1.30040
354.85586,1.30272
354.61479,1.29835
354.37372,1.28765
354.13265,1.28085
353.89158,1.28026
353.65051,1.27627
353.40944,1.26484
353.16837,1.25472
352.92729,1.25463
352.68622,1.26422
352.44515,1.27515
352.20408,1.27752
351.96301,1.26939
351.72194,1.25839
351.48087,1.25278
351.23980,1.25489
350.99873,1.26184
350.75766,1.26675
350.51659,1.26306
350.27552,1.25406
350.03445,1.25220
349.79338,1.26271
349.55231,1.27661
349.31124,1.28386
349.07017,1.28509
348.82910,1.28531
348.58802,1.28389
348.34695,1.27750
348.10588,1.26862
347.86481,1.26528
347.62374,1.27219
347.38267,1.28511
347.14160,1.29451
346.90053,1.29372
346.65946,1.28633
346.41839,1.28408
346.17732,1.29279
345.93625,1.30818
345.69518,1.32291
345.45411,1.33016
345.21304,1.32707
344.97197,1.31845
344.73090,1.31275
344.48983,1.31374
344.24875,1.31872
344.00768,1.32548
343.76661,1.33338
343.52554,1.34259
343.28447,1.35532
343.04340,1.36996
342.80233,1.37715
342.56126,1.36964
342.32019,1.35490
342.07912,1.34709
341.83805,1.34940
341.59698,1.35658
341.35591,1.36813
341.11484,1.38521
340.87377,1.40186
340.63270,1.40935
340.39163,1.40805
340.15056,1.40676
339.90948,1.40962
339.66841,1.41158
339.42734,1.40984
339.18627,1.41106
338.94520,1.41956
338.70413,1.42891
338.46306,1.43269
338.22199,1.43094
337.98092,1.42575
337.73985,1.41964
337.49878,1.41920
337.25771,1.43001
337.01664,1.44652
336.77557,1.45896
336.53450,1.46515
336.29343,1.46639
336.05236,1.46091
335.81129,1.44958
335.57021,1.44321
335.32914,1.45308
335.08807,1.47562
334.84700,1.49335
334.60593,1.49223
334.36486,1.47591
334.12379,1.45910
333.88272,1.44947
333.64165,1.44178
333.40058,1.42723
333.15951,1.40798
332.91844,1.39617
332.67737,1.39691
332.43630,1.40307
332.19523,1.40782
331.95416,1.40960
331.71309,1.40509
331.47202,1.38727
331.23094,1.35788
330.98987,1.33398
330.74880,1.32703
330.50773,1.32636
330.26666,1.31427
330.02559,1.29282
329.78452,1.27867
329.54345,1.27823
329.30238,1.28357
329.06131,1.28776
328.82024,1.29240
328.57917,1.30066
328.33810,1.31332
328.09703,1.32817
327.85596,1.33686
327.61489,1.33168
327.37382,1.31729
327.13275,1.30333
326.89167,1.29306
326.65060,1.28869
326.40953,1.29629
326.16846,1.31705
325.92739,1.33909
325.68632,1.34456
325.44525,1.32775
325.20418,1.30159
324.96311,1.28649
324.72204,1.29512
324.48097,1.32128
324.23990,1.34221
323.99883,1.34202
323.75776,1.33055
323.51669,1.32363
323.27562,1.32016
323.03455,1.31485
322.79348,1.31364
322.55240,1.32247
322.31133,1.33801
322.07026,1.35231
321.82919,1.35766
321.58812,1.34917
321.34705,1.33007
321.10598,1.31184
320.86491,1.30249
320.62384,1.30134
320.38277,1.30598
320.14170,1.31806
319.90063,1.33537
319.65956,1.34099
319.41849,1.32399
319.17742,1.30326
318.93635,1.30495
318.69528,1.33356
318.45421,1.36870
318.21313,1.38600
317.97206,1.38215
317.73099,1.36897
317.48992,1.35385
317.24885,1.34067
317.00778,1.33643
316.76671,1.34231
316.52564,1.34708
316.28457,1.34151
316.04350,1.33169
315.80243,1.33105
315.56136,1.34507
315.32029,1.36465
315.07922,1.37312
314.83815,1.36561
314.59708,1.35200
314.35601,1.33915
314.11494,1.32936
313.87386,1.32533
313.63279,1.32750
313.39172,1.33484
313.15065,1.34879
312.90958,1.36645
312.66851,1.37755
312.42744,1.37986
312.18637,1.38281
311.94530,1.39074
311.70423,1.39879
311.46316,1.40514
311.22209,1.41241
310.98102,1.41997
310.73995,1.42676
310.49888,1.43252
310.25781,1.42880
310.01674,1.41109
309.77567,1.39619
309.53459,1.40001
309.29352,1.41892
309.05245,1.43612
308.81138,1.43917
308.57031,1.42993
308.32924,1.41908
308.08817,1.41889
307.84710,1.43523
307.60603,1.45896
307.36496,1.47126
307.12389,1.46461
306.88282,1.45071
306.64175,1.44024
306.40068,1.43047
306.15961,1.41756
305.91854,1.40560
305.67747,1.39571
305.43640,1.38396
305.19532,1.37467
304.95425,1.37403
304.71318,1.37843
304.47211,1.38022
304.23104,1.37663
303.98997,1.37265
303.74890,1.37417
303.50783,1.37923
303.26676,1.38089
303.02569,1.37974
302.78462,1.38378
302.54355,1.39252
302.30248,1.39259
302.06141,1.37616
301.82034,1.35298
301.57927,1.33607
301.33820,1.32745
301.09713,1.32058
300.85605,1.31057
300.61498,1.30175
300.37391,1.30312
300.13284,1.31710
299.89177,1.33561
299.65070,1.34524
299.40963,1.33874
299.16856,1.32230
298.92749,1.30844
298.68642,1.30531
298.44535,1.31113
298.20428,1.31789
297.96321,1.31875
297.72214,1.30974
297.48107,1.29153
297.24000,1.27194
296.99893,1.26037
296.75786,1.25936
296.51678,1.26374
296.27571,1.26695
296.03464,1.26611
295.79357,1.26173
295.55250,1.25673
295.31143,1.25514
295.07036,1.25752
294.82929,1.25899
294.58822,1.25481
294.34715,1.24482
294.10608,1.23284
293.86501,1.22451
293.62394,1.22195
293.38287,1.22204
293.14180,1.22152
292.90073,1.22087
292.65966,1.22153
292.41859,1.22130
292.17751,1.21614
291.93644,1.20667
291.69537,1.19839
291.45430,1.19516
291.21323,1.19586
290.97216,1.19728
290.73109,1.19682
290.49002,1.19315
290.24895,1.18786
290.00788,1.18558
289.76681,1.18991
289.52574,1.19829
289.28467,1.20333
289.04360,1.20103
288.80253,1.19448
288.56146,1.18839
288.32039,1.18377
288.07932,1.17900
287.83824,1.17410
287.59717,1.17047
287.35610,1.16775
287.11503,1.16539
286.87396,1.16549
286.63289,1.17030
286.39182,1.17655
286.15075,1.17708
285.90968,1.16984
285.66861,1.16013
285.42754,1.15517
285.18647,1.15741
284.94540,1.16244
284.70433,1.16457
284.46326,1.16368
284.22219,1.16285
283.98112,1.16120
283.74005,1.15525
283.49897,1.14757
283.25790,1.14575
283.01683,1.15032
282.77576,1.15208
282.53469,1.14582
282.29362,1.13963
282.05255,1.14355
281.81148,1.15601
281.57041,1.16690
281.32934,1.17026
281.08827,1.16834
280.84720,1.16470
280.60613,1.15975
280.36506,1.15294
280.12399,1.14658
279.88292,1.14577
279.64185,1.15287
279.40078,1.16331
279.15970,1.17000
278.91863,1.17145
278.67756,1.17105
278.43649,1.17022
278.19542,1.16812
277.95435,1.16456
277.71328,1.15923
277.47221,1.15193
277.23114,1.14510
276.99007,1.14267
276.74900,1.14522
276.50793,1.14913
276.26686,1.15163
276.02579,1.15364
275.78472,1.15600
275.54365,1.15694
275.30258,1.15533
275.06151,1.15257
274.82043,1.15042
274.57936,1.15047
274.33829,1.15474
274.09722,1.16319
273.85615,1.17126
273.61508,1.17375
273.37401,1.17026
273.13294,1.16428
272.89187,1.15854
272.65080,1.15368
272.40973,1.15075
272.16866,1.15154
271.92759,1.15547
271.68652,1.15946
271.44545,1.16210
271.20438,1.16504
270.96331,1.16967
270.72224,1.17602
270.48116,1.18426
270.24009,1.19352
269.99902,1.20074
269.75795,1.20336
269.51688,1.20222
269.27581,1.20036
269.03474,1.20040
268.79367,1.20324
268.55260,1.20874
268.31153,1.21686
268.07046,1.22650
267.82939,1.23409
267.58832,1.23699
267.34725,1.23702
267.10618,1.23788
266.86511,1.24135
266.62404,1.24676
266.38297,1.25195
266.14189,1.25534
265.90082,1.25869
265.65975,1.26598
265.41868,1.27866
265.17761,1.29263
264.93654,1.30100
264.69547,1.30139
264.45440,1.30075
264.21333,1.30942
263.97226,1.32863
263.73119,1.34806
263.49012,1.35796
263.24905,1.35992
263.00798,1.36327
262.76691,1.37469
262.52584,1.39208
262.28477,1.40775
262.04370,1.41848
261.80262,1.43141
261.56155,1.45424
261.32048,1.47976
261.07941,1.49125
260.83834,1.48851
260.59727,1.49304
260.35620,1.51959
260.11513,1.56025
259.87406,1.60102
259.63299,1.64118
259.39192,1.68012
259.15085,1.70189
258.90978,1.70020
258.66871,1.69602
258.42764,1.71432
258.18657,1.76149
257.94550,1.82169
257.70443,1.86833
257.46335,1.89038
257.22228,1.89748
256.98121,1.89267
256.74014,1.86842
256.49907,1.83752
256.25800,1.82319
256.01693,1.82256
255.77586,1.81573
255.53479,1.79935
255.29372,1.78985
255.05265,1.79191
254.81158,1.78661
254.57051,1.76079
254.32944,1.72973
254.08837,1.71735
253.84730,1.72382
253.60623,1.72322
253.36516,1.70600
253.12408,1.68509
252.88301,1.66393
252.64194,1.64210
252.40087,1.62761
252.15980,1.62736
251.91873,1.63584
251.67766,1.63881
251.43659,1.62562
251.19552,1.60260
250.95445,1.58957
250.71338,1.59679
250.47231,1.61473
250.23124,1.62436
249.99017,1.61921
249.74910,1.61147
249.50803,1.61255
249.26696,1.61951
249.02589,1.62153
248.78481,1.61456
248.54374,1.60528
248.30267,1.59889
248.06160,1.59127
247.82053,1.58087
247.57946,1.57526
247.33839,1.57779
247.09732,1.58191
246.85625,1.58322
246.61518,1.58751
246.37411,1.60040
246.13304,1.61683
245.89197,1.62774
245.65090,1.63469
245.40983,1.64753
245.16876,1.66734
244.92769,1.68421
244.68661,1.69699
244.44554,1.72183
244.20447,1.77491
243.96340,1.85484
243.72233,1.94227
243.48126,2.00842
243.24019,2.04338
242.99912,2.07282
242.75805,2.10128
242.51698,2.08271
242.27591,1.98036
242.03484,1.83711
241.79377,1.71856
241.55270,1.64242
241.31163,1.58953
241.07056,1.53390
240.82949,1.46897
240.58842,1.40837
240.34734,1.36430
240.10627,1.33554
239.86520,1.31106
239.62413,1.27994
239.38306,1.24092
239.14199,1.20212
238.90092,1.17138
238.65985,1.15058
238.41878,1.13685
238.17771,1.12439
237.93664,1.10659
237.69557,1.08117
237.45450,1.05434
237.21343,1.03579
236.97236,1.02929
236.73129,1.02957
236.49022,1.02774
236.24915,1.01951
236.00807,1.00742
235.76700,0.99544
235.52593,0.98385
235.28486,0.97120
235.04379,0.95919
234.80272,0.95234
234.56165,0.95218
234.32058,0.95435
234.07951,0.95337
233.83844,0.94833
233.59737,0.94120
233.35630,0.93274
233.11523,0.92395
232.87416,0.91778
232.63309,0.91476
232.39202,0.91196
232.15095,0.90819
231.90988,0.90535
231.66880,0.90434
231.42773,0.90303
231.18666,0.89991
230.94559,0.89692
230.70452,0.89581
230.46345,0.89429
230.22238,0.88983
229.98131,0.88477
229.74024,0.88325
229.49917,0.88512
229.25810,0.88584
229.01703,0.88174
228.77596,0.87313
228.53489,0.86355
228.29382,0.85707
228.05275,0.85517
227.81168,0.85598
227.57061,0.85703
227.32953,0.85792
227.08846,0.85927
226.84739,0.85966
226.60632,0.85620
226.36525,0.84924
226.12418,0.84306
225.88311,0.84018
225.64204,0.83918
225.40097,0.83808
225.15990,0.83733
224.91883,0.83923
224.67776,0.84494
224.43669,0.85183
224.19562,0.85519
223.95455,0.85382
223.71348,0.85100
223.47241,0.84929
223.23134,0.84882
222.99026,0.84972
222.74919,0.85211
222.50812,0.85470
222.26705,0.85641
222.02598,0.85769
221.78491,0.85852
221.54384,0.85829
221.30277,0.85903
221.06170,0.86466
220.82063,0.87591
220.57956,0.88936
220.33849,0.90195
220.09742,0.91297
219.85635,0.92218
219.61528,0.92985
219.37421,0.93756
219.13314,0.94554
218.89207,0.95188
218.65099,0.95701
218.40992,0.96495
218.16885,0.97851
217.92778,0.99598
217.68671,1.01228
217.44564,1.02264
217.20457,1.02738
216.96350,1.03296
216.72243,1.04622
216.48136,1.06771
216.24029,1.09092
215.99922,1.10784
215.75815,1.11558
215.51708,1.11764
215.27601,1.12020
215.03494,1.12728
214.79387,1.13908
214.55280,1.15334
214.31172,1.16622
214.07065,1.17263
213.82958,1.17024
213.58851,1.16438
213.34744,1.16439
213.10637,1.17584
212.86530,1.19850
212.62423,1.22694
212.38316,1.24999
212.14209,1.25600
211.90102,1.24555
211.65995,1.23212
211.41888,1.22745
211.17781,1.23509
210.93674,1.25253
210.69567,1.26979
210.45460,1.27300
210.21353,1.25868
209.97245,1.23849
209.73138,1.22535
209.49031,1.22156
209.24924,1.22092
209.00817,1.21732
208.76710,1.21037
208.52603,1.20404
208.28496,1.20146
208.04389,1.20248
207.80282,1.20467
207.56175,1.20456
207.32068,1.19973
207.07961,1.19116
206.83854,1.18117
206.59747,1.16883
206.35640,1.15262
206.11533,1.13630
205.87426,1.12479
205.63318,1.11614
205.39211,1.10432
205.15104,1.08893
204.90997,1.07542
204.66890,1.06714
204.42783,1.06239
204.18676,1.05694
203.94569,1.04650
203.70462,1.02950
203.46355,1.01020
203.22248,0.99637
202.98141,0.99169
202.74034,0.99060
202.49927,0.98268
202.25820,0.96491
202.01713,0.94564
201.77606,0.93354
201.53499,0.92704
201.29391,0.91695
201.05284,0.89926
200.81177,0.87996
200.57070,0.86566
200.32963,0.85644
200.08856,0.84876
199.84749,0.84041
199.60642,0.83108
199.36535,0.82115
199.12428,0.81136
198.88321,0.80250
198.64214,0.79487
198.40107,0.78774
198.16000,0.77879
197.91893,0.76603
197.67786,0.75148
197.43679,0.74045
197.19572,0.73609
196.95464,0.73587
196.71357,0.73331
196.47250,0.72455
196.23143,0.71245
195.99036,0.70218
195.74929,0.69565
195.50822,0.69038
195.26715,0.68264
195.02608,0.67241
194.78501,0.66388
194.54394,0.66007
194.30287,0.65875
194.06180,0.65559
193.82073,0.65049
193.57966,0.64674
193.33859,0.64517
193.09752,0.64300
192.85645,0.63866
192.61537,0.63382
192.37430,0.63003
192.13323,0.62625
191.89216,0.62157
191.65109,0.61757
191.41002,0.61596
191.16895,0.61558
190.92788,0.61367
190.68681,0.60942
190.44574,0.60441
190.20467,0.59999
189.96360,0.59606
189.72253,0.59252
189.48146,0.59023
189.24039,0.58961
188.99932,0.58914
188.75825,0.58676
188.51718,0.58304
188.27610,0.58056
188.03503,0.58018
187.79396,0.58011
187.55289,0.57910
187.31182,0.57804
187.07075,0.57749
186.82968,0.57610
186.58861,0.57306
186.34754,0.57011
186.10647,0.56917
185.86540,0.56942
185.62433,0.56942
185.38326,0.57060
185.14219,0.57447
184.90112,0.57850
184.66005,0.57895
184.41898,0.57631
184.17791,0.57394
183.93683,0.57352
183.69576,0.57472
183.45469,0.57710
183.21362,0.57998
182.97255,0.58213
182.73148,0.58353
182.49041,0.58570
182.24934,0.58829
182.00827,0.58777
181.76720,0.58308
181.52613,0.57902
181.28506,0.57995
181.04399,0.58429
180.80292,0.58822
180.56185,0.59074
180.32078,0.59256
180.07971,0.59471
179.83864,0.59855
179.59756,0.60417
179.35649,0.60983
179.11542,0.61472
178.87435,0.61941
178.63328,0.62383
178.39221,0.62807
178.15114,0.63314
177.91007,0.63956
177.66900,0.64788
177.42793,0.65975
177.18686,0.67526
176.94579,0.69161
176.70472,0.70699
176.46365,0.72217
176.22258,0.73677
175.98151,0.74916
175.74044,0.76047
175.49937,0.77361
175.25829,0.78862
175.01722,0.80422
174.77615,0.82168
174.53508,0.84251
174.29401,0.86459
174.05294,0.88474
173.81187,0.90223
173.57080,0.91697
173.32973,0.92807
173.08866,0.93663
172.84759,0.94502
172.60652,0.95208
172.36545,0.95478
172.12438,0.95466
171.88331,0.95559
171.64224,0.95640
171.40117,0.95199
171.16010,0.94120
170.91902,0.92999
170.67795,0.92627
170.43688,0.93167
170.19581,0.93902
169.95474,0.94013
169.71367,0.93494
169.47260,0.92922
169.23153,0.92570
168.99046,0.92163
168.74939,0.91397
168.50832,0.90356
168.26725,0.89353
168.02618,0.88623
167.78511,0.88301
167.54404,0.88476
167.30297,0.89048
167.06190,0.89617
166.82083,0.89733
166.57975,0.89321
166.33868,0.88734
166.09761,0.88368
165.85654,0.88373
165.61547,0.88799
165.37440,0.89777
165.13333,0.91269
164.89226,0.92868
164.65119,0.94112
164.41012,0.94832
164.16905,0.95139
163.92798,0.95336
163.68691,0.95752
163.44584,0.96536
163.20477,0.97667
162.96370,0.98983
162.72263,0.99977
162.48156,1.00017
162.24048,0.99181
161.99941,0.98359
161.75834,0.98371
161.51727,0.99404
161.27620,1.01016
161.03513,1.02228
160.79406,1.02068
160.55299,1.00647
160.31192,0.99120
160.07085,0.98416
159.82978,0.98688
159.58871,0.99537
159.34764,1.00221
159.10657,1.00015
158.86550,0.98767
158.62443,0.96966
158.38336,0.95312
158.14229,0.94325
157.90121,0.94094
157.66014,0.94198
157.41907,0.94069
157.17800,0.93600
156.93693,0.93097
156.69586,0.92691
156.45479,0.92238
156.21372,0.91702
155.97265,0.91202
155.73158,0.90761
155.49051,0.90313
155.24944,0.89778
155.00837,0.89051
154.76730,0.88164
154.52623,0.87354
154.28516,0.86702
154.04409,0.85888
153.80302,0.84569
153.56194,0.82873
153.32087,0.81238
153.07980,0.79844
152.83873,0.78390
152.59766,0.76626
152.35659,0.74821
152.11552,0.73423
151.87445,0.72470
151.63338,0.71612
151.39231,0.70553
151.15124,0.69310
150.91017,0.68041
150.66910,0.66745
150.42803,0.65293
150.18696,0.63752
149.94589,0.62413
149.70482,0.61411
149.46375,0.60552
149.22267,0.59624
148.98160,0.58670
148.74053,0.57879
148.49946,0.57318
148.25839,0.56826
148.01732,0.56183
147.77625,0.55441
147.53518,0.54944
147.29411,0.54904
147.05304,0.55119
146.81197,0.55219
146.57090,0.55168
146.32983,0.55275
146.08876,0.55734
145.84769,0.56373
145.60662,0.56874
145.36555,0.57160
145.12448,0.57408
144.88340,0.57731
144.64233,0.58099
144.40126,0.58502
144.16019,0.58967
143.91912,0.59410
143.67805,0.59639
143.43698,0.59552
143.19591,0.59213
142.95484,0.58702
142.71377,0.58001
142.47270,0.57093
142.23163,0.56083
141.99056,0.55145
141.74949,0.54348
141.50842,0.53582
141.26735,0.52725
141.02628,0.51875
140.78521,0.51260
140.54413,0.50939
140.30306,0.50783
140.06199,0.50755
139.82092,0.50942
139.57985,0.51289
139.33878,0.51587
139.09771,0.51782
138.85664,0.52043
138.61557,0.52510
138.37450,0.53162
138.13343,0.53982
137.89236,0.54979
137.65129,0.56036
137.41022,0.57011
137.16915,0.58036
136.92808,0.59428
136.68701,0.61234
136.44594,0.63207
136.20486,0.65198
135.96379,0.67272
135.72272,0.69464
135.48165,0.71763
135.24058,0.74255
134.99951,0.77040
134.75844,0.80129
134.51737,0.83462
134.27630,0.86865
134.03523,0.90105
133.79416,0.93117
133.55309,0.95937
133.31202,0.98489
133.07095,1.00819
132.82988,1.03175
132.58881,1.05441
132.34774,1.07124
132.10667,1.08198
131.86559,1.09096
131.62452,1.09886
131.38345,1.10293
131.14238,1.10256
130.90131,1.09804
130.66024,1.08759
130.41917,1.07045
130.17810,1.05019
129.93703,1.03162
129.69596,1.01527
129.45489,0.99741
129.21382,0.97507
128.97275,0.94802
128.73168,0.91666
128.49061,0.88137
128.24954,0.84341
128.00847,0.80472
127.76740,0.76776
127.52632,0.73493
127.28525,0.70649
127.04418,0.68080
126.80311,0.65749
126.56204,0.63768
126.32097,0.62105
126.07990,0.60568
125.83883,0.59056
125.59776,0.57577
125.35669,0.56058
125.11562,0.54407
124.87455,0.52753
124.63348,0.51397
124.39241,0.50481
124.15134,0.49835
123.91027,0.49176
123.66920,0.48381
123.42812,0.47525
123.18705,0.46759
122.94598,0.46220
122.70491,0.45955
122.46384,0.45884
122.22277,0.45872
121.98170,0.45905
121.74063,0.46087
121.49956,0.46440
121.25849,0.46816
121.01742,0.47088
120.77635,0.47332
120.53528,0.47696
120.29421,0.48180
120.05314,0.48740
119.81207,0.49499
119.57100,0.50683
119.32993,0.52378
119.08885,0.54520
118.84778,0.57078
118.60671,0.60052
118.36564,0.63352
118.12457,0.66781
117.88350,0.70080
117.64243,0.72919
117.40136,0.75054
117.16029,0.76485
116.91922,0.77189
116.67815,0.77079
116.43708,0.76503
116.19601,0.76093
115.95494,0.76022
115.71387,0.75976
115.47280,0.75728
115.23173,0.75204
114.99066,0.74192
114.74958,0.72517
114.50851,0.70413
114.26744,0.68391
114.02637,0.66878
113.78530,0.66023
113.54423,0.65668
113.30316,0.65586
113.06209,0.65754
112.82102,0.66170
112.57995,0.66600
112.33888,0.66837
112.09781,0.67045
111.85674,0.67535
111.61567,0.68406
111.37460,0.69573
111.13353,0.70837
110.89246,0.71872
110.65139,0.72317
110.41031,0.71875
110.16924,0.70467
109.92817,0.68468
109.68710,0.66557
109.44603,0.65217
109.20496,0.64489
108.96389,0.64069
108.72282,0.63431
108.48175,0.62067
108.24068,0.59903
107.99961,0.57379
107.75854,0.55075
107.51747,0.53402
107.27640,0.52446
107.03533,0.51841
106.79426,0.50964
106.55319,0.49536
106.31212,0.47776
106.07104,0.46035
105.82997,0.44594
105.58890,0.43613
105.34783,0.43032
105.10676,0.42512
104.86569,0.41624
104.62462,0.40265
104.38355,0.38767
104.14248,0.37573
103.90141,0.36938
103.66034,0.36698
103.41927,0.36295
103.17820,0.35310
102.93713,0.33942
102.69606,0.32751
102.45499,0.32076
102.21392,0.31860
101.97285,0.31815
101.73177,0.31649
101.49070,0.31225
101.24963,0.30651
101.00856,0.30183
100.76749,0.29971
100.52642,0.29882
100.28535,0.29615
100.04428,0.29027
99.80321,0.28370
99.56214,0.28130
99.32107,0.28532
99.08000,0.29123
98.83893,0.29022
98.59786,0.28020
98.35679,0.27054
98.11572,0.27005
97.87465,0.27661
97.63358,0.28043
97.39250,0.27637
97.15143,0.27077
96.91036,0.27210
96.66929,0.28069
96.42822,0.28940
96.18715,0.29201
95.94608,0.29099
95.70501,0.29392
95.46394,0.30304
95.22287,0.31271
94.98180,0.31797
94.74073,0.32063
94.49966,0.32339
94.25859,0.32496
94.01752,0.32490
93.77645,0.32607
93.53538,0.32857
93.29431,0.32830
93.05323,0.32502
92.81216,0.32482
92.57109,0.32965
92.33002,0.33262
92.08895,0.32909
91.84788,0.32608
91.60681,0.33110
91.36574,0.34011
91.12467,0.34673
90.88360,0.35558
90.64253,0.37346
90.40146,0.39754
90.16039,0.42372
89.91932,0.45570
89.67825,0.49596
89.43718,0.54078
89.19611,0.58800
88.95504,0.63563
88.71396,0.67556
88.47289,0.70217
88.23182,0.71660
87.99075,0.71659
87.74968,0.69831
87.50861,0.66509
87.26754,0.62325
87.02647,0.57767
86.78540,0.53377
86.54433,0.49619
86.30326,0.46581
86.06219,0.44139
85.82112,0.42137
85.58005,0.40280
85.33898,0.38175
85.09791,0.35738
84.85684,0.33312
84.61577,0.31268
84.37469,0.29682
84.13362,0.28464
83.89255,0.27541
83.65148,0.26800
83.41041,0.26076
83.16934,0.25307
82.92827,0.24544
82.68720,0.23831
82.44613,0.23190
82.20506,0.22654
81.96399,0.22236
81.72292,0.21912
81.48185,0.21693
81.24078,0.21631
80.99971,0.21667
80.75864,0.21560
80.51757,0.21111
80.27650,0.20442
80.03542,0.19912
79.79435,0.19779
79.55328,0.20025
79.31221,0.20402
79.07114,0.20605
78.83007,0.20465
78.58900,0.20042
78.34793,0.19512
78.10686,0.19027
77.86579,0.18684
77.62472,0.18516
77.38365,0.18452
77.14258,0.18347
76.90151,0.18113
76.66044,0.17779
76.41937,0.17451
76.17830,0.17227
75.93723,0.17167
75.69615,0.17252
75.45508,0.17329
75.21401,0.17183
74.97294,0.16764
74.73187,0.16292
74.49080,0.16064
74.24973,0.16154
74.00866,0.16402
73.76759,0.16638
73.52652,0.16859
73.28545,0.17167
73.04438,0.17580
72.80331,0.17959
72.56224,0.18144
72.32117,0.18074
72.08010,0.17756
71.83903,0.17233
71.59796,0.16659
71.35688,0.16274
71.11581,0.16238
70.87474,0.16570
70.63367,0.17208
70.39260,0.18091
70.15153,0.19276
69.91046,0.20973
69.66939,0.23240
69.42832,0.25613
69.18725,0.27273
68.94618,0.27665
68.70511,0.26807
68.46404,0.25097
68.22297,0.23056
67.98190,0.21148
67.74083,0.19633
67.49976,0.18569
67.25869,0.17865
67.01761,0.17304
66.77654,0.16679
66.53547,0.15977
66.29440,0.15352
66.05333,0.14928
65.81226,0.14725
65.57119,0.14712
65.33012,0.14895
65.08905,0.15383
64.84798,0.16251
64.60691,0.17312
64.36584,0.18207
64.12477,0.18787
63.88370,0.19179
63.64263,0.19478
63.40156,0.19594
63.16049,0.19416
62.91942,0.18967
62.67834,0.18412
62.43727,0.17979
62.19620,0.17853
61.95513,0.18064
61.71406,0.18405
61.47299,0.18559
61.23192,0.18332
60.99085,0.17708
60.74978,0.16711
60.50871,0.15349
60.26764,0.13758
60.02657,0.12283
59.78550,0.11314
59.54443,0.11028
59.30336,0.11351
59.06229,0.12228
58.82122,0.13765
58.58015,0.15983
58.33907,0.18441
58.09800,0.20169
57.85693,0.20271
57.61586,0.18783
57.37479,0.16497
57.13372,0.14139
56.89265,0.12270
56.65158,0.11494
56.41051,0.12166
56.16944,0.14042
55.92837,0.16308
55.68730,0.17828
55.44623,0.17661
55.20516,0.15923
54.96409,0.13689
54.72302,0.12182
54.48195,0.12384
54.24088,0.14712
53.99980,0.18391
53.75873,0.20889
53.51766,0.19911
53.27659,0.16890
53.03552,0.14408
52.79445,0.13649
52.55338,0.14979
52.31231,0.18107
52.07124,0.21292
51.83017,0.21702
51.58910,0.18853
51.34803,0.15455
51.10696,0.13935
50.86589,0.15333
50.62482,0.18975
50.38375,0.21023
50.14268,0.17971
49.90161,0.13281
49.66053,0.11189
49.41946,0.13298
49.17839,0.18012
48.93732,0.19335
48.69625,0.15982
48.45518,0.13989
48.21411,0.16338
47.97304,0.20729
47.73197,0.20136
47.49090,0.14704
47.24983,0.11655
47.00876,0.12597
46.76769,0.14049
46.52662,0.13288
46.28555,0.12667
46.04448,0.13603
45.80341,0.13653
45.56234,0.12491
45.32126,0.13070
45.08019,0.15081
44.83912,0.14801
44.59805,0.12704
44.35698,0.12447
44.11591,0.13959
43.87484,0.14968
43.63377,0.15120
43.39270,0.15105
43.15163,0.14952
42.91056,0.14874
42.66949,0.15102
42.42842,0.15545
42.18735,0.16388
41.94628,0.17431
41.70521,0.17599
41.46414,0.16604
41.22307,0.15540
40.98199,0.15254
40.74092,0.15722
40.49985,0.16825
40.25878,0.18476
40.01771,0.20119
39.77664,0.21125
39.53557,0.21714
39.29450,0.22518
39.05343,0.23436
38.81236,0.24082
38.57129,0.24838
38.33022,0.26255
38.08915,0.27898
37.84808,0.28977
37.60701,0.29178
37.36594,0.28278
37.12487,0.26477
36.88380,0.24583
36.64272,0.23371
36.40165,0.23103
36.16058,0.23271
35.91951,0.22731
35.67844,0.21025
35.43737,0.19259
35.19630,0.18715
34.95523,0.19518
34.71416,0.20928
34.47309,0.22115
34.23202,0.22817
33.99095,0.23381
33.74988,0.23886
33.50881,0.23819
33.26774,0.23180
33.02667,0.23067
32.78560,0.24347
32.54453,0.26424
32.30345,0.27656
32.06238,0.27134
31.82131,0.25404
31.58024,0.23277
31.33917,0.21266
31.09810,0.19657
30.85703,0.18552
30.61596,0.18039
30.37489,0.17893
30.13382,0.17753
29.89275,0.17605
29.65168,0.17552
29.41061,0.17278
29.16954,0.16265
28.92847,0.14966
28.68740,0.14643
28.44633,0.15431
28.20526,0.15639
27.96418,0.14204
27.72311,0.12241
27.48204,0.11296
27.24097,0.11300
26.99990,0.10638
26.75883,0.08202
26.51776,0.04749
26.27669,0.02170
26.03562,0.01526
25.79455,0.01752
25.55348,0.01147
25.31241,-0.00350
25.07134,-0.01410
24.83027,-0.01568
24.58920,-0.01536
24.34813,-0.01645
24.10706,-0.01871
23.86599,-0.02412
23.62491,-0.03388
23.38384,-0.04750
23.14277,-0.06213
22.90170,-0.07634
22.66063,-0.09166
22.41956,-0.10503
22.17849,-0.11253
21.93742,-0.11335
21.69635,-0.10294
21.45528,-0.08809
21.21421,-0.08662
20.97314,-0.10679
20.73207,-0.14206
20.49100,-0.18043
20.24993,-0.21419
20.00886,-0.23972
19.76779,-0.25428
19.52672,-0.25659
19.28564,-0.24980
19.04457,-0.24544
18.80350,-0.25129
18.56243,-0.25909
18.32136,-0.26142
18.08029,-0.26094
17.83922,-0.24988
17.59815,-0.22169
17.35708,-0.19479
17.11601,-0.19262
16.87494,-0.21561
16.63387,-0.24777
16.39280,-0.28172
16.15173,-0.31756
15.91066,-0.33936
15.66959,-0.31841
15.42852,-0.26377
15.18745,-0.22014
14.94637,-0.21714
14.70530,-0.25135
14.46423,-0.29465
14.22316,-0.32005
13.98209,-0.31874
13.74102,-0.29723
13.49995,-0.27564
13.25888,-0.27092
13.01781,-0.28289
12.77674,-0.30351
12.53567,-0.32326
12.29460,-0.33498
12.05353,-0.33588
11.81246,-0.32476
11.57139,-0.30664
11.33032,-0.29325
11.08925,-0.28834
10.84818,-0.28986
10.60710,-0.30033
10.36603,-0.32136
10.12496,-0.34871
9.88389,-0.37668
9.64282,-0.40019
9.40175,-0.41587
9.16068,-0.42981
8.91961,-0.45100
8.67854,-0.44679
8.43747,-0.42198
8.19640,-0.42400
7.95533,-0.42637
7.71426,-0.42656
7.47319,-0.44652
7.23212,-0.45827
6.99105,-0.43216
6.74998,-0.39025
6.50891,-0.36524
6.26783,-0.36267
6.02676,-0.37944
5.78569,-0.37247
5.54462,-0.35030
5.30355,-0.33032
5.06248,-0.31387
4.82141,-0.29993
4.58034,-0.30679
4.33927,-0.33983
4.09820,-0.36790
3.85713,-0.36161
3.61606,-0.33049
3.37499,-0.30671
3.13392,-0.31230
2.89285,-0.33943
2.65178,-0.36666
2.41071,-0.38038
2.16964,-0.37011
1.92856,-0.32875
1.68749,-0.28627
1.44642,-0.28504
1.20535,-0.32087
0.96428,-0.36271
0.72321,-0.39481
0.48214,-0.41791
0.24107,-0.39404
-0.00000,-0.02951
