399.69498,1.52107
399.45391,1.52005
399.21284,1.53771
398.97177,1.56267
398.73070,1.58006
398.48963,1.58578
398.24856,1.58405
398.00749,1.57829
397.76642,1.56770
397.52535,1.55387
397.28428,1.54510
397.04321,1.54668
396.80214,1.55222
396.56107,1.55344
396.32000,1.55247
396.07892,1.55472
395.83785,1.56026
395.59678,1.56759
395.35571,1.57344
395.11464,1.56911
394.87357,1.55196
394.63250,1.53344
394.39143,1.52534
394.15036,1.52757
393.90929,1.53269
393.66822,1.53573
393.42715,1.53883
393.18608,1.54761
392.94501,1.56186
392.70394,1.57599
392.46287,1.58920
392.22180,1.60231
391.98073,1.60429
391.73965,1.58310
391.49858,1.54963
391.25751,1.52548
391.01644,1.51814
390.77537,1.52311
390.53430,1.53525
390.29323,1.54961
390.05216,1.55863
389.81109,1.55639
389.57002,1.54409
389.32895,1.52665
389.08788,1.51108
388.84681,1.50202
388.60574,1.49586
388.36467,1.49074
388.12360,1.49017
387.88253,1.49083
387.64146,1.48566
387.40038,1.47525
387.15931,1.46617
386.91824,1.46443
386.67717,1.47363
386.43610,1.49169
386.19503,1.50544
385.95396,1.49643
385.71289,1.46236
385.47182,1.41984
385.23075,1.38625
384.98968,1.37074
384.74861,1.36778
384.50754,1.36080
384.26647,1.34417
384.02540,1.32873
383.78433,1.32447
383.54326,1.33262
383.30219,1.34808
383.06111,1.36158
382.82004,1.36132
382.57897,1.34218
382.33790,1.31477
382.09683,1.29272
381.85576,1.28149
381.61469,1.28285
381.37362,1.29759
381.13255,1.31996
380.89148,1.33427
380.65041,1.32859
380.40934,1.31294
380.16827,1.30735
379.92720,1.31368
379.68613,1.31589
379.44506,1.30590
379.20399,1.29182
378.96292,1.28677
378.72184,1.29748
378.48077,1.31909
378.23970,1.33886
377.99863,1.34564
377.75756,1.33986
377.51649,1.33456
377.27542,1.34248
377.03435,1.36189
376.79328,1.37918
376.55221,1.38523
376.31114,1.38288
376.07007,1.37722
375.82900,1.36805
375.58793,1.35961
375.34686,1.36274
375.10579,1.38084
374.86472,1.40421
374.62365,1.42159
374.38257,1.43202
374.14150,1.43939
373.90043,1.44350
373.65936,1.44586
373.41829,1.45236
373.17722,1.46071
372.93615,1.45920
372.69508,1.44367
372.45401,1.42150
372.21294,1.40270
371.97187,1.39347
371.73080,1.39313
371.48973,1.39747
371.24866,1.40299
371.00759,1.40393
370.76652,1.39463
370.52545,1.38082
370.28437,1.37650
370.04330,1.38718
369.80223,1.40232
369.56116,1.40712
369.32009,1.40064
369.07902,1.39487
368.83795,1.39609
368.59688,1.39526
368.35581,1.38270
368.11474,1.36597
367.87367,1.35860
367.63260,1.36124
367.39153,1.36676
367.15046,1.37387
366.90939,1.38351
366.66832,1.39044
366.42725,1.38822
366.18618,1.37719
365.94510,1.36321
365.70403,1.35198
365.46296,1.34689
365.22189,1.34827
364.98082,1.35342
364.73975,1.35847
364.49868,1.35884
364.25761,1.35210
364.01654,1.34225
363.77547,1.33497
363.53440,1.32844
363.29333,1.31843
363.05226,1.31068
362.81119,1.31439
362.57012,1.32836
362.32905,1.34218
362.08798,1.34644
361.84691,1.33799
361.60583,1.32235
361.36476,1.31058
361.12369,1.30931
360.88262,1.31576
360.64155,1.32178
360.40048,1.32180
360.15941,1.31660
359.91834,1.30989
359.67727,1.30369
359.43620,1.29807
359.19513,1.29450
358.95406,1.29510
358.71299,1.29856
358.47192,1.30235
358.23085,1.30786
357.98978,1.31641
357.74871,1.32304
357.50764,1.32093
357.26656,1.31090
357.02549,1.30179
356.78442,1.29926
356.54335,1.29973
356.30228,1.29729
356.06121,1.29159
355.82014,1.28684
355.57907,1.28437
355.33800,1.28144
355.09693,1.27667
354.85586,1.27202
354.61479,1.26996
354.37372,1.27201
354.13265,1.27749
353.89158,1.28191
353.65051,1.28085
353.40944,1.27589
353.16837,1.27366
352.92729,1.27852
352.68622,1.28668
352.44515,1.28978
352.20408,1.28445
351.96301,1.27633
351.72194,1.27498
351.48087,1.28444
351.23980,1.29756
350.99873,1.30167
350.75766,1.29189
350.51659,1.27582
350.27552,1.26505
350.03445,1.26712
349.79338,1.28162
349.55231,1.29870
349.31124,1.30615
349.07017,1.30294
348.82910,1.29816
348.58802,1.29637
348.34695,1.29427
348.10588,1.29133
347.86481,1.29349
347.62374,1.30213
347.38267,1.30794
347.14160,1.30398
346.90053,1.29693
346.65946,1.29524
346.41839,1.29563
346.17732,1.29116
345.93625,1.28571
345.69518,1.29019
345.45411,1.30793
345.21304,1.32941
344.97197,1.34063
344.73090,1.33601
344.48983,1.32235
344.24875,1.31160
344.00768,1.31067
343.76661,1.31797
343.52554,1.32695
343.28447,1.33357
343.04340,1.33924
342.80233,1.34516
342.56126,1.34856
342.32019,1.34742
342.07912,1.34661
341.83805,1.35267
341.59698,1.36416
341.35591,1.37268
341.11484,1.37165
340.87377,1.36350
340.63270,1.35897
340.39163,1.36696
340.15056,1.38447
339.90948,1.39973
339.66841,1.40634
339.42734,1.40784
339.18627,1.40883
338.94520,1.41066
338.70413,1.41438
338.46306,1.41771
338.22199,1.41683
337.98092,1.41424
337.73985,1.41391
337.49878,1.41478
337.25771,1.41501
337.01664,1.41291
336.77557,1.40414
336.53450,1.39088
336.29343,1.38608
336.05236,1.39827
335.81129,1.42013
335.57021,1.43499
335.32914,1.43122
335.08807,1.41261
334.84700,1.39523
334.60593,1.39187
334.36486,1.40173
334.12379,1.41270
333.88272,1.41159
333.64165,1.39713
333.40058,1.38213
333.15951,1.37797
332.91844,1.38139
332.67737,1.37881
332.43630,1.36205
332.19523,1.33807
331.95416,1.32043
331.71309,1.31533
331.47202,1.31766
331.23094,1.31873
330.98987,1.31624
330.74880,1.31325
330.50773,1.30842
330.26666,1.29600
330.02559,1.27803
329.78452,1.26579
329.54345,1.26599
329.30238,1.27351
329.06131,1.27793
328.82024,1.27447
328.57917,1.26814
328.33810,1.26913
328.09703,1.28247
327.85596,1.30067
327.61489,1.31089
327.37382,1.30956
327.13275,1.30348
326.89167,1.30012
326.65060,1.30254
326.40953,1.30948
326.16846,1.31352
325.92739,1.30606
325.68632,1.29156
325.44525,1.28538
325.20418,1.29520
324.96311,1.31283
324.72204,1.32070
324.48097,1.30960
324.23990,1.29226
323.99883,1.28786
323.75776,1.29946
323.51669,1.31635
323.27562,1.32993
323.03455,1.33796
322.79348,1.34199
322.55240,1.34658
322.31133,1.35429
322.07026,1.36049
321.82919,1.35836
321.58812,1.34788
321.34705,1.33734
321.10598,1.33641
320.86491,1.34649
320.62384,1.35752
320.38277,1.35747
320.14170,1.34758
319.90063,1.33999
319.65956,1.33723
319.41849,1.33203
319.17742,1.32579
318.93635,1.32761
318.69528,1.33906
318.45421,1.35346
318.21313,1.36410
317.97206,1.36718
317.73099,1.36547
317.48992,1.36874
317.24885,1.38008
317.00778,1.38514
316.76671,1.36835
316.52564,1.33787
316.28457,1.31969
316.04350,1.32358
315.80243,1.33528
315.56136,1.33785
315.32029,1.33355
315.07922,1.33790
314.83815,1.35464
314.59708,1.37149
314.35601,1.37894
314.11494,1.37410
313.87386,1.35657
313.63279,1.33699
313.39172,1.32975
313.15065,1.33615
312.90958,1.34697
312.66851,1.35610
312.42744,1.36350
312.18637,1.37164
311.94530,1.38204
311.70423,1.39408
311.46316,1.40844
311.22209,1.42401
310.98102,1.43041
310.73995,1.41789
310.49888,1.39513
310.25781,1.38071
310.01674,1.38340
309.77567,1.39903
309.53459,1.41980
309.29352,1.43831
309.05245,1.44507
308.81138,1.43423
308.57031,1.41392
308.32924,1.39849
308.08817,1.39582
307.84710,1.40403
307.60603,1.41347
307.36496,1.41533
307.12389,1.41233
306.88282,1.41406
306.64175,1.42395
306.40068,1.43343
306.15961,1.42853
305.91854,1.40709
305.67747,1.38460
305.43640,1.37607
305.19532,1.37756
304.95425,1.37320
304.71318,1.36087
304.47211,1.35301
304.23104,1.35317
303.98997,1.35403
303.74890,1.35289
303.50783,1.35292
303.26676,1.35486
303.02569,1.35741
302.78462,1.35933
302.54355,1.35999
302.30248,1.35885
302.06141,1.35507
301.82034,1.35035
301.57927,1.34939
301.33820,1.35404
301.09713,1.35783
300.85605,1.35130
300.61498,1.33463
300.37391,1.31745
300.13284,1.30683
299.89177,1.30272
299.65070,1.30203
299.40963,1.30268
299.16856,1.30325
298.92749,1.30036
298.68642,1.29047
298.44535,1.27696
298.20428,1.26977
297.96321,1.27417
297.72214,1.28312
297.48107,1.28482
297.24000,1.27677
296.99893,1.26635
296.75786,1.25993
296.51678,1.25818
296.27571,1.25683
296.03464,1.25069
295.79357,1.24125
295.55250,1.23588
295.31143,1.23773
295.07036,1.24212
294.82929,1.24323
294.58822,1.24019
294.34715,1.23566
294.10608,1.23150
293.86501,1.22756
293.62394,1.22407
293.38287,1.22247
293.14180,1.22254
292.90073,1.22102
292.65966,1.21475
292.41859,1.20445
292.17751,1.19400
291.93644,1.18651
291.69537,1.18177
291.45430,1.17822
291.21323,1.17743
290.97216,1.18255
290.73109,1.19158
290.49002,1.19718
290.24895,1.19477
290.00788,1.18700
289.76681,1.17986
289.52574,1.17774
289.28467,1.18163
289.04360,1.18939
288.80253,1.19626
288.56146,1.19773
288.32039,1.19354
288.07932,1.18690
287.83824,1.18067
287.59717,1.17599
287.35610,1.17379
287.11503,1.17530
286.87396,1.17940
286.63289,1.18090
286.39182,1.17612
286.15075,1.16884
285.90968,1.16490
285.66861,1.16413
285.42754,1.16305
285.18647,1.16282
284.94540,1.16754
284.70433,1.17582
284.46326,1.18093
284.22219,1.17975
283.98112,1.17585
283.74005,1.17270
283.49897,1.16952
283.25790,1.16494
283.01683,1.15995
282.77576,1.15528
282.53469,1.15004
282.29362,1.14605
282.05255,1.14811
281.81148,1.15587
281.57041,1.16084
281.32934,1.15719
281.08827,1.15011
280.84720,1.14788
280.60613,1.15113
280.36506,1.15389
280.12399,1.15243
279.88292,1.14968
279.64185,1.15068
279.40078,1.15642
279.15970,1.16357
278.91863,1.16881
278.67756,1.17135
278.43649,1.17209
278.19542,1.17256
277.95435,1.17273
277.71328,1.17048
277.47221,1.16576
277.23114,1.16232
276.99007,1.16301
276.74900,1.16665
276.50793,1.17068
276.26686,1.17270
276.02579,1.17002
275.78472,1.16292
275.54365,1.15639
275.30258,1.15476
275.06151,1.15716
274.82043,1.16041
274.57936,1.16276
274.33829,1.16390
274.09722,1.16447
273.85615,1.16591
273.61508,1.16900
273.37401,1.17234
273.13294,1.17386
272.89187,1.17387
272.65080,1.17462
272.40973,1.17706
272.16866,1.18041
271.92759,1.18430
271.68652,1.18900
271.44545,1.19351
271.20438,1.19541
270.96331,1.19457
270.72224,1.19411
270.48116,1.19611
270.24009,1.19943
269.99902,1.20242
269.75795,1.20435
269.51688,1.20530
269.27581,1.20777
269.03474,1.21423
268.79367,1.22197
268.55260,1.22594
268.31153,1.22618
268.07046,1.22647
267.82939,1.22790
267.58832,1.22996
267.34725,1.23492
267.10618,1.24596
266.86511,1.26222
266.62404,1.27780
266.38297,1.28670
266.14189,1.28931
265.90082,1.29121
265.65975,1.29408
265.41868,1.29471
265.17761,1.29435
264.93654,1.29982
264.69547,1.31318
264.45440,1.32822
264.21333,1.33919
263.97226,1.34768
263.73119,1.35896
263.49012,1.37689
263.24905,1.40238
263.00798,1.43185
262.76691,1.45554
262.52584,1.46353
262.28477,1.45924
262.04370,1.45764
261.80262,1.46828
261.56155,1.48812
261.32048,1.51061
261.07941,1.53705
260.83834,1.57006
260.59727,1.60007
260.35620,1.61398
260.11513,1.61497
259.87406,1.61663
259.63299,1.62691
259.39192,1.64821
259.15085,1.68036
258.90978,1.71763
258.66871,1.75007
258.42764,1.77298
258.18657,1.79280
257.94550,1.81706
257.70443,1.84140
257.46335,1.85238
257.22228,1.84380
256.98121,1.83007
256.74014,1.82674
256.49907,1.82309
256.25800,1.80595
256.01693,1.78379
255.77586,1.76901
255.53479,1.75764
255.29372,1.73919
255.05265,1.71611
254.81158,1.69649
254.57051,1.68305
254.32944,1.67589
254.08837,1.67202
253.84730,1.66622
253.60623,1.66016
253.36516,1.65911
253.12408,1.65927
252.88301,1.65393
252.64194,1.64482
252.40087,1.63607
252.15980,1.62818
251.91873,1.62476
251.67766,1.63284
251.43659,1.65090
251.19552,1.66408
250.95445,1.65588
250.71338,1.62524
250.47231,1.58948
250.23124,1.56822
249.99017,1.56635
249.74910,1.57518
249.50803,1.58668
249.26696,1.59662
249.02589,1.59714
248.78481,1.58359
248.54374,1.56652
248.30267,1.56434
248.06160,1.58266
247.82053,1.60689
247.57946,1.61697
247.33839,1.60807
247.09732,1.59216
246.85625,1.58365
246.61518,1.58641
246.37411,1.59328
246.13304,1.59809
245.89197,1.60408
245.65090,1.61777
245.40983,1.64217
245.16876,1.67516
244.92769,1.70744
244.68661,1.73074
244.44554,1.74840
244.20447,1.77216
243.96340,1.81866
243.72233,1.90073
243.48126,2.01067
243.24019,2.11376
242.99912,2.16917
242.75805,2.15017
242.51698,2.05032
242.27591,1.90696
242.03484,1.79750
241.79377,1.72735
241.55270,1.67249
241.31163,1.61618
241.07056,1.55522
240.82949,1.49436
240.58842,1.44007
240.34734,1.39338
240.10627,1.34965
239.86520,1.30653
239.62413,1.26865
239.38306,1.24197
239.14199,1.22605
238.90092,1.21364
238.65985,1.19649
238.41878,1.17226
238.17771,1.14614
237.93664,1.12481
237.69557,1.10968
237.45450,1.09676
237.21343,1.08204
236.97236,1.06552
236.73129,1.05020
236.49022,1.03876
236.24915,1.03125
236.00807,1.02458
235.76700,1.01445
235.52593,0.99909
235.28486,0.98156
235.04379,0.96707
234.80272,0.95771
234.56165,0.95184
234.32058,0.94774
234.07951,0.94475
233.83844,0.94168
233.59737,0.93747
233.35630,0.93338
233.11523,0.93222
232.87416,0.93502
232.63309,0.93884
232.39202,0.93827
232.15095,0.93093
231.90988,0.92111
231.66880,0.91504
231.42773,0.91441
231.18666,0.91637
230.94559,0.91749
230.70452,0.91614
230.46345,0.91264
230.22238,0.90859
229.98131,0.90442
229.74024,0.89825
229.49917,0.88961
229.25810,0.88262
229.01703,0.88221
228.77596,0.88746
228.53489,0.89118
228.29382,0.88793
228.05275,0.88028
227.81168,0.87332
227.57061,0.86738
227.32953,0.86091
227.08846,0.85617
226.84739,0.85624
226.60632,0.85923
226.36525,0.85981
226.12418,0.85573
225.88311,0.84973
225.64204,0.84598
225.40097,0.84681
225.15990,0.85119
224.91883,0.85526
224.67776,0.85602
224.43669,0.85418
224.19562,0.85274
223.95455,0.85419
223.71348,0.85876
223.47241,0.86452
223.23134,0.86982
222.99026,0.87486
222.74919,0.87919
222.50812,0.88080
222.26705,0.87965
222.02598,0.87849
221.78491,0.87883
221.54384,0.88007
221.30277,0.88298
221.06170,0.88968
220.82063,0.89995
220.57956,0.91040
220.33849,0.91791
220.09742,0.92282
219.85635,0.92782
219.61528,0.93403
219.37421,0.94031
219.13314,0.94753
218.89207,0.95924
218.65099,0.97563
218.40992,0.99134
218.16885,1.00276
217.92778,1.01173
217.68671,1.01934
217.44564,1.02422
217.20457,1.02907
216.96350,1.04009
216.72243,1.05721
216.48136,1.07223
216.24029,1.07993
215.99922,1.08552
215.75815,1.09667
215.51708,1.11404
215.27601,1.13183
215.03494,1.14522
214.79387,1.15543
214.55280,1.16639
214.31172,1.17840
214.07065,1.18896
213.82958,1.19749
213.58851,1.20494
213.34744,1.21280
213.10637,1.22315
212.86530,1.23622
212.62423,1.24931
212.38316,1.25987
212.14209,1.26826
211.90102,1.27619
211.65995,1.28444
211.41888,1.29258
211.17781,1.29855
210.93674,1.29961
210.69567,1.29527
210.45460,1.28705
210.21353,1.27697
209.97245,1.26921
209.73138,1.26734
209.49031,1.26864
209.24924,1.26734
209.00817,1.26157
208.76710,1.25347
208.52603,1.24465
208.28496,1.23456
208.04389,1.22292
207.80282,1.21261
207.56175,1.20698
207.32068,1.20433
207.07961,1.19952
206.83854,1.19192
206.59747,1.18505
206.35640,1.17908
206.11533,1.17129
205.87426,1.16229
205.63318,1.15518
205.39211,1.14990
205.15104,1.14277
204.90997,1.13015
204.66890,1.11231
204.42783,1.09319
204.18676,1.07579
203.94569,1.05942
203.70462,1.04309
203.46355,1.02926
203.22248,1.02100
202.98141,1.01683
202.74034,1.01090
202.49927,0.99876
202.25820,0.98190
202.01713,0.96486
201.77606,0.94970
201.53499,0.93544
201.29391,0.92143
201.05284,0.90819
200.81177,0.89474
200.57070,0.87872
200.32963,0.86076
200.08856,0.84537
199.84749,0.83626
199.60642,0.83238
199.36535,0.82953
199.12428,0.82471
198.88321,0.81811
198.64214,0.81136
198.40107,0.80450
198.16000,0.79579
197.91893,0.78444
197.67786,0.77185
197.43679,0.75999
197.19572,0.74978
196.95464,0.74112
196.71357,0.73308
196.47250,0.72464
196.23143,0.71613
195.99036,0.70886
195.74929,0.70321
195.50822,0.69833
195.26715,0.69344
195.02608,0.68832
194.78501,0.68313
194.54394,0.67787
194.30287,0.67173
194.06180,0.66394
193.82073,0.65512
193.57966,0.64681
193.33859,0.64035
193.09752,0.63694
192.85645,0.63678
192.61537,0.63790
192.37430,0.63756
192.13323,0.63421
191.89216,0.62775
191.65109,0.61976
191.41002,0.61319
191.16895,0.60990
190.92788,0.60902
190.68681,0.60841
190.44574,0.60691
190.20467,0.60445
189.96360,0.60116
189.72253,0.59759
189.48146,0.59477
189.24039,0.59342
188.99932,0.59339
188.75825,0.59321
188.51718,0.59055
188.27610,0.58452
188.03503,0.57761
187.79396,0.57369
187.55289,0.57409
187.31182,0.57651
187.07075,0.57741
186.82968,0.57537
186.58861,0.57220
186.34754,0.57062
186.10647,0.57109
185.86540,0.57174
185.62433,0.57135
185.38326,0.57091
185.14219,0.57186
184.90112,0.57446
184.66005,0.57774
184.41898,0.58004
184.17791,0.57994
183.93683,0.57790
183.69576,0.57635
183.45469,0.57755
183.21362,0.58121
182.97255,0.58431
182.73148,0.58418
182.49041,0.58189
182.24934,0.58072
182.00827,0.58192
181.76720,0.58401
181.52613,0.58561
181.28506,0.58714
181.04399,0.58958
180.80292,0.59281
180.56185,0.59566
180.32078,0.59742
180.07971,0.59907
179.83864,0.60197
179.59756,0.60591
179.35649,0.61005
179.11542,0.61511
178.87435,0.62221
178.63328,0.63017
178.39221,0.63695
178.15114,0.64282
177.91007,0.64982
177.66900,0.65918
177.42793,0.67077
177.18686,0.68342
176.94579,0.69550
176.70472,0.70707
176.46365,0.72013
176.22258,0.73494
175.98151,0.74916
175.74044,0.76181
175.49937,0.77508
175.25829,0.79075
175.01722,0.80856
174.77615,0.82865
174.53508,0.85164
174.29401,0.87470
174.05294,0.89266
173.81187,0.90593
173.57080,0.92115
173.32973,0.94090
173.08866,0.95983
172.84759,0.97366
172.60652,0.98336
172.36545,0.98874
172.12438,0.98857
171.88331,0.98632
171.64224,0.98636
171.40117,0.98631
171.16010,0.98152
170.91902,0.97353
170.67795,0.96797
170.43688,0.96629
170.19581,0.96389
169.95474,0.95734
169.71367,0.94936
169.47260,0.94389
169.23153,0.94048
168.99046,0.93607
168.74939,0.92944
168.50832,0.92182
168.26725,0.91523
168.02618,0.91154
167.78511,0.91131
167.54404,0.91301
167.30297,0.91443
167.06190,0.91455
166.82083,0.91309
166.57975,0.91038
166.33868,0.90872
166.09761,0.91115
165.85654,0.91781
165.61547,0.92623
165.37440,0.93556
165.13333,0.94662
164.89226,0.95716
164.65119,0.96290
164.41012,0.96429
164.16905,0.96708
163.92798,0.97581
163.68691,0.99015
163.44584,1.00561
163.20477,1.01750
162.96370,1.02525
162.72263,1.03157
162.48156,1.03703
162.24048,1.03858
161.99941,1.03401
161.75834,1.02624
161.51727,1.02160
161.27620,1.02348
161.03513,1.02853
160.79406,1.03135
160.55299,1.03096
160.31192,1.02928
160.07085,1.02703
159.82978,1.02442
159.58871,1.02170
159.34764,1.01773
159.10657,1.01168
158.86550,1.00561
158.62443,1.00229
158.38336,1.00163
158.14229,1.00117
157.90121,0.99953
157.66014,0.99789
157.41907,0.99715
157.17800,0.99533
156.93693,0.98947
156.69586,0.97913
156.45479,0.96626
156.21372,0.95277
155.97265,0.93963
155.73158,0.92730
155.49051,0.91628
155.24944,0.90747
155.00837,0.90136
154.76730,0.89588
154.52623,0.88640
154.28516,0.87100
154.04409,0.85399
153.80302,0.84049
153.56194,0.83008
153.32087,0.81937
153.07980,0.80728
152.83873,0.79381
152.59766,0.77798
152.35659,0.76006
152.11552,0.74229
151.87445,0.72587
151.63338,0.71038
151.39231,0.69582
151.15124,0.68292
150.91017,0.67195
150.66910,0.66210
150.42803,0.65177
150.18696,0.64044
149.94589,0.62984
149.70482,0.62162
149.46375,0.61484
149.22267,0.60724
148.98160,0.59773
148.74053,0.58711
148.49946,0.57709
148.25839,0.56928
148.01732,0.56430
147.77625,0.56166
147.53518,0.56029
147.29411,0.55907
147.05304,0.55763
146.81197,0.55710
146.57090,0.55884
146.32983,0.56260
146.08876,0.56736
145.84769,0.57278
145.60662,0.57809
145.36555,0.58142
145.12448,0.58228
144.88340,0.58284
144.64233,0.58532
144.40126,0.58999
144.16019,0.59605
143.91912,0.60221
143.67805,0.60636
143.43698,0.60640
143.19591,0.60132
142.95484,0.59160
142.71377,0.57987
142.47270,0.56950
142.23163,0.56170
141.99056,0.55498
141.74949,0.54789
141.50842,0.54050
141.26735,0.53356
141.02628,0.52754
140.78521,0.52228
140.54413,0.51713
140.30306,0.51228
140.06199,0.50937
139.82092,0.50990
139.57985,0.51359
139.33878,0.51873
139.09771,0.52331
138.85664,0.52617
138.61557,0.52844
138.37450,0.53293
138.13343,0.54125
137.89236,0.55225
137.65129,0.56352
137.41022,0.57381
137.16915,0.58451
136.92808,0.59832
136.68701,0.61575
136.44594,0.63415
136.20486,0.65147
135.96379,0.66944
135.72272,0.69116
135.48165,0.71766
135.24058,0.74733
134.99951,0.77715
134.75844,0.80485
134.51737,0.83125
134.27630,0.85936
134.03523,0.89090
133.79416,0.92526
133.55309,0.96117
133.31202,0.99653
133.07095,1.02765
132.82988,1.05285
132.58881,1.07563
132.34774,1.10098
132.10667,1.13029
131.86559,1.16022
131.62452,1.18552
131.38345,1.19964
131.14238,1.19514
130.90131,1.17250
130.66024,1.14431
130.41917,1.12149
130.17810,1.10029
129.93703,1.07173
129.69596,1.03795
129.45489,1.00661
129.21382,0.97753
128.97275,0.94573
128.73168,0.91072
128.49061,0.87546
128.24954,0.84189
128.00847,0.81118
127.76740,0.78460
127.52632,0.76177
127.28525,0.73981
127.04418,0.71542
126.80311,0.68800
126.56204,0.66024
126.32097,0.63527
126.07990,0.61438
125.83883,0.59798
125.59776,0.58608
125.35669,0.57675
125.11562,0.56595
124.87455,0.55111
124.63348,0.53365
124.39241,0.51695
124.15134,0.50358
123.91027,0.49458
123.66920,0.48941
123.42812,0.48602
123.18705,0.48237
122.94598,0.47791
122.70491,0.47363
122.46384,0.47034
122.22277,0.46735
121.98170,0.46360
121.74063,0.45970
121.49956,0.45732
121.25849,0.45644
121.01742,0.45565
120.77635,0.45528
120.53528,0.45791
120.29421,0.46535
120.05314,0.47717
119.81207,0.49242
119.57100,0.51052
119.32993,0.53085
119.08885,0.55314
118.84778,0.57809
118.60671,0.60622
118.36564,0.63655
118.12457,0.66748
117.88350,0.69788
117.64243,0.72632
117.40136,0.75033
117.16029,0.76772
116.91922,0.77828
116.67815,0.78411
116.43708,0.78726
116.19601,0.78790
115.95494,0.78611
115.71387,0.78297
115.47280,0.77827
115.23173,0.77004
114.99066,0.75789
114.74958,0.74353
114.50851,0.72795
114.26744,0.71141
114.02637,0.69552
113.78530,0.68289
113.54423,0.67489
113.30316,0.67076
113.06209,0.66820
112.82102,0.66517
112.57995,0.66260
112.33888,0.66362
112.09781,0.67018
111.85674,0.68217
111.61567,0.69774
111.37460,0.71207
111.13353,0.71938
110.89246,0.71914
110.65139,0.71681
110.41031,0.71650
110.16924,0.71631
109.92817,0.71196
109.68710,0.70273
109.44603,0.69147
109.20496,0.67974
108.96389,0.66513
108.72282,0.64528
108.48175,0.62264
108.24068,0.60174
107.99961,0.58489
107.75854,0.57161
107.51747,0.55943
107.27640,0.54520
107.03533,0.52803
106.79426,0.51000
106.55319,0.49296
106.31212,0.47738
106.07104,0.46413
105.82997,0.45373
105.58890,0.44429
105.34783,0.43282
105.10676,0.41818
104.86569,0.40176
104.62462,0.38650
104.38355,0.37500
104.14248,0.36746
103.90141,0.36219
103.66034,0.35768
103.41927,0.35300
103.17820,0.34769
102.93713,0.34251
102.69606,0.33831
102.45499,0.33408
102.21392,0.32819
101.97285,0.32137
101.73177,0.31581
101.49070,0.31197
101.24963,0.30825
101.00856,0.30331
100.76749,0.29743
100.52642,0.29211
100.28535,0.28888
100.04428,0.28801
99.80321,0.28845
99.56214,0.28887
99.32107,0.28835
99.08000,0.28638
98.83893,0.28332
98.59786,0.28040
98.35679,0.27820
98.11572,0.27594
97.87465,0.27278
97.63358,0.26872
97.39250,0.26433
97.15143,0.26026
96.91036,0.25796
96.66929,0.26005
96.42822,0.26921
96.18715,0.28497
95.94608,0.30122
95.70501,0.30940
95.46394,0.30660
95.22287,0.29850
94.98180,0.29378
94.74073,0.29792
94.49966,0.31005
94.25859,0.32313
94.01752,0.32916
93.77645,0.32625
93.53538,0.32019
93.29431,0.31868
93.05323,0.32391
92.81216,0.32981
92.57109,0.32772
92.33002,0.31749
92.08895,0.30879
91.84788,0.31017
91.60681,0.32125
91.36574,0.33395
91.12467,0.34165
90.88360,0.34805
90.64253,0.36263
90.40146,0.38960
90.16039,0.42448
89.91932,0.46041
89.67825,0.49775
89.43718,0.54306
89.19611,0.59707
88.95504,0.64786
88.71396,0.68154
88.47289,0.69951
88.23182,0.70979
87.99075,0.70677
87.74968,0.68039
87.50861,0.64065
87.26754,0.60212
87.02647,0.56355
86.78540,0.52081
86.54433,0.48192
86.30326,0.45384
86.06219,0.43147
85.82112,0.40899
85.58005,0.38804
85.33898,0.36976
85.09791,0.35082
84.85684,0.33011
84.61577,0.31101
84.37469,0.29685
84.13362,0.28810
83.89255,0.28222
83.65148,0.27584
83.41041,0.26796
83.16934,0.25922
82.92827,0.24985
82.68720,0.24111
82.44613,0.23531
82.20506,0.23224
81.96399,0.22911
81.72292,0.22447
81.48185,0.21960
81.24078,0.21620
80.99971,0.21446
80.75864,0.21291
80.51757,0.20988
80.27650,0.20562
80.03542,0.20177
79.79435,0.19891
79.55328,0.19625
79.31221,0.19336
79.07114,0.19058
78.83007,0.18836
78.58900,0.18704
78.34793,0.18636
78.10686,0.18501
77.86579,0.18185
77.62472,0.17747
77.38365,0.17330
77.14258,0.16975
76.90151,0.16640
76.66044,0.16341
76.41937,0.16176
76.17830,0.16218
75.93723,0.16382
75.69615,0.16443
75.45508,0.16290
75.21401,0.16074
74.97294,0.15972
74.73187,0.15941
74.49080,0.15891
74.24973,0.15875
74.00866,0.15979
73.76759,0.16168
73.52652,0.16322
73.28545,0.16305
73.04438,0.16100
72.80331,0.15852
72.56224,0.15645
72.32117,0.15422
72.08010,0.15241
71.83903,0.15262
71.59796,0.15420
71.35688,0.15525
71.11581,0.15658
70.87474,0.16001
70.63367,0.16431
70.39260,0.16705
70.15153,0.17002
69.91046,0.17882
69.66939,0.19652
69.42832,0.21838
69.18725,0.23278
68.94618,0.23213
68.70511,0.22243
68.46404,0.21490
68.22297,0.21317
67.98190,0.21172
67.74083,0.20330
67.49976,0.18747
67.25869,0.17121
67.01761,0.16185
66.77654,0.16109
66.53547,0.16362
66.29440,0.16208
66.05333,0.15476
65.81226,0.14575
65.57119,0.13929
65.33012,0.13770
65.08905,0.14258
64.84798,0.15433
64.60691,0.17060
64.36584,0.18588
64.12477,0.19407
63.88370,0.19348
63.64263,0.18770
63.40156,0.18077
63.16049,0.17492
62.91942,0.17210
62.67834,0.17329
62.43727,0.17629
62.19620,0.17678
61.95513,0.17185
61.71406,0.16114
61.47299,0.14554
61.23192,0.12669
60.99085,0.10824
60.74978,0.09553
60.50871,0.09259
60.26764,0.09883
60.02657,0.10961
59.78550,0.12043
59.54443,0.12959
59.30336,0.13728
59.06229,0.14426
58.82122,0.15075
58.58015,0.15518
58.33907,0.15573
58.09800,0.15335
57.85693,0.15140
57.61586,0.15214
57.37479,0.15431
57.13372,0.15438
56.89265,0.15092
56.65158,0.14675
56.41051,0.14552
56.16944,0.14772
55.92837,0.15126
55.68730,0.15420
55.44623,0.15562
55.20516,0.15567
54.96409,0.15563
54.72302,0.15651
54.48195,0.15730
54.24088,0.15567
53.99980,0.15003
53.75873,0.13989
53.51766,0.12558
53.27659,0.10914
53.03552,0.09355
52.79445,0.08116
52.55338,0.07372
52.31231,0.07250
52.07124,0.07683
51.83017,0.08433
51.58910,0.09314
51.34803,0.10253
51.10696,0.11290
50.86589,0.12627
50.62482,0.14320
50.38375,0.16112
50.14268,0.17979
49.90161,0.20249
49.66053,0.22200
49.41946,0.21520
49.17839,0.17530
48.93732,0.12370
48.69625,0.08116
48.45518,0.05917
48.21411,0.06261
47.97304,0.09327
47.73197,0.15965
47.49090,0.25206
47.24983,0.26076
47.00876,0.16968
46.76769,0.10172
46.52662,0.08143
46.28555,0.09934
46.04448,0.13350
45.80341,0.14009
45.56234,0.11187
45.32126,0.09267
45.08019,0.10677
44.83912,0.13992
44.59805,0.14290
44.35698,0.11258
44.11591,0.10453
43.87484,0.12859
43.63377,0.14533
43.39270,0.13422
43.15163,0.12829
42.91056,0.14147
42.66949,0.15091
42.42842,0.14817
42.18735,0.15056
41.94628,0.15954
41.70521,0.16184
41.46414,0.15636
41.22307,0.15211
40.98199,0.15257
40.74092,0.15809
40.49985,0.16904
40.25878,0.18561
40.01771,0.20371
39.77664,0.21064
39.53557,0.19920
39.29450,0.18225
39.05343,0.17511
38.81236,0.17874
38.57129,0.18623
38.33022,0.19215
38.08915,0.19578
37.84808,0.20123
37.60701,0.20789
37.36594,0.20636
37.12487,0.19393
36.88380,0.17929
36.64272,0.17074
36.40165,0.17050
36.16058,0.17835
35.91951,0.18979
35.67844,0.19523
35.43737,0.18939
35.19630,0.17575
34.95523,0.16188
34.71416,0.15657
34.47309,0.16535
34.23202,0.18389
33.99095,0.20248
33.74988,0.21708
33.50881,0.22563
33.26774,0.22094
33.02667,0.20251
32.78560,0.18764
32.54453,0.19415
32.30345,0.21881
32.06238,0.23893
31.82131,0.23013
31.58024,0.19284
31.33917,0.15180
31.09810,0.12485
30.85703,0.11293
30.61596,0.11187
30.37489,0.11865
30.13382,0.12718
29.89275,0.12714
29.65168,0.11224
29.41061,0.08304
29.16954,0.04460
28.92847,0.00669
28.68740,-0.02158
28.44633,-0.03751
28.20526,-0.04344
27.96418,-0.04841
27.72311,-0.06408
27.48204,-0.08869
27.24097,-0.10558
26.99990,-0.10470
26.75883,-0.09331
26.51776,-0.08692
26.27669,-0.09606
26.03562,-0.11519
25.79455,-0.13056
25.55348,-0.13757
25.31241,-0.13712
25.07134,-0.12953
24.83027,-0.12361
24.58920,-0.13521
24.34813,-0.16948
24.10706,-0.21091
23.86599,-0.23490
23.62491,-0.23565
23.38384,-0.23208
23.14277,-0.23293
22.90170,-0.22129
22.66063,-0.18475
22.41956,-0.13989
22.17849,-0.11906
21.93742,-0.14584
21.69635,-0.21118
21.45528,-0.28080
21.21421,-0.32890
20.97314,-0.34872
20.73207,-0.34916
20.49100,-0.34450
20.24993,-0.35038
20.00886,-0.37727
19.76779,-0.42183
19.52672,-0.45278
19.28564,-0.43184
19.04457,-0.38189
18.80350,-0.34221
18.56243,-0.33071
18.32136,-0.34622
18.08029,-0.37720
17.83922,-0.40367
17.59815,-0.41339
17.35708,-0.41539
17.11601,-0.41783
16.87494,-0.41723
16.63387,-0.41638
16.39280,-0.42064
16.15173,-0.42669
15.91066,-0.43029
15.66959,-0.43758
15.42852,-0.45045
15.18745,-0.43902
14.94637,-0.42606
14.70530,-0.42378
14.46423,-0.41211
14.22316,-0.38757
13.98209,-0.36728
13.74102,-0.36375
13.49995,-0.37356
13.25888,-0.38123
13.01781,-0.37548
12.77674,-0.37708
12.53567,-0.40424
12.29460,-0.43145
12.05353,-0.42706
11.81246,-0.41171
11.57139,-0.41244
11.33032,-0.42860
11.08925,-0.42004
10.84818,-0.39597
10.60710,-0.37770
10.36603,-0.37016
10.12496,-0.36787
9.88389,-0.37264
9.64282,-0.38492
9.40175,-0.39397
9.16068,-0.38745
8.91961,-0.36820
8.67854,-0.35307
8.43747,-0.35383
8.19640,-0.36939
7.95533,-0.39512
7.71426,-0.41745
7.47319,-0.42064
7.23212,-0.43310
6.99105,-0.45162
6.74998,-0.45877
6.50891,-0.44347
6.26783,-0.40816
6.02676,-0.38632
5.78569,-0.38706
5.54462,-0.39172
5.30355,-0.39271
5.06248,-0.40167
4.82141,-0.42311
4.58034,-0.44862
4.33927,-0.46775
4.09820,-0.46493
3.85713,-0.43879
3.61606,-0.42267
3.37499,-0.42676
3.13392,-0.43164
2.89285,-0.41466
2.65178,-0.41389
2.41071,-0.41170
2.16964,-0.38651
1.92856,-0.36505
1.68749,-0.36246
1.44642,-0.38346
1.20535,-0.41621
0.96428,-0.43714
0.72321,-0.43942
0.48214,-0.43017
0.24107,-0.40230
-0.00000,-0.30065
