399.69498,1.56355
399.45391,1.57165
399.21284,1.56679
398.97177,1.55752
398.73070,1.56188
398.48963,1.57969
398.24856,1.59059
398.00749,1.58248
397.76642,1.56509
397.52535,1.55245
397.28428,1.54806
397.04321,1.54718
396.80214,1.54720
396.56107,1.54802
396.32000,1.54876
396.07892,1.54974
395.83785,1.54885
395.59678,1.54230
395.35571,1.53075
395.11464,1.51797
394.87357,1.50726
394.63250,1.50190
394.39143,1.50722
394.15036,1.52369
393.90929,1.53740
393.66822,1.53005
393.42715,1.50330
393.18608,1.47582
392.94501,1.45857
392.70394,1.45160
392.46287,1.45576
392.22180,1.47348
391.98073,1.49892
391.73965,1.51417
391.49858,1.51606
391.25751,1.52376
391.01644,1.54293
390.77537,1.55647
390.53430,1.54801
390.29323,1.52467
390.05216,1.50407
389.81109,1.49077
389.57002,1.48041
389.32895,1.47413
389.08788,1.47453
388.84681,1.47876
388.60574,1.48630
388.36467,1.49770
388.12360,1.50284
387.88253,1.48626
387.64146,1.45397
387.40038,1.43224
387.15931,1.43617
386.91824,1.45663
386.67717,1.47255
386.43610,1.47309
386.19503,1.46124
385.95396,1.44013
385.71289,1.41140
385.47182,1.38125
385.23075,1.36067
384.98968,1.36054
384.74861,1.38124
384.50754,1.40563
384.26647,1.41378
384.02540,1.40304
383.78433,1.38323
383.54326,1.36594
383.30219,1.35881
383.06111,1.35466
382.82004,1.33802
382.57897,1.31078
382.33790,1.28921
382.09683,1.28244
381.85576,1.28743
381.61469,1.29342
381.37362,1.28689
381.13255,1.26711
380.89148,1.24669
380.65041,1.23625
380.40934,1.23993
380.16827,1.25246
379.92720,1.26035
379.68613,1.25842
379.44506,1.25957
379.20399,1.27700
378.96292,1.30580
378.72184,1.32671
378.48077,1.32865
378.23970,1.32567
377.99863,1.34129
377.75756,1.37662
377.51649,1.40370
377.27542,1.40128
377.03435,1.38317
376.79328,1.37074
376.55221,1.36733
376.31114,1.36734
376.07007,1.37145
375.82900,1.38138
375.58793,1.39140
375.34686,1.39737
375.10579,1.40168
374.86472,1.40802
374.62365,1.41793
374.38257,1.43195
374.14150,1.44623
373.90043,1.44675
373.65936,1.42953
373.41829,1.41296
373.17722,1.40982
372.93615,1.41387
372.69508,1.41601
372.45401,1.41506
372.21294,1.41252
371.97187,1.41117
371.73080,1.41539
371.48973,1.42713
371.24866,1.44327
371.00759,1.45441
370.76652,1.45019
370.52545,1.43229
370.28437,1.41225
370.04330,1.39637
369.80223,1.38372
369.56116,1.37269
369.32009,1.36274
369.07902,1.35554
368.83795,1.35387
368.59688,1.35644
368.35581,1.35559
368.11474,1.34591
367.87367,1.33291
367.63260,1.32711
367.39153,1.33212
367.15046,1.34167
366.90939,1.34742
366.66832,1.34744
366.42725,1.34479
366.18618,1.34145
365.94510,1.33663
365.70403,1.33066
365.46296,1.32652
365.22189,1.32625
364.98082,1.32860
364.73975,1.33129
364.49868,1.33277
364.25761,1.33043
364.01654,1.32158
363.77547,1.30896
363.53440,1.30105
363.29333,1.30284
363.05226,1.30856
362.81119,1.30741
362.57012,1.29705
362.32905,1.28627
362.08798,1.28272
361.84691,1.28450
361.60583,1.28636
361.36476,1.28818
361.12369,1.29204
360.88262,1.29633
360.64155,1.29842
360.40048,1.29980
360.15941,1.30310
359.91834,1.30608
359.67727,1.30416
359.43620,1.29854
359.19513,1.29753
358.95406,1.30534
358.71299,1.31157
358.47192,1.30152
358.23085,1.27837
357.98978,1.26050
357.74871,1.25854
357.50764,1.26709
357.26656,1.27503
357.02549,1.27755
356.78442,1.27592
356.54335,1.27119
356.30228,1.26490
356.06121,1.25962
355.82014,1.25505
355.57907,1.24876
355.33800,1.24112
355.09693,1.23608
354.85586,1.23776
354.61479,1.24749
354.37372,1.26157
354.13265,1.27229
353.89158,1.27441
353.65051,1.26918
353.40944,1.26123
353.16837,1.25426
352.92729,1.25143
352.68622,1.25526
352.44515,1.26320
352.20408,1.26816
351.96301,1.26691
351.72194,1.26405
351.48087,1.26285
351.23980,1.25907
350.99873,1.25170
350.75766,1.24870
350.51659,1.25371
350.27552,1.26055
350.03445,1.26545
349.79338,1.27129
349.55231,1.27664
349.31124,1.27741
349.07017,1.27762
348.82910,1.28376
348.58802,1.29260
348.34695,1.29346
348.10588,1.28244
347.86481,1.26808
347.62374,1.26119
347.38267,1.26595
347.14160,1.27908
346.90053,1.29292
346.65946,1.29913
346.41839,1.29332
346.17732,1.27986
345.93625,1.27053
345.69518,1.27463
345.45411,1.28932
345.21304,1.30367
344.97197,1.31079
344.73090,1.31120
344.48983,1.30996
344.24875,1.31199
344.00768,1.31662
343.76661,1.31909
343.52554,1.31929
343.28447,1.32247
343.04340,1.32895
342.80233,1.33202
342.56126,1.32929
342.32019,1.32903
342.07912,1.34036
341.83805,1.36052
341.59698,1.37502
341.35591,1.37316
341.11484,1.36154
340.87377,1.35556
340.63270,1.36075
340.39163,1.37203
340.15056,1.38382
339.90948,1.39360
339.66841,1.39822
339.42734,1.39325
339.18627,1.37983
338.94520,1.36758
338.70413,1.36681
338.46306,1.37828
338.22199,1.39322
337.98092,1.40232
337.73985,1.40205
337.49878,1.39730
337.25771,1.39889
337.01664,1.40985
336.77557,1.42296
336.53450,1.43208
336.29343,1.43357
336.05236,1.42410
335.81129,1.40692
335.57021,1.38983
335.32914,1.37640
335.08807,1.36602
334.84700,1.36264
334.60593,1.37400
334.36486,1.39786
334.12379,1.41552
333.88272,1.40816
333.64165,1.38215
333.40058,1.35942
333.15951,1.34822
332.91844,1.33887
332.67737,1.32201
332.43630,1.30400
332.19523,1.29816
331.95416,1.30696
331.71309,1.32189
331.47202,1.33555
331.23094,1.34632
330.98987,1.35121
330.74880,1.34508
330.50773,1.33137
330.26666,1.31943
330.02559,1.31036
329.78452,1.29796
329.54345,1.28311
329.30238,1.27591
329.06131,1.28192
328.82024,1.29414
328.57917,1.30209
328.33810,1.30296
328.09703,1.29936
327.85596,1.29190
327.61489,1.28090
327.37382,1.27205
327.13275,1.27091
326.89167,1.27603
326.65060,1.28635
326.40953,1.30624
326.16846,1.33453
325.92739,1.35820
325.68632,1.36367
325.44525,1.35389
325.20418,1.34544
324.96311,1.34542
324.72204,1.34326
324.48097,1.32809
324.23990,1.30666
323.99883,1.29603
323.75776,1.30335
323.51669,1.31876
323.27562,1.32811
323.03455,1.32729
322.79348,1.31922
322.55240,1.30910
322.31133,1.30437
322.07026,1.31045
321.82919,1.32243
321.58812,1.32687
321.34705,1.31875
321.10598,1.31081
320.86491,1.31753
320.62384,1.33287
320.38277,1.33500
320.14170,1.31714
319.90063,1.29759
319.65956,1.29212
319.41849,1.29638
319.17742,1.29750
318.93635,1.29348
318.69528,1.29268
318.45421,1.29981
318.21313,1.30740
317.97206,1.30256
317.73099,1.28442
317.48992,1.26876
317.24885,1.26991
317.00778,1.28752
316.76671,1.31216
316.52564,1.33361
316.28457,1.34391
316.04350,1.33974
315.80243,1.32564
315.56136,1.31257
315.32029,1.30759
315.07922,1.30992
314.83815,1.31978
314.59708,1.33952
314.35601,1.36533
314.11494,1.38321
313.87386,1.37980
313.63279,1.35909
313.39172,1.34032
313.15065,1.33847
312.90958,1.34946
312.66851,1.36044
312.42744,1.36957
312.18637,1.37971
311.94530,1.38437
311.70423,1.37275
311.46316,1.35303
311.22209,1.34657
310.98102,1.36034
310.73995,1.38076
310.49888,1.39689
310.25781,1.40702
310.01674,1.40481
309.77567,1.38602
309.53459,1.36038
309.29352,1.34503
309.05245,1.34938
308.81138,1.36962
308.57031,1.39726
308.32924,1.42507
308.08817,1.44262
307.84710,1.44382
307.60603,1.43638
307.36496,1.43179
307.12389,1.43437
306.88282,1.44174
306.64175,1.44896
306.40068,1.44859
306.15961,1.43279
305.91854,1.40410
305.67747,1.37430
305.43640,1.35410
305.19532,1.34897
304.95425,1.35599
304.71318,1.36577
304.47211,1.37116
304.23104,1.37073
303.98997,1.36632
303.74890,1.36260
303.50783,1.36342
303.26676,1.36768
303.02569,1.37102
302.78462,1.36821
302.54355,1.35619
302.30248,1.33892
302.06141,1.32439
301.82034,1.31593
301.57927,1.31131
301.33820,1.30865
301.09713,1.30918
300.85605,1.31389
300.61498,1.32045
300.37391,1.32343
300.13284,1.31741
299.89177,1.30276
299.65070,1.28761
299.40963,1.28064
299.16856,1.28316
298.92749,1.28928
298.68642,1.29199
298.44535,1.28765
298.20428,1.27873
297.96321,1.27088
297.72214,1.26662
297.48107,1.26525
297.24000,1.26500
296.99893,1.26311
296.75786,1.25754
296.51678,1.24946
296.27571,1.24262
296.03464,1.23857
295.79357,1.23461
295.55250,1.22869
295.31143,1.22288
295.07036,1.21972
294.82929,1.21818
294.58822,1.21418
294.34715,1.20633
294.10608,1.19833
293.86501,1.19453
293.62394,1.19504
293.38287,1.19652
293.14180,1.19576
292.90073,1.19112
292.65966,1.18470
292.41859,1.18173
292.17751,1.18416
291.93644,1.18846
291.69537,1.19186
291.45430,1.19507
291.21323,1.19736
290.97216,1.19436
290.73109,1.18311
290.49002,1.16668
290.24895,1.15217
290.00788,1.14480
289.76681,1.14380
289.52574,1.14400
289.28467,1.14215
289.04360,1.14035
288.80253,1.14163
288.56146,1.14528
288.32039,1.14829
288.07932,1.14842
287.83824,1.14532
287.59717,1.14106
287.35610,1.13949
287.11503,1.14247
286.87396,1.14666
286.63289,1.14675
286.39182,1.14164
286.15075,1.13537
285.90968,1.13188
285.66861,1.13133
285.42754,1.13170
285.18647,1.13171
284.94540,1.13082
284.70433,1.12846
284.46326,1.12552
284.22219,1.12434
283.98112,1.12608
283.74005,1.12972
283.49897,1.13341
283.25790,1.13540
283.01683,1.13529
282.77576,1.13450
282.53469,1.13374
282.29362,1.13220
282.05255,1.12958
281.81148,1.12736
281.57041,1.12781
281.32934,1.13149
281.08827,1.13659
280.84720,1.14091
280.60613,1.14336
280.36506,1.14345
280.12399,1.14098
279.88292,1.13689
279.64185,1.13346
279.40078,1.13262
279.15970,1.13420
278.91863,1.13594
278.67756,1.13533
278.43649,1.13198
278.19542,1.12804
277.95435,1.12642
277.71328,1.12901
277.47221,1.13492
277.23114,1.14089
276.99007,1.14462
276.74900,1.14562
276.50793,1.14256
276.26686,1.13533
276.02579,1.12889
275.78472,1.12802
275.54365,1.13031
275.30258,1.12952
275.06151,1.12505
274.82043,1.12317
274.57936,1.12883
274.33829,1.13902
274.09722,1.14570
273.85615,1.14524
273.61508,1.14174
273.37401,1.14089
273.13294,1.14461
272.89187,1.15079
272.65080,1.15563
272.40973,1.15680
272.16866,1.15532
271.92759,1.15392
271.68652,1.15418
271.44545,1.15609
271.20438,1.15880
270.96331,1.16102
270.72224,1.16189
270.48116,1.16145
270.24009,1.16087
269.99902,1.16219
269.75795,1.16670
269.51688,1.17292
269.27581,1.17805
269.03474,1.18078
268.79367,1.18157
268.55260,1.18242
268.31153,1.18639
268.07046,1.19485
267.82939,1.20475
267.58832,1.21217
267.34725,1.21852
267.10618,1.22833
266.86511,1.24128
266.62404,1.25137
266.38297,1.25535
266.14189,1.25694
265.90082,1.26140
265.65975,1.27016
265.41868,1.28044
265.17761,1.28855
264.93654,1.29401
264.69547,1.29971
264.45440,1.30832
264.21333,1.31974
263.97226,1.33169
263.73119,1.34160
263.49012,1.34872
263.24905,1.35501
263.00798,1.36281
262.76691,1.37209
262.52584,1.38138
262.28477,1.39150
262.04370,1.40597
261.80262,1.42615
261.56155,1.44946
261.32048,1.47397
261.07941,1.49986
260.83834,1.52614
260.59727,1.55132
260.35620,1.57754
260.11513,1.60904
259.87406,1.64486
259.63299,1.67736
259.39192,1.69784
259.15085,1.70453
258.90978,1.70407
258.66871,1.70696
258.42764,1.72476
258.18657,1.76009
257.94550,1.79391
257.70443,1.80278
257.46335,1.79306
257.22228,1.78210
256.98121,1.77248
256.74014,1.77020
256.49907,1.78415
256.25800,1.80478
256.01693,1.81839
255.77586,1.81914
255.53479,1.79998
255.29372,1.76221
255.05265,1.72585
254.81158,1.70616
254.57051,1.69413
254.32944,1.67391
254.08837,1.65129
253.84730,1.64672
253.60623,1.66353
253.36516,1.67932
253.12408,1.67201
252.88301,1.64453
252.64194,1.61564
252.40087,1.59888
252.15980,1.59647
251.91873,1.60377
251.67766,1.61381
251.43659,1.61789
251.19552,1.60694
250.95445,1.58332
250.71338,1.56376
250.47231,1.55965
250.23124,1.56506
249.99017,1.56615
249.74910,1.55564
249.50803,1.53755
249.26696,1.52558
249.02589,1.53184
248.78481,1.55092
248.54374,1.56176
248.30267,1.55471
248.06160,1.54566
247.82053,1.55411
247.57946,1.58158
247.33839,1.61163
247.09732,1.62513
246.85625,1.62051
246.61518,1.61327
246.37411,1.61470
246.13304,1.61945
245.89197,1.61668
245.65090,1.61106
245.40983,1.62248
245.16876,1.66218
244.92769,1.71613
244.68661,1.75465
244.44554,1.76595
244.20447,1.76817
243.96340,1.78456
243.72233,1.82828
243.48126,1.89872
243.24019,1.97702
242.99912,2.02782
242.75805,2.01572
242.51698,1.92549
242.27591,1.82410
242.03484,1.72724
241.79377,1.63370
241.55270,1.55506
241.31163,1.50022
241.07056,1.46234
240.82949,1.42937
240.58842,1.39539
240.34734,1.35871
240.10627,1.31959
239.86520,1.28204
239.62413,1.24989
239.38306,1.21974
239.14199,1.18515
238.90092,1.14760
238.65985,1.11656
238.41878,1.09897
238.17771,1.09209
237.93664,1.08651
237.69557,1.07595
237.45450,1.06252
237.21343,1.05101
236.97236,1.04168
236.73129,1.03085
236.49022,1.01587
236.24915,0.99775
236.00807,0.98001
235.76700,0.96568
235.52593,0.95531
235.28486,0.94711
235.04379,0.93942
234.80272,0.93240
234.56165,0.92690
234.32058,0.92278
234.07951,0.91913
233.83844,0.91575
233.59737,0.91332
233.35630,0.91184
233.11523,0.91005
232.87416,0.90716
232.63309,0.90360
232.39202,0.90002
232.15095,0.89674
231.90988,0.89378
231.66880,0.89129
231.42773,0.88947
231.18666,0.88794
230.94559,0.88488
230.70452,0.87853
230.46345,0.87012
230.22238,0.86254
229.98131,0.85615
229.74024,0.84977
229.49917,0.84547
229.25810,0.84707
229.01703,0.85350
228.77596,0.85828
228.53489,0.85735
228.29382,0.85354
228.05275,0.85146
227.81168,0.85159
227.57061,0.85090
227.32953,0.84798
227.08846,0.84505
226.84739,0.84464
226.60632,0.84580
226.36525,0.84478
226.12418,0.83933
225.88311,0.83134
225.64204,0.82500
225.40097,0.82295
225.15990,0.82470
224.91883,0.82815
224.67776,0.83197
224.43669,0.83582
224.19562,0.83884
223.95455,0.83957
223.71348,0.83797
223.47241,0.83541
223.23134,0.83300
222.99026,0.83235
222.74919,0.83568
222.50812,0.84245
222.26705,0.84869
222.02598,0.85265
221.78491,0.85726
221.54384,0.86424
221.30277,0.87152
221.06170,0.87893
220.82063,0.88895
220.57956,0.89966
220.33849,0.90537
220.09742,0.90603
219.85635,0.90811
219.61528,0.91542
219.37421,0.92530
219.13314,0.93417
218.89207,0.94223
218.65099,0.95179
218.40992,0.96418
218.16885,0.97853
217.92778,0.99182
217.68671,1.00072
217.44564,1.00526
217.20457,1.00934
216.96350,1.01670
216.72243,1.02867
216.48136,1.04520
216.24029,1.06490
215.99922,1.08456
215.75815,1.10113
215.51708,1.11372
215.27601,1.12208
215.03494,1.12532
214.79387,1.12466
214.55280,1.12367
214.31172,1.12491
214.07065,1.12981
213.82958,1.14035
213.58851,1.15710
213.34744,1.17723
213.10637,1.19659
212.86530,1.21206
212.62423,1.22015
212.38316,1.21775
212.14209,1.20757
211.90102,1.19808
211.65995,1.19693
211.41888,1.20742
211.17781,1.22718
210.93674,1.24646
210.69567,1.25360
210.45460,1.24692
210.21353,1.23508
209.97245,1.22574
209.73138,1.22004
209.49031,1.21655
209.24924,1.21578
209.00817,1.21840
208.76710,1.22116
208.52603,1.21809
208.28496,1.20604
208.04389,1.18877
207.80282,1.17504
207.56175,1.17136
207.32068,1.17573
207.07961,1.17977
206.83854,1.17752
206.59747,1.16872
206.35640,1.15433
206.11533,1.13536
205.87426,1.11631
205.63318,1.10391
205.39211,1.10169
205.15104,1.10532
204.90997,1.10340
204.66890,1.08748
204.42783,1.06083
204.18676,1.03422
203.94569,1.01667
203.70462,1.01080
203.46355,1.01257
203.22248,1.01310
202.98141,1.00277
202.74034,0.97857
202.49927,0.94831
202.25820,0.92426
202.01713,0.91232
201.77606,0.90844
201.53499,0.90352
201.29391,0.89300
201.05284,0.88087
200.81177,0.87207
200.57070,0.86585
200.32963,0.85815
200.08856,0.84616
199.84749,0.83081
199.60642,0.81647
199.36535,0.80738
199.12428,0.80373
198.88321,0.80079
198.64214,0.79289
198.40107,0.77915
198.16000,0.76433
197.91893,0.75365
197.67786,0.74731
197.43679,0.74072
197.19572,0.73081
196.95464,0.72036
196.71357,0.71387
196.47250,0.71152
196.23143,0.70895
195.99036,0.70162
195.74929,0.68948
195.50822,0.67747
195.26715,0.67041
195.02608,0.66798
194.78501,0.66531
194.54394,0.65869
194.30287,0.64985
194.06180,0.64328
193.82073,0.64058
193.57966,0.63946
193.33859,0.63735
193.09752,0.63416
192.85645,0.63108
192.61537,0.62805
192.37430,0.62363
192.13323,0.61675
191.89216,0.60888
191.65109,0.60301
191.41002,0.59991
191.16895,0.59714
190.92788,0.59270
190.68681,0.58768
190.44574,0.58440
190.20467,0.58354
189.96360,0.58389
189.72253,0.58355
189.48146,0.58161
189.24039,0.57905
188.99932,0.57736
188.75825,0.57613
188.51718,0.57351
188.27610,0.56989
188.03503,0.56831
187.79396,0.56957
187.55289,0.57012
187.31182,0.56716
187.07075,0.56344
186.82968,0.56358
186.58861,0.56764
186.34754,0.57120
186.10647,0.57118
185.86540,0.56922
185.62433,0.56858
185.38326,0.56945
185.14219,0.56914
184.90112,0.56719
184.66005,0.56664
184.41898,0.56877
184.17791,0.57043
183.93683,0.56894
183.69576,0.56675
183.45469,0.56756
183.21362,0.57026
182.97255,0.57064
182.73148,0.56830
182.49041,0.56722
182.24934,0.56932
182.00827,0.57179
181.76720,0.57209
181.52613,0.57204
181.28506,0.57442
181.04399,0.57853
180.80292,0.58177
180.56185,0.58364
180.32078,0.58530
180.07971,0.58679
179.83864,0.58852
179.59756,0.59288
179.35649,0.60070
179.11542,0.60887
178.87435,0.61480
178.63328,0.61929
178.39221,0.62347
178.15114,0.62798
177.91007,0.63530
177.66900,0.64705
177.42793,0.66026
177.18686,0.67132
176.94579,0.68149
176.70472,0.69378
176.46365,0.70826
176.22258,0.72390
175.98151,0.74065
175.74044,0.75706
175.49937,0.76991
175.25829,0.77876
175.01722,0.78802
174.77615,0.80213
174.53508,0.82053
174.29401,0.83875
174.05294,0.85375
173.81187,0.86630
173.57080,0.87909
173.32973,0.89382
173.08866,0.91025
172.84759,0.92782
172.60652,0.94663
172.36545,0.96427
172.12438,0.97363
171.88331,0.97022
171.64224,0.95962
171.40117,0.95075
171.16010,0.94540
170.91902,0.93913
170.67795,0.92919
170.43688,0.91787
170.19581,0.90911
169.95474,0.90460
169.71367,0.90323
169.47260,0.90267
169.23153,0.90088
168.99046,0.89790
168.74939,0.89604
168.50832,0.89664
168.26725,0.89790
168.02618,0.89741
167.78511,0.89549
167.54404,0.89444
167.30297,0.89514
167.06190,0.89583
166.82083,0.89491
166.57975,0.89375
166.33868,0.89533
166.09761,0.90116
165.85654,0.91009
165.61547,0.91875
165.37440,0.92306
165.13333,0.92221
164.89226,0.92052
164.65119,0.92207
164.41012,0.92602
164.16905,0.93039
163.92798,0.93727
163.68691,0.94984
163.44584,0.96602
163.20477,0.98026
162.96370,0.99023
162.72263,0.99736
162.48156,1.00186
162.24048,1.00217
161.99941,0.99850
161.75834,0.99321
161.51727,0.98919
161.27620,0.98943
161.03513,0.99620
160.79406,1.00933
160.55299,1.02452
160.31192,1.03407
160.07085,1.03213
159.82978,1.01899
159.58871,0.99937
159.34764,0.98034
159.10657,0.96832
158.86550,0.96509
158.62443,0.96720
158.38336,0.96982
158.14229,0.97029
157.90121,0.96757
157.66014,0.96131
157.41907,0.95258
157.17800,0.94352
156.93693,0.93606
156.69586,0.93145
156.45479,0.92990
156.21372,0.92958
155.97265,0.92708
155.73158,0.91998
155.49051,0.90828
155.24944,0.89428
155.00837,0.88171
154.76730,0.87340
154.52623,0.86865
154.28516,0.86427
154.04409,0.85746
153.80302,0.84578
153.56194,0.82737
153.32087,0.80475
153.07980,0.78477
152.83873,0.77232
152.59766,0.76521
152.35659,0.75645
152.11552,0.74113
151.87445,0.72019
151.63338,0.69862
151.39231,0.68190
151.15124,0.67262
150.91017,0.66780
150.66910,0.66040
150.42803,0.64662
150.18696,0.63021
149.94589,0.61702
149.70482,0.60847
149.46375,0.60161
149.22267,0.59362
148.98160,0.58497
148.74053,0.57810
148.49946,0.57380
148.25839,0.57019
148.01732,0.56544
147.77625,0.56018
147.53518,0.55633
147.29411,0.55472
147.05304,0.55472
146.81197,0.55508
146.57090,0.55486
146.32983,0.55433
146.08876,0.55492
145.84769,0.55782
145.60662,0.56274
145.36555,0.56840
145.12448,0.57379
144.88340,0.57846
144.64233,0.58200
144.40126,0.58423
144.16019,0.58583
143.91912,0.58775
143.67805,0.58980
143.43698,0.59015
143.19591,0.58684
142.95484,0.57970
142.71377,0.57094
142.47270,0.56320
142.23163,0.55728
141.99056,0.55185
141.74949,0.54506
141.50842,0.53618
141.26735,0.52625
141.02628,0.51742
140.78521,0.51109
140.54413,0.50705
140.30306,0.50479
140.06199,0.50445
139.82092,0.50579
139.57985,0.50800
139.33878,0.51122
139.09771,0.51636
138.85664,0.52297
138.61557,0.52893
138.37450,0.53311
138.13343,0.53740
137.89236,0.54488
137.65129,0.55636
137.41022,0.57000
137.16915,0.58424
136.92808,0.59957
136.68701,0.61643
136.44594,0.63350
136.20486,0.65030
135.96379,0.66992
135.72272,0.69532
135.48165,0.72387
135.24058,0.74989
134.99951,0.77241
134.75844,0.79567
134.51737,0.82227
134.27630,0.85139
134.03523,0.88220
133.79416,0.91345
133.55309,0.94282
133.31202,0.97056
133.07095,0.99910
132.82988,1.02803
132.58881,1.05573
132.34774,1.08374
132.10667,1.11307
131.86559,1.13982
131.62452,1.15717
131.38345,1.15966
131.14238,1.14764
130.90131,1.12839
130.66024,1.10878
130.41917,1.08860
130.17810,1.06515
129.93703,1.04051
129.69596,1.01860
129.45489,0.99680
129.21382,0.96780
128.97275,0.93017
128.73168,0.89061
128.49061,0.85603
128.24954,0.82720
128.00847,0.80072
127.76740,0.77428
127.52632,0.74794
127.28525,0.72198
127.04418,0.69580
126.80311,0.66957
126.56204,0.64518
126.32097,0.62453
126.07990,0.60751
125.83883,0.59221
125.59776,0.57698
125.35669,0.56152
125.11562,0.54603
124.87455,0.53028
124.63348,0.51458
124.39241,0.50054
124.15134,0.48971
123.91027,0.48199
123.66920,0.47633
123.42812,0.47198
123.18705,0.46869
122.94598,0.46653
122.70491,0.46591
122.46384,0.46681
122.22277,0.46800
121.98170,0.46778
121.74063,0.46557
121.49956,0.46242
121.25849,0.46009
121.01742,0.46026
120.77635,0.46406
120.53528,0.47144
120.29421,0.48096
120.05314,0.49136
119.81207,0.50341
119.57100,0.51868
119.32993,0.53691
119.08885,0.55619
118.84778,0.57591
118.60671,0.59828
118.36564,0.62619
118.12457,0.65922
117.88350,0.69224
117.64243,0.71989
117.40136,0.74137
117.16029,0.75881
116.91922,0.77281
116.67815,0.78263
116.43708,0.78820
116.19601,0.78994
115.95494,0.78871
115.71387,0.78658
115.47280,0.78429
115.23173,0.77836
114.99066,0.76426
114.74958,0.74246
114.50851,0.71822
114.26744,0.69592
114.02637,0.67724
113.78530,0.66328
113.54423,0.65441
113.30316,0.64848
113.06209,0.64307
112.82102,0.63971
112.57995,0.64294
112.33888,0.65508
112.09781,0.67394
111.85674,0.69509
111.61567,0.71461
111.37460,0.72967
111.13353,0.73816
110.89246,0.73861
110.65139,0.73067
110.41031,0.71552
110.16924,0.69650
109.92817,0.67913
109.68710,0.66749
109.44603,0.66121
109.20496,0.65705
108.96389,0.65214
108.72282,0.64465
108.48175,0.63212
108.24068,0.61161
107.99961,0.58316
107.75854,0.55219
107.51747,0.52667
107.27640,0.51110
107.03533,0.50338
106.79426,0.49790
106.55319,0.49093
106.31212,0.48198
106.07104,0.47115
105.82997,0.45715
105.58890,0.43909
105.34783,0.41935
105.10676,0.40271
104.86569,0.39256
104.62462,0.38903
104.38355,0.38985
104.14248,0.39098
103.90141,0.38791
103.66034,0.37816
103.41927,0.36277
103.17820,0.34640
102.93713,0.33567
102.69606,0.33442
102.45499,0.33949
102.21392,0.34185
101.97285,0.33436
101.73177,0.31919
101.49070,0.30491
101.24963,0.29848
101.00856,0.30135
100.76749,0.30815
100.52642,0.30903
100.28535,0.29916
100.04428,0.28526
99.80321,0.27746
99.56214,0.27953
99.32107,0.28650
99.08000,0.28947
98.83893,0.28503
98.59786,0.27830
98.35679,0.27496
98.11572,0.27520
97.87465,0.27555
97.63358,0.27402
97.39250,0.27225
97.15143,0.27290
96.91036,0.27653
96.66929,0.28040
96.42822,0.28112
96.18715,0.27979
95.94608,0.28138
95.70501,0.28945
95.46394,0.30230
95.22287,0.31298
94.98180,0.31648
94.74073,0.31653
94.49966,0.31984
94.25859,0.32607
94.01752,0.32905
93.77645,0.32764
93.53538,0.32825
93.29431,0.33420
93.05323,0.33973
92.81216,0.33829
92.57109,0.33376
92.33002,0.33422
92.08895,0.33990
91.84788,0.34375
91.60681,0.34331
91.36574,0.34608
91.12467,0.35786
90.88360,0.37397
90.64253,0.38845
90.40146,0.40766
90.16039,0.44000
89.91932,0.47939
89.67825,0.51495
89.43718,0.55030
89.19611,0.59226
88.95504,0.63441
88.71396,0.67070
88.47289,0.70242
88.23182,0.72152
87.99075,0.71779
87.74968,0.69641
87.50861,0.66575
87.26754,0.62822
87.02647,0.58753
86.78540,0.54921
86.54433,0.51426
86.30326,0.48110
86.06219,0.45074
85.82112,0.42481
85.58005,0.40130
85.33898,0.37674
85.09791,0.35185
84.85684,0.33105
84.61577,0.31574
84.37469,0.30282
84.13362,0.29041
83.89255,0.28021
83.65148,0.27310
83.41041,0.26661
83.16934,0.25809
82.92827,0.24807
82.68720,0.23960
82.44613,0.23467
82.20506,0.23237
81.96399,0.23022
81.72292,0.22663
81.48185,0.22144
81.24078,0.21550
80.99971,0.21065
80.75864,0.20874
80.51757,0.20974
80.27650,0.21161
80.03542,0.21228
79.79435,0.21119
79.55328,0.20930
79.31221,0.20810
79.07114,0.20848
78.83007,0.20997
78.58900,0.21080
78.34793,0.20964
78.10686,0.20711
77.86579,0.20456
77.62472,0.20164
77.38365,0.19668
77.14258,0.18965
76.90151,0.18311
76.66044,0.17922
76.41937,0.17728
76.17830,0.17556
75.93723,0.17389
75.69615,0.17260
75.45508,0.17078
75.21401,0.16756
74.97294,0.16357
74.73187,0.16005
74.49080,0.15791
74.24973,0.15772
74.00866,0.15964
73.76759,0.16322
73.52652,0.16726
73.28545,0.17008
73.04438,0.17085
72.80331,0.17077
72.56224,0.17210
72.32117,0.17589
72.08010,0.18091
71.83903,0.18478
71.59796,0.18598
71.35688,0.18468
71.11581,0.18197
70.87474,0.17957
70.63367,0.17978
70.39260,0.18469
70.15153,0.19541
69.91046,0.21214
69.66939,0.23306
69.42832,0.25295
69.18725,0.26551
68.94618,0.26797
68.70511,0.26146
68.46404,0.24779
68.22297,0.22866
67.98190,0.20705
67.74083,0.18719
67.49976,0.17268
67.25869,0.16475
67.01761,0.16225
66.77654,0.16309
66.53547,0.16488
66.29440,0.16473
66.05333,0.16041
65.81226,0.15309
65.57119,0.14742
65.33012,0.14781
65.08905,0.15515
64.84798,0.16697
64.60691,0.17982
64.36584,0.19085
64.12477,0.19814
63.88370,0.20072
63.64263,0.19853
63.40156,0.19242
63.16049,0.18431
62.91942,0.17668
62.67834,0.17120
62.43727,0.16821
62.19620,0.16667
61.95513,0.16456
61.71406,0.16108
61.47299,0.15839
61.23192,0.15872
60.99085,0.16044
60.74978,0.16000
60.50871,0.15734
60.26764,0.15573
60.02657,0.15601
59.78550,0.15447
59.54443,0.14748
59.30336,0.13589
59.06229,0.12329
58.82122,0.11234
58.58015,0.10430
58.33907,0.10062
58.09800,0.10321
57.85693,0.11293
57.61586,0.12781
57.37479,0.14399
57.13372,0.15968
56.89265,0.17683
56.65158,0.19589
56.41051,0.21000
56.16944,0.20912
55.92837,0.19218
55.68730,0.16774
55.44623,0.14442
55.20516,0.12693
54.96409,0.11704
54.72302,0.11500
54.48195,0.12076
54.24088,0.13522
53.99980,0.15953
53.75873,0.19062
53.51766,0.21367
53.27659,0.20781
53.03552,0.17383
52.79445,0.13281
52.55338,0.10165
52.31231,0.08939
52.07124,0.10130
51.83017,0.14072
51.58910,0.19878
51.34803,0.22329
51.10696,0.17429
50.86589,0.11562
50.62482,0.09010
50.38375,0.10438
50.14268,0.15201
49.90161,0.19697
49.66053,0.18006
49.41946,0.12725
49.17839,0.09952
48.93732,0.11426
48.69625,0.15791
48.45518,0.18537
48.21411,0.16206
47.97304,0.13123
47.73197,0.13461
47.49090,0.16391
47.24983,0.16792
47.00876,0.12649
46.76769,0.09348
46.52662,0.10352
46.28555,0.13696
46.04448,0.13469
45.80341,0.09968
45.56234,0.09285
45.32126,0.12131
45.08019,0.13704
44.83912,0.12487
44.59805,0.13056
44.35698,0.15683
44.11591,0.15708
43.87484,0.12987
43.63377,0.11557
43.39270,0.11771
43.15163,0.11920
42.91056,0.11857
42.66949,0.11943
42.42842,0.12008
42.18735,0.12533
41.94628,0.13962
41.70521,0.15197
41.46414,0.15095
41.22307,0.14277
40.98199,0.13908
40.74092,0.13988
40.49985,0.13767
40.25878,0.13742
40.01771,0.15375
39.77664,0.18525
39.53557,0.20885
39.29450,0.21019
39.05343,0.20102
38.81236,0.19583
38.57129,0.19811
38.33022,0.20353
38.08915,0.20575
37.84808,0.20197
37.60701,0.19450
37.36594,0.18714
37.12487,0.18221
36.88380,0.18077
36.64272,0.18365
36.40165,0.19072
36.16058,0.19922
35.91951,0.20602
35.67844,0.20986
35.43737,0.20916
35.19630,0.20456
34.95523,0.20239
34.71416,0.20549
34.47309,0.20334
34.23202,0.18531
33.99095,0.15881
33.74988,0.14320
33.50881,0.15079
33.26774,0.17091
33.02667,0.17879
32.78560,0.16934
32.54453,0.16077
32.30345,0.16349
32.06238,0.16694
31.82131,0.15838
31.58024,0.14509
31.33917,0.14265
31.09810,0.14861
30.85703,0.14412
30.61596,0.12153
30.37489,0.09784
30.13382,0.08982
29.89275,0.09427
29.65168,0.09746
29.41061,0.08719
29.16954,0.06111
28.92847,0.03107
28.68740,0.01253
28.44633,0.01050
28.20526,0.01593
27.96418,0.01446
27.72311,0.00057
27.48204,-0.01820
27.24097,-0.03431
26.99990,-0.04799
26.75883,-0.06341
26.51776,-0.08371
26.27669,-0.10276
26.03562,-0.10511
25.79455,-0.09036
25.55348,-0.08144
25.31241,-0.09049
25.07134,-0.10192
24.83027,-0.10194
24.58920,-0.10140
24.34813,-0.11127
24.10706,-0.12517
23.86599,-0.13435
23.62491,-0.13766
23.38384,-0.13649
23.14277,-0.13536
22.90170,-0.13973
22.66063,-0.14558
22.41956,-0.14453
22.17849,-0.13569
21.93742,-0.12820
21.69635,-0.13367
21.45528,-0.15377
21.21421,-0.17911
20.97314,-0.20263
20.73207,-0.22415
20.49100,-0.24246
20.24993,-0.25714
20.00886,-0.27505
19.76779,-0.30144
19.52672,-0.31611
19.28564,-0.29206
19.04457,-0.25075
18.80350,-0.22703
18.56243,-0.22985
18.32136,-0.24695
18.08029,-0.26010
17.83922,-0.27009
17.59815,-0.29416
17.35708,-0.32847
17.11601,-0.34712
16.87494,-0.33510
16.63387,-0.29351
16.39280,-0.24453
16.15173,-0.20965
15.91066,-0.19901
15.66959,-0.21915
15.42852,-0.26011
15.18745,-0.29146
14.94637,-0.28771
14.70530,-0.25798
14.46423,-0.22973
14.22316,-0.21336
13.98209,-0.20009
13.74102,-0.18566
13.49995,-0.17361
13.25888,-0.16871
13.01781,-0.17173
12.77674,-0.17604
12.53567,-0.17292
12.29460,-0.16365
12.05353,-0.16012
11.81246,-0.17014
11.57139,-0.18933
11.33032,-0.21148
11.08925,-0.23803
10.84818,-0.25930
10.60710,-0.25823
10.36603,-0.23887
10.12496,-0.21657
9.88389,-0.20492
9.64282,-0.21003
9.40175,-0.22355
9.16068,-0.22683
8.91961,-0.21294
8.67854,-0.19100
8.43747,-0.17471
8.19640,-0.17275
7.95533,-0.18231
7.71426,-0.19449
7.47319,-0.20164
7.23212,-0.19760
6.99105,-0.18733
6.74998,-0.18741
6.50891,-0.20314
6.26783,-0.22346
6.02676,-0.23739
5.78569,-0.24058
5.54462,-0.23244
5.30355,-0.21852
5.06248,-0.21018
4.82141,-0.21557
4.58034,-0.23074
4.33927,-0.23735
4.09820,-0.22449
3.85713,-0.21127
3.61606,-0.22397
3.37499,-0.26063
3.13392,-0.29406
2.89285,-0.30180
2.65178,-0.28637
2.41071,-0.26926
2.16964,-0.26524
1.92856,-0.25983
1.68749,-0.24223
1.44642,-0.22908
1.20535,-0.22406
0.96428,-0.21290
0.72321,-0.22087
0.48214,-0.29132
0.24107,-0.35698
-0.00000,-0.29121
