399.69498,1.67186
399.45391,1.68183
399.21284,1.71923
398.97177,1.75701
398.73070,1.77359
398.48963,1.78051
398.24856,1.77957
398.00749,1.74857
397.76642,1.69433
397.52535,1.65903
397.28428,1.66088
397.04321,1.67599
396.80214,1.68346
396.56107,1.69421
396.32000,1.71798
396.07892,1.73267
395.83785,1.71422
395.59678,1.68241
395.35571,1.65708
395.11464,1.63485
394.87357,1.61110
394.63250,1.59361
394.39143,1.59165
394.15036,1.59669
393.90929,1.59154
393.66822,1.58375
393.42715,1.60237
393.18608,1.65307
392.94501,1.69789
392.70394,1.69945
392.46287,1.66308
392.22180,1.62086
391.98073,1.59370
391.73965,1.58124
391.49858,1.58128
391.25751,1.59453
391.01644,1.60958
390.77537,1.61045
390.53430,1.60254
390.29323,1.60634
390.05216,1.62730
389.81109,1.65137
389.57002,1.67525
389.32895,1.70788
389.08788,1.73385
388.84681,1.72932
388.60574,1.70436
388.36467,1.68413
388.12360,1.66858
387.88253,1.63653
387.64146,1.59142
387.40038,1.56777
387.15931,1.58557
386.91824,1.61985
386.67717,1.62201
386.43610,1.58349
386.19503,1.53693
385.95396,1.50512
385.71289,1.48709
385.47182,1.48245
385.23075,1.49988
384.98968,1.54020
384.74861,1.58204
384.50754,1.59761
384.26647,1.58014
384.02540,1.53841
383.78433,1.48865
383.54326,1.45238
383.30219,1.44040
383.06111,1.44371
382.82004,1.44905
382.57897,1.45729
382.33790,1.47370
382.09683,1.49633
381.85576,1.52226
381.61469,1.54996
381.37362,1.55690
381.13255,1.52190
380.89148,1.46872
380.65041,1.43013
380.40934,1.41860
380.16827,1.42693
379.92720,1.44186
379.68613,1.45970
379.44506,1.47925
379.20399,1.48873
378.96292,1.48004
378.72184,1.46490
378.48077,1.45671
378.23970,1.44594
377.99863,1.42427
377.75756,1.41436
377.51649,1.43723
377.27542,1.48050
377.03435,1.51075
376.79328,1.51464
376.55221,1.51458
376.31114,1.53541
376.07007,1.57622
375.82900,1.61692
375.58793,1.64224
375.34686,1.65353
375.10579,1.65471
374.86472,1.63773
374.62365,1.60893
374.38257,1.58818
374.14150,1.58121
373.90043,1.58200
373.65936,1.58242
373.41829,1.57523
373.17722,1.55849
372.93615,1.54697
372.69508,1.56048
372.45401,1.58979
372.21294,1.59581
371.97187,1.56417
371.73080,1.52888
371.48973,1.52157
371.24866,1.54100
371.00759,1.55904
370.76652,1.55446
370.52545,1.54174
370.28437,1.53240
370.04330,1.52324
369.80223,1.51553
369.56116,1.51066
369.32009,1.50974
369.07902,1.51655
368.83795,1.52696
368.59688,1.53085
368.35581,1.52359
368.11474,1.50604
367.87367,1.48080
367.63260,1.45463
367.39153,1.43779
367.15046,1.43789
366.90939,1.45209
366.66832,1.46584
366.42725,1.46842
366.18618,1.46526
365.94510,1.46585
365.70403,1.46635
365.46296,1.45686
365.22189,1.44101
364.98082,1.43518
364.73975,1.44493
364.49868,1.45298
364.25761,1.44129
364.01654,1.41893
363.77547,1.40950
363.53440,1.42524
363.29333,1.46194
363.05226,1.49854
362.81119,1.50805
362.57012,1.48747
362.32905,1.45915
362.08798,1.44231
361.84691,1.44173
361.60583,1.45257
361.36476,1.46453
361.12369,1.46661
360.88262,1.45375
360.64155,1.43041
360.40048,1.40848
360.15941,1.39950
359.91834,1.40633
359.67727,1.42009
359.43620,1.42827
359.19513,1.42721
358.95406,1.42317
358.71299,1.42366
358.47192,1.42744
358.23085,1.42253
357.98978,1.40331
357.74871,1.38405
357.50764,1.38325
357.26656,1.40100
357.02549,1.41716
356.78442,1.41642
356.54335,1.40607
356.30228,1.39590
356.06121,1.38488
355.82014,1.37308
355.57907,1.36578
355.33800,1.36769
355.09693,1.37841
354.85586,1.38724
354.61479,1.38155
354.37372,1.36427
354.13265,1.35236
353.89158,1.35954
353.65051,1.38239
353.40944,1.40404
353.16837,1.41395
352.92729,1.41140
352.68622,1.39442
352.44515,1.36963
352.20408,1.35887
351.96301,1.37436
351.72194,1.40156
351.48087,1.41875
351.23980,1.42144
350.99873,1.41229
350.75766,1.39160
350.51659,1.37121
350.27552,1.36690
350.03445,1.37909
349.79338,1.39408
349.55231,1.39780
349.31124,1.38548
349.07017,1.36167
348.82910,1.33973
348.58802,1.33428
348.34695,1.34679
348.10588,1.36530
347.86481,1.37964
347.62374,1.39080
347.38267,1.40081
347.14160,1.40637
346.90053,1.40738
346.65946,1.40893
346.41839,1.41124
346.17732,1.41177
345.93625,1.41687
345.69518,1.43722
345.45411,1.47106
345.21304,1.49767
344.97197,1.49447
344.73090,1.46326
344.48983,1.43398
344.24875,1.43365
344.00768,1.45620
343.76661,1.46528
343.52554,1.43888
343.28447,1.39824
343.04340,1.37389
342.80233,1.37621
342.56126,1.40130
342.32019,1.44116
342.07912,1.48925
341.83805,1.53706
341.59698,1.56405
341.35591,1.56413
341.11484,1.55156
340.87377,1.53644
340.63270,1.52297
340.39163,1.51740
340.15056,1.52486
339.90948,1.53301
339.66841,1.52264
339.42734,1.49753
339.18627,1.48095
338.94520,1.49263
338.70413,1.53605
338.46306,1.58535
338.22199,1.60118
337.98092,1.58253
337.73985,1.55903
337.49878,1.54989
337.25771,1.56096
337.01664,1.57797
336.77557,1.57560
336.53450,1.55225
336.29343,1.52321
336.05236,1.49881
335.81129,1.47583
335.57021,1.45098
335.32914,1.43179
335.08807,1.43469
334.84700,1.46840
334.60593,1.51708
334.36486,1.54467
334.12379,1.52881
333.88272,1.48718
333.64165,1.45578
333.40058,1.45666
333.15951,1.48555
332.91844,1.50763
332.67737,1.49897
332.43630,1.47231
332.19523,1.43415
331.95416,1.40002
331.71309,1.39056
331.47202,1.40733
331.23094,1.43060
330.98987,1.44127
330.74880,1.44767
330.50773,1.46909
330.26666,1.49988
330.02559,1.51708
329.78452,1.51995
329.54345,1.51572
329.30238,1.49405
329.06131,1.45723
328.82024,1.42116
328.57917,1.40289
328.33810,1.40107
328.09703,1.39678
327.85596,1.38416
327.61489,1.37481
327.37382,1.37923
327.13275,1.39803
326.89167,1.41939
326.65060,1.43783
326.40953,1.45384
326.16846,1.46024
325.92739,1.45254
325.68632,1.42469
325.44525,1.39293
325.20418,1.37862
324.96311,1.37447
324.72204,1.37284
324.48097,1.38419
324.23990,1.42246
323.99883,1.48136
323.75776,1.52819
323.51669,1.53887
323.27562,1.52889
323.03455,1.52253
322.79348,1.51702
322.55240,1.49699
322.31133,1.46615
322.07026,1.43959
321.82919,1.42587
321.58812,1.42324
321.34705,1.43267
321.10598,1.46288
320.86491,1.51386
320.62384,1.55525
320.38277,1.54423
320.14170,1.50318
319.90063,1.47788
319.65956,1.46657
319.41849,1.45401
319.17742,1.44551
318.93635,1.44217
318.69528,1.43070
318.45421,1.41873
318.21313,1.43418
317.97206,1.48882
317.73099,1.55082
317.48992,1.56671
317.24885,1.52216
317.00778,1.46307
316.76671,1.42564
316.52564,1.40863
316.28457,1.40048
316.04350,1.40013
315.80243,1.41630
315.56136,1.45241
315.32029,1.49035
315.07922,1.50343
314.83815,1.48725
314.59708,1.45682
314.35601,1.43198
314.11494,1.42647
313.87386,1.44563
313.63279,1.48275
313.39172,1.52108
313.15065,1.54604
312.90958,1.56350
312.66851,1.58919
312.42744,1.60652
312.18637,1.58085
311.94530,1.52578
311.70423,1.48234
311.46316,1.47072
311.22209,1.48683
310.98102,1.51855
310.73995,1.56136
310.49888,1.60650
310.25781,1.61866
310.01674,1.59237
309.77567,1.55783
309.53459,1.51704
309.29352,1.47162
309.05245,1.44932
308.81138,1.46833
308.57031,1.50413
308.32924,1.51380
308.08817,1.49920
307.84710,1.49147
307.60603,1.48902
307.36496,1.47586
307.12389,1.46163
306.88282,1.46355
306.64175,1.48249
306.40068,1.50747
306.15961,1.52262
305.91854,1.50965
305.67747,1.47140
305.43640,1.43993
305.19532,1.43886
304.95425,1.45718
304.71318,1.46531
304.47211,1.44894
304.23104,1.42157
303.98997,1.40480
303.74890,1.40716
303.50783,1.42261
303.26676,1.44408
303.02569,1.46507
302.78462,1.47241
302.54355,1.45755
302.30248,1.42590
302.06141,1.39385
301.82034,1.37719
301.57927,1.37971
301.33820,1.39515
301.09713,1.41572
300.85605,1.43277
300.61498,1.43124
300.37391,1.39870
300.13284,1.34806
299.89177,1.30628
299.65070,1.29161
299.40963,1.30931
299.16856,1.35210
298.92749,1.40042
298.68642,1.42357
298.44535,1.40517
298.20428,1.36537
297.96321,1.32971
297.72214,1.31217
297.48107,1.31440
297.24000,1.32671
296.99893,1.33726
296.75786,1.34210
296.51678,1.34273
296.27571,1.34052
296.03464,1.33757
295.79357,1.33545
295.55250,1.33401
295.31143,1.32937
295.07036,1.31490
294.82929,1.29333
294.58822,1.28003
294.34715,1.28420
294.10608,1.29875
293.86501,1.31011
293.62394,1.31023
293.38287,1.29902
293.14180,1.28386
292.90073,1.27748
292.65966,1.28675
292.41859,1.30290
292.17751,1.30818
291.93644,1.29365
291.69537,1.26735
291.45430,1.24407
291.21323,1.23138
290.97216,1.22713
290.73109,1.22787
290.49002,1.23453
290.24895,1.24768
290.00788,1.26137
289.76681,1.26693
289.52574,1.26160
289.28467,1.25156
289.04360,1.24560
288.80253,1.24468
288.56146,1.24143
288.32039,1.23293
288.07932,1.22529
287.83824,1.22527
287.59717,1.23208
287.35610,1.24045
287.11503,1.24575
286.87396,1.24387
286.63289,1.23423
286.39182,1.22156
286.15075,1.21188
285.90968,1.21029
285.66861,1.21730
285.42754,1.22589
285.18647,1.22975
284.94540,1.23106
284.70433,1.23669
284.46326,1.24768
284.22219,1.25513
283.98112,1.25182
283.74005,1.24282
283.49897,1.23738
283.25790,1.23679
283.01683,1.23657
282.77576,1.23589
282.53469,1.23750
282.29362,1.24042
282.05255,1.23967
281.81148,1.23344
281.57041,1.22600
281.32934,1.22366
281.08827,1.22920
280.84720,1.23798
280.60613,1.24219
280.36506,1.24137
280.12399,1.24235
279.88292,1.24652
279.64185,1.24666
279.40078,1.23799
279.15970,1.22615
278.91863,1.22135
278.67756,1.22496
278.43649,1.22780
278.19542,1.22387
277.95435,1.21654
277.71328,1.20850
277.47221,1.19773
277.23114,1.18700
276.99007,1.18620
276.74900,1.20009
276.50793,1.22028
276.26686,1.23172
276.02579,1.22694
275.78472,1.21171
275.54365,1.19704
275.30258,1.19051
275.06151,1.19373
274.82043,1.20234
274.57936,1.20915
274.33829,1.21029
274.09722,1.20867
273.85615,1.20908
273.61508,1.21165
273.37401,1.21336
273.13294,1.21317
272.89187,1.21461
272.65080,1.22139
272.40973,1.23022
272.16866,1.23328
271.92759,1.23041
271.68652,1.23168
271.44545,1.24320
271.20438,1.25816
270.96331,1.26549
270.72224,1.26318
270.48116,1.25789
270.24009,1.25455
269.99902,1.25181
269.75795,1.24726
269.51688,1.24319
269.27581,1.24419
269.03474,1.25071
268.79367,1.25752
268.55260,1.26074
268.31153,1.26352
268.07046,1.27022
267.82939,1.27880
267.58832,1.28471
267.34725,1.28972
267.10618,1.29757
266.86511,1.30674
266.62404,1.31509
266.38297,1.32326
266.14189,1.33043
265.90082,1.33482
265.65975,1.33948
265.41868,1.34800
265.17761,1.35755
264.93654,1.36391
264.69547,1.36683
264.45440,1.36794
264.21333,1.37146
263.97226,1.38678
263.73119,1.41845
263.49012,1.45309
263.24905,1.47091
263.00798,1.46865
262.76691,1.45917
262.52584,1.45789
262.28477,1.47547
262.04370,1.51235
261.80262,1.55594
261.56155,1.58746
261.32048,1.59925
261.07941,1.60410
260.83834,1.61900
260.59727,1.64797
260.35620,1.68565
260.11513,1.72743
259.87406,1.76520
259.63299,1.78602
259.39192,1.79734
259.15085,1.81508
258.90978,1.83339
258.66871,1.84105
258.42764,1.86035
258.18657,1.91784
257.94550,1.98441
257.70443,1.99833
257.46335,1.98171
257.22228,1.96536
256.98121,1.93524
256.74014,1.91554
256.49907,1.94057
256.25800,2.00524
256.01693,2.06090
255.77586,2.04828
255.53479,1.98451
255.29372,1.93661
255.05265,1.91617
254.81158,1.90170
254.57051,1.88608
254.32944,1.86241
254.08837,1.83669
253.84730,1.83056
253.60623,1.84969
253.36516,1.86905
253.12408,1.86161
252.88301,1.83714
252.64194,1.81885
252.40087,1.80522
252.15980,1.78104
251.91873,1.74399
251.67766,1.70522
251.43659,1.67378
251.19552,1.65313
250.95445,1.64582
250.71338,1.65080
250.47231,1.66044
250.23124,1.66364
249.99017,1.65312
249.74910,1.63684
249.50803,1.63121
249.26696,1.64343
249.02589,1.66850
248.78481,1.69746
248.54374,1.71590
248.30267,1.70901
248.06160,1.68919
247.82053,1.68433
247.57946,1.69847
247.33839,1.70922
247.09732,1.70079
246.85625,1.67893
246.61518,1.65458
246.37411,1.63413
246.13304,1.62251
245.89197,1.62912
245.65090,1.66218
245.40983,1.71158
245.16876,1.74446
244.92769,1.74717
244.68661,1.75188
244.44554,1.77644
244.20447,1.80014
243.96340,1.80576
243.72233,1.79952
243.48126,1.80052
243.24019,1.82290
242.99912,1.85296
242.75805,1.84779
242.51698,1.79801
242.27591,1.73939
242.03484,1.69382
241.79377,1.66764
241.55270,1.63507
241.31163,1.57147
241.07056,1.49956
240.82949,1.45880
240.58842,1.45281
240.34734,1.44570
240.10627,1.40353
239.86520,1.33639
239.62413,1.27960
239.38306,1.25246
239.14199,1.24953
238.90092,1.24934
238.65985,1.23035
238.41878,1.19063
238.17771,1.14780
237.93664,1.11748
237.69557,1.10194
237.45450,1.09532
237.21343,1.09031
236.97236,1.08340
236.73129,1.07485
236.49022,1.06700
236.24915,1.06128
236.00807,1.05324
235.76700,1.03842
235.52593,1.02105
235.28486,1.00972
235.04379,1.00659
234.80272,1.00611
234.56165,1.00497
234.32058,1.00538
234.07951,1.00570
233.83844,0.99861
233.59737,0.98451
233.35630,0.97475
233.11523,0.97584
232.87416,0.97902
232.63309,0.97175
232.39202,0.95672
232.15095,0.94745
231.90988,0.94904
231.66880,0.95365
231.42773,0.95238
231.18666,0.94525
230.94559,0.93714
230.70452,0.93157
230.46345,0.93101
230.22238,0.93635
229.98131,0.94588
229.74024,0.95511
229.49917,0.95752
229.25810,0.95072
229.01703,0.94109
228.77596,0.93628
228.53489,0.93523
228.29382,0.93191
228.05275,0.92605
227.81168,0.92201
227.57061,0.91973
227.32953,0.91414
227.08846,0.90391
226.84739,0.89401
226.60632,0.88785
226.36525,0.88285
226.12418,0.87724
225.88311,0.87617
225.64204,0.88403
225.40097,0.89649
225.15990,0.90689
224.91883,0.91558
224.67776,0.92571
224.43669,0.93309
224.19562,0.92870
223.95455,0.91186
223.71348,0.89332
223.47241,0.88204
223.23134,0.87688
222.99026,0.87464
222.74919,0.87801
222.50812,0.88943
222.26705,0.90394
222.02598,0.91644
221.78491,0.92930
221.54384,0.94406
221.30277,0.95395
221.06170,0.95455
220.82063,0.95301
220.57956,0.95537
220.33849,0.95907
220.09742,0.96331
219.85635,0.97120
219.61528,0.97993
219.37421,0.98455
219.13314,0.98897
218.89207,0.99911
218.65099,1.01224
218.40992,1.02383
218.16885,1.03623
217.92778,1.05070
217.68671,1.06242
217.44564,1.07125
217.20457,1.08333
216.96350,1.09846
216.72243,1.10980
216.48136,1.11552
216.24029,1.12169
215.99922,1.13381
215.75815,1.15047
215.51708,1.16792
215.27601,1.18758
215.03494,1.21202
214.79387,1.23542
214.55280,1.24704
214.31172,1.24203
214.07065,1.22409
213.82958,1.20322
213.58851,1.19046
213.34744,1.19049
213.10637,1.20246
212.86530,1.22574
212.62423,1.25828
212.38316,1.29129
212.14209,1.31331
211.90102,1.31882
211.65995,1.30835
211.41888,1.28819
211.17781,1.27013
210.93674,1.26175
210.69567,1.26174
210.45460,1.26669
210.21353,1.27698
209.97245,1.29385
209.73138,1.31447
209.49031,1.33133
209.24924,1.33468
209.00817,1.32064
208.76710,1.29652
208.52603,1.27098
208.28496,1.24801
208.04389,1.23077
207.80282,1.22311
207.56175,1.22572
207.32068,1.23482
207.07961,1.24328
206.83854,1.24409
206.59747,1.23522
206.35640,1.22005
206.11533,1.20292
205.87426,1.18318
205.63318,1.15766
205.39211,1.12855
205.15104,1.10398
204.90997,1.09009
204.66890,1.08588
204.42783,1.08610
204.18676,1.08511
203.94569,1.07847
203.70462,1.06517
203.46355,1.04768
203.22248,1.02977
202.98141,1.01630
202.74034,1.01211
202.49927,1.01824
202.25820,1.02813
202.01713,1.02961
201.77606,1.01531
201.53499,0.98977
201.29391,0.96262
201.05284,0.93908
200.81177,0.92047
200.57070,0.90841
200.32963,0.90395
200.08856,0.90361
199.84749,0.89882
199.60642,0.88317
199.36535,0.86057
199.12428,0.84140
198.88321,0.83308
198.64214,0.83646
198.40107,0.84579
198.16000,0.85022
197.91893,0.84055
197.67786,0.81878
197.43679,0.79553
197.19572,0.77871
196.95464,0.76957
196.71357,0.76554
196.47250,0.76389
196.23143,0.76302
195.99036,0.76018
195.74929,0.75127
195.50822,0.73646
195.26715,0.72309
195.02608,0.71811
194.78501,0.71951
194.54394,0.71831
194.30287,0.70901
194.06180,0.69583
193.82073,0.68717
193.57966,0.68633
193.33859,0.68989
193.09752,0.69197
192.85645,0.68799
192.61537,0.67682
192.37430,0.66258
192.13323,0.65288
191.89216,0.65267
191.65109,0.65819
191.41002,0.65835
191.16895,0.64825
190.92788,0.63695
190.68681,0.63459
190.44574,0.64070
190.20467,0.64624
189.96360,0.64222
189.72253,0.62945
189.48146,0.61792
189.24039,0.61540
188.99932,0.62054
188.75825,0.62489
188.51718,0.62267
188.27610,0.61708
188.03503,0.61334
187.79396,0.61158
187.55289,0.60971
187.31182,0.60881
187.07075,0.61184
186.82968,0.61731
186.58861,0.61858
186.34754,0.61299
186.10647,0.60731
185.86540,0.60835
185.62433,0.61327
185.38326,0.61320
185.14219,0.60647
184.90112,0.60180
184.66005,0.60604
184.41898,0.61572
184.17791,0.62237
183.93683,0.62341
183.69576,0.62363
183.45469,0.62616
183.21362,0.62850
182.97255,0.62762
182.73148,0.62393
182.49041,0.61905
182.24934,0.61368
182.00827,0.60941
181.76720,0.60875
181.52613,0.61161
181.28506,0.61431
181.04399,0.61453
180.80292,0.61460
180.56185,0.61701
180.32078,0.62010
180.07971,0.62085
179.83864,0.62075
179.59756,0.62498
179.35649,0.63483
179.11542,0.64489
178.87435,0.65099
178.63328,0.65707
178.39221,0.66796
178.15114,0.68094
177.91007,0.69187
177.66900,0.70352
177.42793,0.71842
177.18686,0.73178
176.94579,0.74135
176.70472,0.75295
176.46365,0.76827
176.22258,0.78063
175.98151,0.78847
175.74044,0.79829
175.49937,0.81182
175.25829,0.82599
175.01722,0.84178
174.77615,0.85985
174.53508,0.87491
174.29401,0.88560
174.05294,0.89826
173.81187,0.91516
173.57080,0.93179
173.32973,0.94653
173.08866,0.96191
172.84759,0.97793
172.60652,0.99210
172.36545,1.00283
172.12438,1.00938
171.88331,1.01053
171.64224,1.00463
171.40117,0.99306
171.16010,0.98076
170.91902,0.96966
170.67795,0.95741
170.43688,0.94332
170.19581,0.93039
169.95474,0.92196
169.71367,0.92036
169.47260,0.92597
169.23153,0.93531
168.99046,0.94342
168.74939,0.94851
168.50832,0.95032
168.26725,0.94745
168.02618,0.94019
167.78511,0.93240
167.54404,0.92784
167.30297,0.92627
167.06190,0.92454
166.82083,0.92118
166.57975,0.91829
166.33868,0.91821
166.09761,0.92134
165.85654,0.92910
165.61547,0.94297
165.37440,0.96038
165.13333,0.97673
164.89226,0.98941
164.65119,0.99753
164.41012,1.00053
164.16905,0.99795
163.92798,0.99054
163.68691,0.98223
163.44584,0.97766
163.20477,0.97758
162.96370,0.98137
162.72263,0.99103
162.48156,1.00630
162.24048,1.02175
161.99941,1.03480
161.75834,1.04918
161.51727,1.06465
161.27620,1.07157
161.03513,1.06254
160.79406,1.04361
160.55299,1.02683
160.31192,1.01780
160.07085,1.01541
159.82978,1.01775
159.58871,1.02351
159.34764,1.02979
159.10657,1.03194
158.86550,1.02683
158.62443,1.01596
158.38336,1.00485
158.14229,0.99811
157.90121,0.99540
157.66014,0.99303
157.41907,0.98899
157.17800,0.98481
156.93693,0.98273
156.69586,0.98251
156.45479,0.98113
156.21372,0.97522
155.97265,0.96351
155.73158,0.94781
155.49051,0.93193
155.24944,0.91841
155.00837,0.90677
154.76730,0.89578
154.52623,0.88588
154.28516,0.87914
154.04409,0.87690
153.80302,0.87660
153.56194,0.87127
153.32087,0.85553
153.07980,0.83195
152.83873,0.80723
152.59766,0.78574
152.35659,0.76979
152.11552,0.76107
151.87445,0.75855
151.63338,0.75723
151.39231,0.75082
151.15124,0.73580
150.91017,0.71354
150.66910,0.69006
150.42803,0.67237
150.18696,0.66353
149.94589,0.66099
149.70482,0.65876
149.46375,0.65166
149.22267,0.63872
148.98160,0.62268
148.74053,0.60774
148.49946,0.59831
148.25839,0.59655
148.01732,0.59995
147.77625,0.60288
147.53518,0.60091
147.29411,0.59321
147.05304,0.58241
146.81197,0.57295
146.57090,0.56917
146.32983,0.57328
146.08876,0.58320
145.84769,0.59295
145.60662,0.59718
145.36555,0.59636
145.12448,0.59685
144.88340,0.60421
144.64233,0.61672
144.40126,0.62632
144.16019,0.62768
143.91912,0.62413
143.67805,0.62195
143.43698,0.62310
143.19591,0.62436
142.95484,0.62044
142.71377,0.60970
142.47270,0.59666
142.23163,0.58705
141.99056,0.58266
141.74949,0.58077
141.50842,0.57728
141.26735,0.57110
141.02628,0.56457
140.78521,0.55946
140.54413,0.55461
140.30306,0.54864
140.06199,0.54267
139.82092,0.53851
139.57985,0.53630
139.33878,0.53578
139.09771,0.53859
138.85664,0.54651
138.61557,0.55710
138.37450,0.56448
138.13343,0.56684
137.89236,0.56987
137.65129,0.57941
137.41022,0.59411
137.16915,0.60874
136.92808,0.62207
136.68701,0.63756
136.44594,0.65761
136.20486,0.68089
135.96379,0.70512
135.72272,0.72956
135.48165,0.75397
135.24058,0.77722
134.99951,0.80043
134.75844,0.82914
134.51737,0.86623
134.27630,0.90445
134.03523,0.93462
133.79416,0.95972
133.55309,0.98741
133.31202,1.01256
133.07095,1.02515
132.82988,1.03157
132.58881,1.04307
132.34774,1.05546
132.10667,1.06423
131.86559,1.07846
131.62452,1.09940
131.38345,1.11252
131.14238,1.11064
130.90131,1.09964
130.66024,1.08479
130.41917,1.07009
130.17810,1.05963
129.93703,1.05043
129.69596,1.03495
129.45489,1.01153
129.21382,0.98345
128.97275,0.95355
128.73168,0.92410
128.49061,0.89555
128.24954,0.86607
128.00847,0.83394
127.76740,0.80026
127.52632,0.76933
127.28525,0.74396
127.04418,0.72179
126.80311,0.69877
126.56204,0.67519
126.32097,0.65428
126.07990,0.63639
125.83883,0.61924
125.59776,0.60239
125.35669,0.58803
125.11562,0.57756
124.87455,0.56899
124.63348,0.55918
124.39241,0.54790
124.15134,0.53726
123.91027,0.52770
123.66920,0.51778
123.42812,0.50674
123.18705,0.49528
122.94598,0.48515
122.70491,0.47817
122.46384,0.47409
122.22277,0.47055
121.98170,0.46624
121.74063,0.46246
121.49956,0.46157
121.25849,0.46537
121.01742,0.47382
120.77635,0.48433
120.53528,0.49464
120.29421,0.50582
120.05314,0.51964
119.81207,0.53529
119.57100,0.55191
119.32993,0.57186
119.08885,0.59737
118.84778,0.62562
118.60671,0.65185
118.36564,0.67636
118.12457,0.70346
117.88350,0.73394
117.64243,0.76300
117.40136,0.78573
117.16029,0.80052
116.91922,0.80714
116.67815,0.80506
116.43708,0.79474
116.19601,0.77909
115.95494,0.76363
115.71387,0.75386
115.47280,0.75208
115.23173,0.75451
114.99066,0.75302
114.74958,0.74416
114.50851,0.73458
114.26744,0.73339
114.02637,0.74056
113.78530,0.74572
113.54423,0.73876
113.30316,0.72145
113.06209,0.70380
112.82102,0.69081
112.57995,0.67974
112.33888,0.66773
112.09781,0.65724
111.85674,0.65310
111.61567,0.65764
111.37460,0.66927
111.13353,0.68398
110.89246,0.69961
110.65139,0.71786
110.41031,0.73865
110.16924,0.75491
109.92817,0.75830
109.68710,0.74725
109.44603,0.72414
109.20496,0.69186
108.96389,0.65604
108.72282,0.62411
108.48175,0.60041
108.24068,0.58386
107.99961,0.57152
107.75854,0.56363
107.51747,0.56309
107.27640,0.56928
107.03533,0.57349
106.79426,0.56427
106.55319,0.53957
106.31212,0.50818
106.07104,0.47922
105.82997,0.45587
105.58890,0.43754
105.34783,0.42467
105.10676,0.41953
104.86569,0.42259
104.62462,0.42981
104.38355,0.43449
104.14248,0.43081
103.90141,0.41633
103.66034,0.39325
103.41927,0.36769
103.17820,0.34662
102.93713,0.33465
102.69606,0.33243
102.45499,0.33774
102.21392,0.34770
101.97285,0.35772
101.73177,0.35867
101.49070,0.34329
101.24963,0.31706
101.00856,0.29357
100.76749,0.28182
100.52642,0.28249
100.28535,0.29101
100.04428,0.30115
99.80321,0.30722
99.56214,0.30534
99.32107,0.29465
99.08000,0.27885
98.83893,0.26504
98.59786,0.25978
98.35679,0.26603
98.11572,0.28141
97.87465,0.29630
97.63358,0.29821
97.39250,0.28507
97.15143,0.26914
96.91036,0.26517
96.66929,0.27986
96.42822,0.30601
96.18715,0.32251
95.94608,0.31618
95.70501,0.30262
95.46394,0.30534
95.22287,0.33112
94.98180,0.36067
94.74073,0.36213
94.49966,0.33766
94.25859,0.32093
94.01752,0.33005
93.77645,0.35380
93.53538,0.36455
93.29431,0.35412
93.05323,0.34413
92.81216,0.34805
92.57109,0.35532
92.33002,0.35315
92.08895,0.34869
91.84788,0.35458
91.60681,0.36735
91.36574,0.37307
91.12467,0.37243
90.88360,0.38200
90.64253,0.40865
90.40146,0.43775
90.16039,0.45568
89.91932,0.47708
89.67825,0.51789
89.43718,0.56581
89.19611,0.60261
88.95504,0.64011
88.71396,0.68579
88.47289,0.71069
88.23182,0.71017
87.99075,0.71674
87.74968,0.72512
87.50861,0.70098
87.26754,0.65413
87.02647,0.61596
86.78540,0.58541
86.54433,0.54831
86.30326,0.50794
86.06219,0.47322
85.82112,0.44406
85.58005,0.41920
85.33898,0.39979
85.09791,0.38368
84.85684,0.36698
84.61577,0.34875
84.37469,0.33073
84.13362,0.31504
83.89255,0.30204
83.65148,0.29001
83.41041,0.27813
83.16934,0.26734
82.92827,0.25769
82.68720,0.24869
82.44613,0.24049
82.20506,0.23282
81.96399,0.22605
81.72292,0.22235
81.48185,0.22251
81.24078,0.22370
80.99971,0.22243
80.75864,0.21777
80.51757,0.21153
80.27650,0.20605
80.03542,0.20170
79.79435,0.19754
79.55328,0.19431
79.31221,0.19415
79.07114,0.19695
78.83007,0.19964
78.58900,0.19960
78.34793,0.19774
78.10686,0.19775
77.86579,0.20174
77.62472,0.20690
77.38365,0.20799
77.14258,0.20316
76.90151,0.19606
76.66044,0.19206
76.41937,0.19359
76.17830,0.19904
75.93723,0.20391
75.69615,0.20331
75.45508,0.19593
75.21401,0.18566
74.97294,0.17797
74.73187,0.17561
74.49080,0.17853
74.24973,0.18544
74.00866,0.19285
73.76759,0.19507
73.52652,0.18904
73.28545,0.17803
73.04438,0.16812
72.80331,0.16327
72.56224,0.16470
72.32117,0.17191
72.08010,0.18294
71.83903,0.19404
71.59796,0.20010
71.35688,0.19782
71.11581,0.18922
70.87474,0.17910
70.63367,0.17039
70.39260,0.16464
70.15153,0.16540
69.91046,0.17805
69.66939,0.20553
69.42832,0.24421
69.18725,0.28346
68.94618,0.30905
68.70511,0.31075
68.46404,0.29083
68.22297,0.26142
67.98190,0.23279
67.74083,0.20830
67.49976,0.18789
67.25869,0.17186
67.01761,0.16065
66.77654,0.15372
66.53547,0.14987
66.29440,0.14781
66.05333,0.14733
65.81226,0.15016
65.57119,0.15804
65.33012,0.17056
65.08905,0.18623
64.84798,0.20472
64.60691,0.22649
64.36584,0.25060
64.12477,0.27255
63.88370,0.28497
63.64263,0.28218
63.40156,0.26450
63.16049,0.23780
62.91942,0.21006
62.67834,0.18778
62.43727,0.17272
62.19620,0.16207
61.95513,0.15251
61.71406,0.14291
61.47299,0.13293
61.23192,0.12202
60.99085,0.11081
60.74978,0.10180
60.50871,0.09713
60.26764,0.09650
60.02657,0.09818
59.78550,0.10162
59.54443,0.10803
59.30336,0.11865
59.06229,0.13413
58.82122,0.15501
58.58015,0.18086
58.33907,0.21005
58.09800,0.24124
57.85693,0.27228
57.61586,0.29656
57.37479,0.30219
57.13372,0.28079
56.89265,0.23896
56.65158,0.19093
56.41051,0.14716
56.16944,0.11291
55.92837,0.08927
55.68730,0.07657
55.44623,0.07834
55.20516,0.09879
54.96409,0.13708
54.72302,0.18720
54.48195,0.24106
54.24088,0.28432
53.99980,0.29642
53.75873,0.27240
53.51766,0.22666
53.27659,0.17322
53.03552,0.12079
52.79445,0.07731
52.55338,0.05256
52.31231,0.05443
52.07124,0.08532
51.83017,0.14567
51.58910,0.23173
51.34803,0.29594
51.10696,0.25206
50.86589,0.15095
50.62482,0.07007
50.38375,0.02642
50.14268,0.01955
49.90161,0.05235
49.66053,0.13934
49.41946,0.29909
49.17839,0.39731
48.93732,0.20736
48.69625,0.05574
48.45518,-0.00108
48.21411,0.01903
47.97304,0.13738
47.73197,0.30771
47.49090,0.23011
47.24983,0.08384
47.00876,0.03341
46.76769,0.08426
46.52662,0.18432
46.28555,0.17352
46.04448,0.09008
45.80341,0.07223
45.56234,0.12593
45.32126,0.16587
45.08019,0.14057
44.83912,0.13751
44.59805,0.17516
44.35698,0.16262
44.11591,0.10980
43.87484,0.10862
43.63377,0.15637
43.39270,0.17684
43.15163,0.15872
42.91056,0.15658
42.66949,0.16205
42.42842,0.15160
42.18735,0.14725
41.94628,0.15804
41.70521,0.15729
41.46414,0.13613
41.22307,0.12091
40.98199,0.12857
40.74092,0.14979
40.49985,0.15981
40.25878,0.15210
40.01771,0.14631
39.77664,0.14882
39.53557,0.14827
39.29450,0.14684
39.05343,0.15804
38.81236,0.18141
38.57129,0.20763
38.33022,0.23256
38.08915,0.25632
37.84808,0.27909
37.60701,0.29575
37.36594,0.29723
37.12487,0.28436
36.88380,0.27151
36.64272,0.26816
36.40165,0.26963
36.16058,0.26930
35.91951,0.26656
35.67844,0.26478
35.43737,0.26450
35.19630,0.26247
34.95523,0.25952
34.71416,0.25786
34.47309,0.25664
34.23202,0.25640
33.99095,0.25504
33.74988,0.24552
33.50881,0.22970
33.26774,0.22067
33.02667,0.22005
32.78560,0.21501
32.54453,0.20322
32.30345,0.19578
32.06238,0.20314
31.82131,0.22283
31.58024,0.23586
31.33917,0.22595
31.09810,0.20428
30.85703,0.19566
30.61596,0.21064
30.37489,0.23930
30.13382,0.25913
29.89275,0.25282
29.65168,0.23081
29.41061,0.21558
29.16954,0.20817
28.92847,0.19560
28.68740,0.17579
28.44633,0.15761
28.20526,0.14313
27.96418,0.12416
27.72311,0.09674
27.48204,0.06943
27.24097,0.05287
26.99990,0.05528
26.75883,0.07456
26.51776,0.08624
26.27669,0.06756
26.03562,0.02626
25.79455,-0.00721
25.55348,-0.01046
25.31241,0.01238
25.07134,0.03673
24.83027,0.04095
24.58920,0.02345
24.34813,-0.00528
24.10706,-0.03937
23.86599,-0.07212
23.62491,-0.09221
23.38384,-0.10713
23.14277,-0.12735
22.90170,-0.13594
22.66063,-0.11700
22.41956,-0.08416
22.17849,-0.06506
21.93742,-0.07969
21.69635,-0.11407
21.45528,-0.12208
21.21421,-0.08739
20.97314,-0.04236
20.73207,-0.02135
20.49100,-0.03526
20.24993,-0.07700
20.00886,-0.13645
19.76779,-0.20169
19.52672,-0.25023
19.28564,-0.26948
19.04457,-0.27102
18.80350,-0.26127
18.56243,-0.22549
18.32136,-0.18440
18.08029,-0.17159
17.83922,-0.18274
17.59815,-0.20918
17.35708,-0.26745
17.11601,-0.34405
16.87494,-0.38280
16.63387,-0.40324
16.39280,-0.43117
16.15173,-0.42315
15.91066,-0.33055
15.66959,-0.24063
15.42852,-0.21090
15.18745,-0.22966
14.94637,-0.25079
14.70530,-0.26550
14.46423,-0.29114
14.22316,-0.30650
13.98209,-0.28045
13.74102,-0.24160
13.49995,-0.24591
13.25888,-0.30756
13.01781,-0.37837
12.77674,-0.44091
12.53567,-0.47596
12.29460,-0.43496
12.05353,-0.36907
11.81246,-0.33214
11.57139,-0.33395
11.33032,-0.35520
11.08925,-0.37788
10.84818,-0.36446
10.60710,-0.32015
10.36603,-0.28496
10.12496,-0.26488
9.88389,-0.25984
9.64282,-0.28298
9.40175,-0.33748
9.16068,-0.39516
8.91961,-0.42443
8.67854,-0.40793
8.43747,-0.34883
8.19640,-0.28097
7.95533,-0.23269
7.71426,-0.21624
7.47319,-0.23063
7.23212,-0.26463
6.99105,-0.28642
6.74998,-0.28407
6.50891,-0.30656
6.26783,-0.34157
6.02676,-0.34200
5.78569,-0.29316
5.54462,-0.22340
5.30355,-0.17062
5.06248,-0.15245
4.82141,-0.16766
4.58034,-0.21189
4.33927,-0.26840
4.09820,-0.30624
3.85713,-0.30783
3.61606,-0.27851
3.37499,-0.24456
3.13392,-0.23865
2.89285,-0.25176
2.65178,-0.24649
2.41071,-0.21776
2.16964,-0.20762
1.92856,-0.23191
1.68749,-0.25139
1.44642,-0.24144
1.20535,-0.21673
0.96428,-0.21104
0.72321,-0.25641
0.48214,-0.29500
0.24107,-0.19756
-0.00000,-0.08622
