399.69498,1.57756
399.45391,1.59565
399.21284,1.60315
398.97177,1.59508
398.73070,1.58439
398.48963,1.58296
398.24856,1.58951
398.00749,1.59370
397.76642,1.58698
397.52535,1.57636
397.28428,1.57785
397.04321,1.59514
396.80214,1.61704
396.56107,1.63479
396.32000,1.65207
396.07892,1.67104
395.83785,1.67778
395.59678,1.65959
395.35571,1.62846
395.11464,1.60363
394.87357,1.59115
394.63250,1.58898
394.39143,1.59149
394.15036,1.59209
393.90929,1.58879
393.66822,1.58310
393.42715,1.57577
393.18608,1.56634
392.94501,1.55896
392.70394,1.55793
392.46287,1.55882
392.22180,1.55293
391.98073,1.53763
391.73965,1.52155
391.49858,1.51771
391.25751,1.52906
391.01644,1.54394
390.77537,1.55112
390.53430,1.55437
390.29323,1.56238
390.05216,1.57198
389.81109,1.57189
389.57002,1.56268
389.32895,1.55663
389.08788,1.55991
388.84681,1.56702
388.60574,1.56852
388.36467,1.55583
388.12360,1.52900
387.88253,1.50662
387.64146,1.50151
387.40038,1.50477
387.15931,1.50381
386.91824,1.49591
386.67717,1.47877
386.43610,1.45547
386.19503,1.43949
385.95396,1.43834
385.71289,1.44228
385.47182,1.43657
385.23075,1.42282
384.98968,1.41513
384.74861,1.41783
384.50754,1.42110
384.26647,1.41801
384.02540,1.41273
383.78433,1.41105
383.54326,1.41022
383.30219,1.40553
383.06111,1.40502
382.82004,1.41527
382.57897,1.41626
382.33790,1.38338
382.09683,1.33445
381.85576,1.30492
381.61469,1.30303
381.37362,1.31267
381.13255,1.31931
380.89148,1.32398
380.65041,1.32695
380.40934,1.32725
380.16827,1.33696
379.92720,1.35541
379.68613,1.36450
379.44506,1.35641
379.20399,1.34624
378.96292,1.34827
378.72184,1.35466
378.48077,1.35446
378.23970,1.35424
377.99863,1.36296
377.75756,1.37554
377.51649,1.37630
377.27542,1.36001
377.03435,1.34368
376.79328,1.34716
376.55221,1.37323
376.31114,1.41203
376.07007,1.45193
375.82900,1.47514
375.58793,1.47394
375.34686,1.46789
375.10579,1.47434
374.86472,1.48240
374.62365,1.46834
374.38257,1.43992
374.14150,1.42521
373.90043,1.43090
373.65936,1.44091
373.41829,1.44268
373.17722,1.44188
372.93615,1.44653
372.69508,1.45440
372.45401,1.45912
372.21294,1.45750
371.97187,1.45170
371.73080,1.44654
371.48973,1.44253
371.24866,1.43780
371.00759,1.43447
370.76652,1.43493
370.52545,1.43686
370.28437,1.43858
370.04330,1.44498
369.80223,1.45599
369.56116,1.46159
369.32009,1.45653
369.07902,1.44866
368.83795,1.44700
368.59688,1.44733
368.35581,1.43821
368.11474,1.41998
367.87367,1.40621
367.63260,1.40743
367.39153,1.41972
367.15046,1.42888
366.90939,1.42611
366.66832,1.41748
366.42725,1.41401
366.18618,1.41500
365.94510,1.41122
365.70403,1.40220
365.46296,1.39748
365.22189,1.40182
364.98082,1.40988
364.73975,1.41294
364.49868,1.40561
364.25761,1.38964
364.01654,1.37362
363.77547,1.36658
363.53440,1.37072
363.29333,1.38070
363.05226,1.38940
362.81119,1.39098
362.57012,1.38304
362.32905,1.37148
362.08798,1.36551
361.84691,1.36450
361.60583,1.35686
361.36476,1.34045
361.12369,1.33062
360.88262,1.33803
360.64155,1.35363
360.40048,1.36165
360.15941,1.35944
359.91834,1.35431
359.67727,1.35051
359.43620,1.34838
359.19513,1.34720
358.95406,1.34670
358.71299,1.34807
358.47192,1.35098
358.23085,1.35063
357.98978,1.34077
357.74871,1.32182
357.50764,1.30409
357.26656,1.29703
357.02549,1.29959
356.78442,1.30449
356.54335,1.30763
356.30228,1.31266
356.06121,1.32449
355.82014,1.33901
355.57907,1.34579
355.33800,1.34046
355.09693,1.32806
354.85586,1.31537
354.61479,1.30593
354.37372,1.30159
354.13265,1.30202
353.89158,1.30527
353.65051,1.31184
353.40944,1.32225
353.16837,1.33036
352.92729,1.32961
352.68622,1.32557
352.44515,1.32912
352.20408,1.33925
351.96301,1.34563
351.72194,1.34547
351.48087,1.34317
351.23980,1.33673
350.99873,1.31967
350.75766,1.29591
350.51659,1.27928
350.27552,1.27772
350.03445,1.28676
349.79338,1.29760
349.55231,1.30746
349.31124,1.31900
349.07017,1.33829
348.82910,1.36949
348.58802,1.39811
348.34695,1.39987
348.10588,1.37440
347.86481,1.34163
347.62374,1.31860
347.38267,1.31373
347.14160,1.33024
346.90053,1.36179
346.65946,1.38938
346.41839,1.39561
346.17732,1.38582
345.93625,1.38099
345.69518,1.38757
345.45411,1.39181
345.21304,1.38439
344.97197,1.37660
344.73090,1.38184
344.48983,1.39289
344.24875,1.38894
344.00768,1.36402
343.76661,1.33715
343.52554,1.33313
343.28447,1.36276
343.04340,1.41509
342.80233,1.45718
342.56126,1.46280
342.32019,1.44423
342.07912,1.42506
341.83805,1.41180
341.59698,1.40187
341.35591,1.39667
341.11484,1.39689
340.87377,1.39751
340.63270,1.39752
340.39163,1.40467
340.15056,1.42261
339.90948,1.44289
339.66841,1.45541
339.42734,1.45889
339.18627,1.45517
338.94520,1.44498
338.70413,1.43350
338.46306,1.42959
338.22199,1.43613
337.98092,1.44597
337.73985,1.45072
337.49878,1.45015
337.25771,1.44832
337.01664,1.44741
336.77557,1.44897
336.53450,1.45570
336.29343,1.46746
336.05236,1.47892
335.81129,1.48697
335.57021,1.49668
335.32914,1.51209
335.08807,1.52210
334.84700,1.50964
334.60593,1.47367
334.36486,1.43271
334.12379,1.40654
333.88272,1.40053
333.64165,1.40687
333.40058,1.41361
333.15951,1.41252
332.91844,1.40395
332.67737,1.39492
332.43630,1.39233
332.19523,1.39571
331.95416,1.39677
331.71309,1.39145
331.47202,1.38499
331.23094,1.38398
330.98987,1.38775
330.74880,1.38695
330.50773,1.37393
330.26666,1.35333
330.02559,1.33713
329.78452,1.33128
329.54345,1.33192
329.30238,1.33303
329.06131,1.33556
328.82024,1.34701
328.57917,1.36489
328.33810,1.37194
328.09703,1.36020
327.85596,1.34428
327.61489,1.33681
327.37382,1.33545
327.13275,1.33786
326.89167,1.34996
326.65060,1.37556
326.40953,1.40484
326.16846,1.41934
325.92739,1.41105
325.68632,1.39053
325.44525,1.37366
325.20418,1.36677
324.96311,1.36882
324.72204,1.37948
324.48097,1.39361
324.23990,1.39651
323.99883,1.38413
323.75776,1.37395
323.51669,1.37909
323.27562,1.38868
323.03455,1.38605
322.79348,1.37606
322.55240,1.37766
322.31133,1.39329
322.07026,1.40288
321.82919,1.39591
321.58812,1.38651
321.34705,1.38287
321.10598,1.37790
320.86491,1.37432
320.62384,1.38378
320.38277,1.40600
320.14170,1.42318
319.90063,1.42363
319.65956,1.41298
319.41849,1.39818
319.17742,1.38496
318.93635,1.38160
318.69528,1.38485
318.45421,1.37660
318.21313,1.35243
317.97206,1.33139
317.73099,1.32738
317.48992,1.33747
317.24885,1.35491
317.00778,1.36927
316.76671,1.36858
316.52564,1.35813
316.28457,1.35224
316.04350,1.35612
315.80243,1.36957
315.56136,1.39199
315.32029,1.41298
315.07922,1.41575
314.83815,1.40488
314.59708,1.40292
314.35601,1.41344
314.11494,1.41857
313.87386,1.41121
313.63279,1.40174
313.39172,1.39825
313.15065,1.40057
312.90958,1.40662
312.66851,1.41450
312.42744,1.42389
312.18637,1.43152
311.94530,1.42680
311.70423,1.40635
311.46316,1.38605
311.22209,1.38751
310.98102,1.41477
310.73995,1.44897
310.49888,1.46942
310.25781,1.46888
310.01674,1.45318
309.77567,1.43950
309.53459,1.44001
309.29352,1.44411
309.05245,1.43434
308.81138,1.41309
308.57031,1.39329
308.32924,1.38865
308.08817,1.40678
307.84710,1.44114
307.60603,1.47387
307.36496,1.49177
307.12389,1.49658
306.88282,1.49548
306.64175,1.49276
306.40068,1.48948
306.15961,1.48118
305.91854,1.46198
305.67747,1.43790
305.43640,1.42227
305.19532,1.41961
304.95425,1.42710
304.71318,1.44428
304.47211,1.46651
304.23104,1.47642
303.98997,1.45925
303.74890,1.42554
303.50783,1.40270
303.26676,1.40665
303.02569,1.42480
302.78462,1.42664
302.54355,1.40059
302.30248,1.36400
302.06141,1.33907
301.82034,1.33433
301.57927,1.34312
301.33820,1.35132
301.09713,1.34631
300.85605,1.32564
300.61498,1.30452
300.37391,1.30297
300.13284,1.32272
299.89177,1.34337
299.65070,1.34422
299.40963,1.32953
299.16856,1.32084
298.92749,1.32965
298.68642,1.34820
298.44535,1.36031
298.20428,1.35625
297.96321,1.33824
297.72214,1.31494
297.48107,1.29500
297.24000,1.28496
296.99893,1.28756
296.75786,1.29758
296.51678,1.30262
296.27571,1.29413
296.03464,1.27994
295.79357,1.27583
295.55250,1.28355
295.31143,1.28771
295.07036,1.27839
294.82929,1.26493
294.58822,1.26122
294.34715,1.27011
294.10608,1.28050
293.86501,1.28127
293.62394,1.27374
293.38287,1.26547
293.14180,1.26009
292.90073,1.25300
292.65966,1.24017
292.41859,1.22851
292.17751,1.22901
291.93644,1.24113
291.69537,1.25132
291.45430,1.24968
291.21323,1.24134
290.97216,1.23555
290.73109,1.23289
290.49002,1.22868
290.24895,1.22175
290.00788,1.21401
289.76681,1.20643
289.52574,1.20080
289.28467,1.20094
289.04360,1.20640
288.80253,1.20967
288.56146,1.20597
288.32039,1.20071
288.07932,1.20040
287.83824,1.20354
287.59717,1.20549
287.35610,1.20625
287.11503,1.20897
286.87396,1.21331
286.63289,1.21459
286.39182,1.20927
286.15075,1.19929
285.90968,1.18964
285.66861,1.18351
285.42754,1.18142
285.18647,1.18301
284.94540,1.18688
284.70433,1.18977
284.46326,1.18896
284.22219,1.18463
283.98112,1.17937
283.74005,1.17728
283.49897,1.18162
283.25790,1.19027
283.01683,1.19542
282.77576,1.19144
282.53469,1.18212
282.29362,1.17581
282.05255,1.17543
281.81148,1.17765
281.57041,1.18017
281.32934,1.18469
281.08827,1.19189
280.84720,1.19793
280.60613,1.19871
280.36506,1.19471
280.12399,1.18949
279.88292,1.18578
279.64185,1.18431
279.40078,1.18459
279.15970,1.18524
278.91863,1.18468
278.67756,1.18220
278.43649,1.17852
278.19542,1.17553
277.95435,1.17544
277.71328,1.17981
277.47221,1.18812
277.23114,1.19643
276.99007,1.19975
276.74900,1.19749
276.50793,1.19323
276.26686,1.18891
276.02579,1.18381
275.78472,1.17877
275.54365,1.17635
275.30258,1.17656
275.06151,1.17645
274.82043,1.17469
274.57936,1.17314
274.33829,1.17305
274.09722,1.17357
273.85615,1.17396
273.61508,1.17533
273.37401,1.17985
273.13294,1.18784
272.89187,1.19686
272.65080,1.20429
272.40973,1.20903
272.16866,1.20986
271.92759,1.20612
271.68652,1.20056
271.44545,1.19769
271.20438,1.19877
270.96331,1.20224
270.72224,1.20754
270.48116,1.21483
270.24009,1.22255
269.99902,1.22802
269.75795,1.23051
269.51688,1.23194
269.27581,1.23367
269.03474,1.23434
268.79367,1.23348
268.55260,1.23431
268.31153,1.23842
268.07046,1.24312
267.82939,1.24774
267.58832,1.25618
267.34725,1.26940
267.10618,1.28184
266.86511,1.28926
266.62404,1.29333
266.38297,1.29529
266.14189,1.29261
265.90082,1.28647
265.65975,1.28533
265.41868,1.29537
265.17761,1.31097
264.93654,1.31987
264.69547,1.31776
264.45440,1.31320
264.21333,1.31726
263.97226,1.33346
263.73119,1.35549
263.49012,1.37350
263.24905,1.38536
263.00798,1.39735
262.76691,1.41172
262.52584,1.42446
262.28477,1.43755
262.04370,1.45920
261.80262,1.48821
261.56155,1.51108
261.32048,1.51933
261.07941,1.51983
260.83834,1.52529
260.59727,1.54183
260.35620,1.56664
260.11513,1.59394
259.87406,1.62063
259.63299,1.64811
259.39192,1.68046
259.15085,1.71720
258.90978,1.74948
258.66871,1.76863
258.42764,1.77742
258.18657,1.78658
257.94550,1.80106
257.70443,1.81752
257.46335,1.83163
257.22228,1.83810
256.98121,1.83055
256.74014,1.81796
256.49907,1.81991
256.25800,1.83987
256.01693,1.85504
255.77586,1.84509
255.53479,1.82110
255.29372,1.80415
255.05265,1.80316
254.81158,1.80705
254.57051,1.78529
254.32944,1.72786
254.08837,1.66577
253.84730,1.63149
253.60623,1.63601
253.36516,1.67021
253.12408,1.71598
252.88301,1.76075
252.64194,1.79779
252.40087,1.81413
252.15980,1.79572
251.91873,1.74472
251.67766,1.68970
251.43659,1.66366
251.19552,1.67306
250.95445,1.69880
250.71338,1.71732
250.47231,1.71631
250.23124,1.69604
249.99017,1.66803
249.74910,1.64720
249.50803,1.63832
249.26696,1.63803
249.02589,1.64686
248.78481,1.66482
248.54374,1.67818
248.30267,1.67252
248.06160,1.65654
247.82053,1.64539
247.57946,1.64009
247.33839,1.63872
247.09732,1.64205
246.85625,1.64587
246.61518,1.64533
246.37411,1.64382
246.13304,1.64531
245.89197,1.64852
245.65090,1.65442
245.40983,1.66720
245.16876,1.68955
244.92769,1.72333
244.68661,1.76932
244.44554,1.82360
244.20447,1.88525
243.96340,1.95697
243.72233,2.02236
243.48126,2.05016
243.24019,2.05544
242.99912,2.08767
242.75805,2.13371
242.51698,2.13812
242.27591,2.02754
242.03484,1.87175
241.79377,1.75168
241.55270,1.66236
241.31163,1.58605
241.07056,1.51331
240.82949,1.44913
240.58842,1.40015
240.34734,1.36062
240.10627,1.32083
239.86520,1.28247
239.62413,1.25371
239.38306,1.23524
239.14199,1.21958
238.90092,1.19989
238.65985,1.17601
238.41878,1.15253
238.17771,1.13326
237.93664,1.11830
237.69557,1.10549
237.45450,1.09338
237.21343,1.08242
236.97236,1.07388
236.73129,1.06716
236.49022,1.05834
236.24915,1.04369
236.00807,1.02477
235.76700,1.00680
235.52593,0.99310
235.28486,0.98268
235.04379,0.97218
234.80272,0.95982
234.56165,0.94756
234.32058,0.93969
234.07951,0.93897
233.83844,0.94388
233.59737,0.95038
233.35630,0.95527
233.11523,0.95692
232.87416,0.95434
232.63309,0.94764
232.39202,0.93923
232.15095,0.93213
231.90988,0.92658
231.66880,0.92000
231.42773,0.91066
231.18666,0.89993
230.94559,0.89119
230.70452,0.88827
230.46345,0.89311
230.22238,0.90195
229.98131,0.90621
229.74024,0.90092
229.49917,0.88942
229.25810,0.87712
229.01703,0.86677
228.77596,0.86092
228.53489,0.86186
228.29382,0.86739
228.05275,0.87188
227.81168,0.87297
227.57061,0.87335
227.32953,0.87479
227.08846,0.87545
226.84739,0.87376
226.60632,0.87019
226.36525,0.86527
226.12418,0.85936
225.88311,0.85414
225.64204,0.85181
225.40097,0.85266
225.15990,0.85460
224.91883,0.85533
224.67776,0.85469
224.43669,0.85470
224.19562,0.85646
223.95455,0.85821
223.71348,0.85805
223.47241,0.85658
223.23134,0.85552
222.99026,0.85674
222.74919,0.86227
222.50812,0.87181
222.26705,0.88139
222.02598,0.88786
221.78491,0.89191
221.54384,0.89432
221.30277,0.89448
221.06170,0.89399
220.82063,0.89606
220.57956,0.90185
220.33849,0.91062
220.09742,0.92135
219.85635,0.93215
219.61528,0.94118
219.37421,0.94856
219.13314,0.95492
218.89207,0.96031
218.65099,0.96604
218.40992,0.97435
218.16885,0.98571
217.92778,0.99895
217.68671,1.01379
217.44564,1.03084
217.20457,1.04951
216.96350,1.06660
216.72243,1.07824
216.48136,1.08495
216.24029,1.09237
215.99922,1.10478
215.75815,1.12028
215.51708,1.13368
215.27601,1.14189
215.03494,1.14577
214.79387,1.14880
214.55280,1.15329
214.31172,1.15823
214.07065,1.16348
213.82958,1.17296
213.58851,1.18993
213.34744,1.21127
213.10637,1.22933
212.86530,1.23864
212.62423,1.23905
212.38316,1.23545
212.14209,1.23553
211.90102,1.24342
211.65995,1.25546
211.41888,1.26367
211.17781,1.26319
210.93674,1.25571
210.69567,1.24786
210.45460,1.24641
210.21353,1.25195
209.97245,1.25770
209.73138,1.25575
209.49031,1.24394
209.24924,1.22665
209.00817,1.21056
208.76710,1.20146
208.52603,1.20241
208.28496,1.21190
208.04389,1.22303
207.80282,1.22640
207.56175,1.21832
207.32068,1.20231
207.07961,1.18358
206.83854,1.16892
206.59747,1.16536
206.35640,1.17251
206.11533,1.17772
205.87426,1.16633
205.63318,1.13948
205.39211,1.11154
205.15104,1.09245
204.90997,1.08252
204.66890,1.07738
204.42783,1.07157
204.18676,1.06194
203.94569,1.05046
203.70462,1.04168
203.46355,1.03779
203.22248,1.03655
202.98141,1.03259
202.74034,1.02152
202.49927,1.00379
202.25820,0.98416
202.01713,0.96732
201.77606,0.95381
201.53499,0.94016
201.29391,0.92280
201.05284,0.90251
200.81177,0.88418
200.57070,0.87182
200.32963,0.86440
200.08856,0.85747
199.84749,0.84814
199.60642,0.83676
199.36535,0.82533
199.12428,0.81601
198.88321,0.80996
198.64214,0.80565
198.40107,0.79927
198.16000,0.78838
197.91893,0.77546
197.67786,0.76611
197.43679,0.76311
197.19572,0.76227
196.95464,0.75542
196.71357,0.74092
196.47250,0.72710
196.23143,0.72116
195.99036,0.72009
195.74929,0.71527
195.50822,0.70427
195.26715,0.69285
195.02608,0.68560
194.78501,0.68078
194.54394,0.67426
194.30287,0.66523
194.06180,0.65684
193.82073,0.65201
193.57966,0.64991
193.33859,0.64753
193.09752,0.64421
192.85645,0.64192
192.61537,0.64079
192.37430,0.63842
192.13323,0.63397
191.89216,0.62910
191.65109,0.62462
191.41002,0.61982
191.16895,0.61509
190.92788,0.61198
190.68681,0.61053
190.44574,0.60885
190.20467,0.60600
189.96360,0.60357
189.72253,0.60299
189.48146,0.60290
189.24039,0.60066
188.99932,0.59564
188.75825,0.58994
188.51718,0.58608
188.27610,0.58492
188.03503,0.58556
187.79396,0.58661
187.55289,0.58713
187.31182,0.58694
187.07075,0.58672
186.82968,0.58710
186.58861,0.58710
186.34754,0.58505
186.10647,0.58174
185.86540,0.57997
185.62433,0.58029
185.38326,0.58008
185.14219,0.57795
184.90112,0.57629
184.66005,0.57719
184.41898,0.57918
184.17791,0.58045
183.93683,0.58202
183.69576,0.58431
183.45469,0.58488
183.21362,0.58326
182.97255,0.58331
182.73148,0.58679
182.49041,0.59017
182.24934,0.59069
182.00827,0.59001
181.76720,0.58950
181.52613,0.58786
181.28506,0.58560
181.04399,0.58633
180.80292,0.59123
180.56185,0.59693
180.32078,0.60080
180.07971,0.60379
179.83864,0.60691
179.59756,0.60962
179.35649,0.61222
179.11542,0.61639
178.87435,0.62300
178.63328,0.63143
178.39221,0.64042
178.15114,0.64920
177.91007,0.65836
177.66900,0.66841
177.42793,0.67823
177.18686,0.68698
176.94579,0.69628
176.70472,0.70807
176.46365,0.72182
176.22258,0.73530
175.98151,0.74702
175.74044,0.75835
175.49937,0.77349
175.25829,0.79501
175.01722,0.82005
174.77615,0.84351
174.53508,0.86351
174.29401,0.88064
174.05294,0.89447
173.81187,0.90417
173.57080,0.91031
173.32973,0.91487
173.08866,0.92024
172.84759,0.92771
172.60652,0.93664
172.36545,0.94575
172.12438,0.95470
171.88331,0.96365
171.64224,0.97165
171.40117,0.97640
171.16010,0.97585
170.91902,0.97038
170.67795,0.96276
170.43688,0.95546
170.19581,0.94891
169.95474,0.94196
169.71367,0.93336
169.47260,0.92349
169.23153,0.91552
168.99046,0.91342
168.74939,0.91703
168.50832,0.92037
168.26725,0.91712
168.02618,0.90727
167.78511,0.89624
167.54404,0.88916
167.30297,0.88729
167.06190,0.88879
166.82083,0.89196
166.57975,0.89679
166.33868,0.90278
166.09761,0.90766
165.85654,0.90950
165.61547,0.90872
165.37440,0.90805
165.13333,0.91197
164.89226,0.92403
164.65119,0.94212
164.41012,0.95821
164.16905,0.96616
163.92798,0.96873
163.68691,0.97262
163.44584,0.97884
163.20477,0.98353
162.96370,0.98638
162.72263,0.99241
162.48156,1.00444
162.24048,1.01888
161.99941,1.02979
161.75834,1.03378
161.51727,1.03096
161.27620,1.02423
161.03513,1.01764
160.79406,1.01408
160.55299,1.01530
160.31192,1.02179
160.07085,1.02979
159.82978,1.03127
159.58871,1.02059
159.34764,1.00143
159.10657,0.98425
158.86550,0.97715
158.62443,0.97997
158.38336,0.98569
158.14229,0.98740
157.90121,0.98366
157.66014,0.97610
157.41907,0.96560
157.17800,0.95399
156.93693,0.94550
156.69586,0.94291
156.45479,0.94359
156.21372,0.94074
155.97265,0.92962
155.73158,0.91241
155.49051,0.89676
155.24944,0.88973
155.00837,0.89140
154.76730,0.89414
154.52623,0.88928
154.28516,0.87519
154.04409,0.85724
153.80302,0.84119
153.56194,0.82915
153.32087,0.81958
153.07980,0.80888
152.83873,0.79437
152.59766,0.77698
152.35659,0.76035
152.11552,0.74705
151.87445,0.73670
151.63338,0.72668
151.39231,0.71453
151.15124,0.69999
150.91017,0.68476
150.66910,0.67036
150.42803,0.65706
150.18696,0.64486
149.94589,0.63371
149.70482,0.62260
149.46375,0.61084
149.22267,0.60025
148.98160,0.59325
148.74053,0.58892
148.49946,0.58359
148.25839,0.57587
148.01732,0.56883
147.77625,0.56609
147.53518,0.56756
147.29411,0.56950
147.05304,0.56810
146.81197,0.56360
146.57090,0.55995
146.32983,0.56039
146.08876,0.56472
145.84769,0.57025
145.60662,0.57465
145.36555,0.57748
145.12448,0.57957
144.88340,0.58221
144.64233,0.58702
144.40126,0.59449
144.16019,0.60195
143.91912,0.60544
143.67805,0.60397
143.43698,0.59981
143.19591,0.59488
142.95484,0.58952
142.71377,0.58384
142.47270,0.57805
142.23163,0.57170
141.99056,0.56388
141.74949,0.55441
141.50842,0.54450
141.26735,0.53604
141.02628,0.52972
140.78521,0.52443
140.54413,0.51905
140.30306,0.51434
140.06199,0.51196
139.82092,0.51245
139.57985,0.51528
139.33878,0.51974
139.09771,0.52450
138.85664,0.52817
138.61557,0.53177
138.37450,0.53792
138.13343,0.54635
137.89236,0.55420
137.65129,0.56166
137.41022,0.57239
137.16915,0.58719
136.92808,0.60315
136.68701,0.61921
136.44594,0.63674
136.20486,0.65486
135.96379,0.67145
135.72272,0.68879
135.48165,0.71196
135.24058,0.74209
134.99951,0.77540
134.75844,0.80768
134.51737,0.83689
134.27630,0.86344
134.03523,0.88985
133.79416,0.91856
133.55309,0.94961
133.31202,0.98124
133.07095,1.01078
132.82988,1.03513
132.58881,1.05416
132.34774,1.07171
132.10667,1.08956
131.86559,1.10458
131.62452,1.11370
131.38345,1.11745
131.14238,1.11876
130.90131,1.11912
130.66024,1.11531
130.41917,1.10326
130.17810,1.08397
129.93703,1.06000
129.69596,1.03166
129.45489,0.99967
129.21382,0.96596
128.97275,0.93148
128.73168,0.89665
128.49061,0.86285
128.24954,0.83121
128.00847,0.80153
127.76740,0.77361
127.52632,0.74814
127.28525,0.72576
127.04418,0.70599
126.80311,0.68687
126.56204,0.66640
126.32097,0.64474
126.07990,0.62416
125.83883,0.60649
125.59776,0.59135
125.35669,0.57656
125.11562,0.56012
124.87455,0.54267
124.63348,0.52729
124.39241,0.51574
124.15134,0.50645
123.91027,0.49732
123.66920,0.48900
123.42812,0.48366
123.18705,0.48138
122.94598,0.47951
122.70491,0.47586
122.46384,0.47129
122.22277,0.46832
121.98170,0.46800
121.74063,0.46940
121.49956,0.47129
121.25849,0.47301
121.01742,0.47459
120.77635,0.47744
120.53528,0.48365
120.29421,0.49350
120.05314,0.50463
119.81207,0.51512
119.57100,0.52611
119.32993,0.53993
119.08885,0.55750
118.84778,0.57885
118.60671,0.60496
118.36564,0.63691
118.12457,0.67241
117.88350,0.70528
117.64243,0.73122
117.40136,0.75223
117.16029,0.77155
116.91922,0.78646
116.67815,0.79159
116.43708,0.78661
116.19601,0.77557
115.95494,0.76277
115.71387,0.75273
115.47280,0.74945
115.23173,0.75156
114.99066,0.75170
114.74958,0.74489
114.50851,0.73342
114.26744,0.72037
114.02637,0.70513
113.78530,0.68846
113.54423,0.67488
113.30316,0.66745
113.06209,0.66456
112.82102,0.66394
112.57995,0.66686
112.33888,0.67547
112.09781,0.68768
111.85674,0.69752
111.61567,0.70165
111.37460,0.70243
111.13353,0.70265
110.89246,0.70185
110.65139,0.69940
110.41031,0.69708
110.16924,0.69751
109.92817,0.70104
109.68710,0.70350
109.44603,0.69778
109.20496,0.68073
108.96389,0.65715
108.72282,0.63388
108.48175,0.61300
108.24068,0.59434
107.99961,0.58052
107.75854,0.57403
107.51747,0.57108
107.27640,0.56234
107.03533,0.54156
106.79426,0.51188
106.55319,0.48285
106.31212,0.46282
106.07104,0.45373
105.82997,0.45135
105.58890,0.44864
105.34783,0.43981
105.10676,0.42394
104.86569,0.40526
104.62462,0.38955
104.38355,0.38067
104.14248,0.37844
103.90141,0.37836
103.66034,0.37415
103.41927,0.36224
103.17820,0.34521
102.93713,0.33026
102.69606,0.32342
102.45499,0.32463
102.21392,0.32811
101.97285,0.32776
101.73177,0.32205
101.49070,0.31349
101.24963,0.30567
101.00856,0.30183
100.76749,0.30309
100.52642,0.30584
100.28535,0.30358
100.04428,0.29450
99.80321,0.28476
99.56214,0.28193
99.32107,0.28708
99.08000,0.29238
98.83893,0.28899
98.59786,0.27955
98.35679,0.27489
98.11572,0.27944
97.87465,0.28601
97.63358,0.28472
97.39250,0.27672
97.15143,0.27214
96.91036,0.27642
96.66929,0.28473
96.42822,0.28937
96.18715,0.29041
95.94608,0.29361
95.70501,0.30117
95.46394,0.30999
95.22287,0.31687
94.98180,0.32194
94.74073,0.32608
94.49966,0.32796
94.25859,0.32673
94.01752,0.32535
93.77645,0.32669
93.53538,0.32923
93.29431,0.33048
93.05323,0.33179
92.81216,0.33425
92.57109,0.33412
92.33002,0.32941
92.08895,0.32598
91.84788,0.32902
91.60681,0.33497
91.36574,0.33948
91.12467,0.34615
90.88360,0.35885
90.64253,0.37491
90.40146,0.39429
90.16039,0.42463
89.91932,0.46761
89.67825,0.51332
89.43718,0.55626
89.19611,0.60084
88.95504,0.64573
88.71396,0.68232
88.47289,0.70675
88.23182,0.71903
87.99075,0.71708
87.74968,0.69940
87.50861,0.66805
87.26754,0.62998
87.02647,0.59334
86.78540,0.55973
86.54433,0.52557
86.30326,0.49086
86.06219,0.45899
85.82112,0.43030
85.58005,0.40315
85.33898,0.37847
85.09791,0.35815
84.85684,0.34197
84.61577,0.32805
84.37469,0.31420
84.13362,0.29927
83.89255,0.28431
83.65148,0.27117
83.41041,0.26003
83.16934,0.25023
82.92827,0.24243
82.68720,0.23760
82.44613,0.23488
82.20506,0.23192
81.96399,0.22723
81.72292,0.22149
81.48185,0.21660
81.24078,0.21385
80.99971,0.21309
80.75864,0.21318
80.51757,0.21288
80.27650,0.21153
80.03542,0.20931
79.79435,0.20656
79.55328,0.20342
79.31221,0.19996
79.07114,0.19634
78.83007,0.19288
78.58900,0.19017
78.34793,0.18862
78.10686,0.18765
77.86579,0.18567
77.62472,0.18154
77.38365,0.17622
77.14258,0.17238
76.90151,0.17165
76.66044,0.17294
76.41937,0.17418
76.17830,0.17482
75.93723,0.17511
75.69615,0.17435
75.45508,0.17192
75.21401,0.16879
74.97294,0.16695
74.73187,0.16789
74.49080,0.17175
74.24973,0.17707
74.00866,0.18143
73.76759,0.18298
73.52652,0.18217
73.28545,0.18144
73.04438,0.18250
72.80331,0.18422
72.56224,0.18446
72.32117,0.18295
72.08010,0.18072
71.83903,0.17813
71.59796,0.17516
71.35688,0.17248
71.11581,0.17121
70.87474,0.17210
70.63367,0.17504
70.39260,0.18001
70.15153,0.18923
69.91046,0.20590
69.66939,0.22858
69.42832,0.24851
69.18725,0.25613
68.94618,0.25024
68.70511,0.23716
68.46404,0.22220
68.22297,0.20714
67.98190,0.19283
67.74083,0.18006
67.49976,0.16907
67.25869,0.16006
67.01761,0.15315
66.77654,0.14770
66.53547,0.14280
66.29440,0.13856
66.05333,0.13670
65.81226,0.13944
65.57119,0.14745
65.33012,0.15891
65.08905,0.17120
64.84798,0.18375
64.60691,0.19797
64.36584,0.21372
64.12477,0.22703
63.88370,0.23334
63.64263,0.23158
63.40156,0.22304
63.16049,0.20924
62.91942,0.19318
62.67834,0.17907
62.43727,0.16872
62.19620,0.16033
61.95513,0.15137
61.71406,0.14155
61.47299,0.13278
61.23192,0.12739
60.99085,0.12662
60.74978,0.13066
60.50871,0.13922
60.26764,0.15169
60.02657,0.16683
59.78550,0.18259
59.54443,0.19550
59.30336,0.20074
59.06229,0.19473
58.82122,0.17795
58.58015,0.15499
58.33907,0.13199
58.09800,0.11412
57.85693,0.10428
57.61586,0.10361
57.37479,0.11263
57.13372,0.13106
56.89265,0.15566
56.65158,0.17839
56.41051,0.18905
56.16944,0.18235
55.92837,0.16121
55.68730,0.13380
55.44623,0.10986
55.20516,0.09686
54.96409,0.09837
54.72302,0.11571
54.48195,0.14791
54.24088,0.18606
53.99980,0.20822
53.75873,0.19601
53.51766,0.16167
53.27659,0.13215
53.03552,0.12476
52.79445,0.14493
52.55338,0.18745
52.31231,0.22987
52.07124,0.23408
51.83017,0.19439
51.58910,0.14752
51.34803,0.11964
51.10696,0.11940
50.86589,0.14919
50.62482,0.19587
50.38375,0.20902
50.14268,0.16648
49.90161,0.12537
49.66053,0.12613
49.41946,0.17312
49.17839,0.22175
48.93732,0.19863
48.69625,0.14601
48.45518,0.12951
48.21411,0.15841
47.97304,0.19465
47.73197,0.18007
47.49090,0.14154
47.24983,0.13173
47.00876,0.14654
46.76769,0.14834
46.52662,0.13266
46.28555,0.12614
46.04448,0.12588
45.80341,0.11579
45.56234,0.11154
45.32126,0.12773
45.08019,0.13972
44.83912,0.12645
44.59805,0.11477
44.35698,0.12021
44.11591,0.12439
43.87484,0.12078
43.63377,0.12727
43.39270,0.14595
43.15163,0.15951
42.91056,0.16077
42.66949,0.15659
42.42842,0.15494
42.18735,0.15850
41.94628,0.16175
41.70521,0.16103
41.46414,0.16133
41.22307,0.16296
40.98199,0.16015
40.74092,0.15560
40.49985,0.15808
40.25878,0.17107
40.01771,0.19092
39.77664,0.20965
39.53557,0.21863
39.29450,0.21669
39.05343,0.21120
38.81236,0.20965
38.57129,0.21473
38.33022,0.22449
38.08915,0.23313
37.84808,0.23735
37.60701,0.24075
37.36594,0.24600
37.12487,0.24973
36.88380,0.24647
36.64272,0.23539
36.40165,0.22495
36.16058,0.22610
35.91951,0.23800
35.67844,0.24763
35.43737,0.24859
35.19630,0.24716
34.95523,0.24730
34.71416,0.24214
34.47309,0.22846
34.23202,0.21696
33.99095,0.21577
33.74988,0.21916
33.50881,0.22116
33.26774,0.22521
33.02667,0.23247
32.78560,0.23485
32.54453,0.22888
32.30345,0.22139
32.06238,0.22104
31.82131,0.22768
31.58024,0.23083
31.33917,0.22261
31.09810,0.20504
30.85703,0.18410
30.61596,0.16198
30.37489,0.14011
30.13382,0.12828
29.89275,0.13137
29.65168,0.13787
29.41061,0.13597
29.16954,0.12844
28.92847,0.12267
28.68740,0.11412
28.44633,0.09662
28.20526,0.07839
27.96418,0.06901
27.72311,0.06024
27.48204,0.03917
27.24097,0.01282
26.99990,0.00298
26.75883,0.01781
26.51776,0.04027
26.27669,0.04682
26.03562,0.02729
25.79455,-0.01048
25.55348,-0.04740
25.31241,-0.06799
25.07134,-0.07401
24.83027,-0.07980
24.58920,-0.09173
24.34813,-0.10573
24.10706,-0.11539
23.86599,-0.11150
23.62491,-0.08991
23.38384,-0.06028
23.14277,-0.03759
22.90170,-0.03044
22.66063,-0.04026
22.41956,-0.06590
22.17849,-0.10209
21.93742,-0.13409
21.69635,-0.14609
21.45528,-0.14436
21.21421,-0.15358
20.97314,-0.18076
20.73207,-0.20703
20.49100,-0.22058
20.24993,-0.23345
20.00886,-0.25443
19.76779,-0.27732
19.52672,-0.29064
19.28564,-0.28848
19.04457,-0.27831
18.80350,-0.26951
18.56243,-0.26121
18.32136,-0.25244
18.08029,-0.25325
17.83922,-0.26599
17.59815,-0.28175
17.35708,-0.30017
17.11601,-0.32143
16.87494,-0.32555
16.63387,-0.29572
16.39280,-0.25852
16.15173,-0.24631
15.91066,-0.25776
15.66959,-0.27821
15.42852,-0.30387
15.18745,-0.34278
14.94637,-0.39950
14.70530,-0.46001
14.46423,-0.49676
14.22316,-0.48016
13.98209,-0.41341
13.74102,-0.33655
13.49995,-0.27809
13.25888,-0.25478
13.01781,-0.27101
12.77674,-0.30266
12.53567,-0.31707
12.29460,-0.31098
12.05353,-0.30592
11.81246,-0.31684
11.57139,-0.33846
11.33032,-0.36379
11.08925,-0.39695
10.84818,-0.42888
10.60710,-0.42541
10.36603,-0.39229
10.12496,-0.36915
9.88389,-0.35463
9.64282,-0.34221
9.40175,-0.34752
9.16068,-0.37328
8.91961,-0.38320
8.67854,-0.35728
8.43747,-0.34775
8.19640,-0.36178
7.95533,-0.34675
7.71426,-0.31250
7.47319,-0.28508
7.23212,-0.27802
6.99105,-0.29805
6.74998,-0.35191
6.50891,-0.40914
6.26783,-0.38396
6.02676,-0.35622
5.78569,-0.34683
5.54462,-0.35234
5.30355,-0.36510
5.06248,-0.35043
4.82141,-0.32861
4.58034,-0.32696
4.33927,-0.32153
4.09820,-0.30425
3.85713,-0.30585
3.61606,-0.32598
3.37499,-0.35161
3.13392,-0.39059
2.89285,-0.43608
2.65178,-0.40813
2.41071,-0.37890
2.16964,-0.36298
1.92856,-0.36891
1.68749,-0.38586
1.44642,-0.38817
1.20535,-0.39955
0.96428,-0.40358
0.72321,-0.41999
0.48214,-0.49961
0.24107,-0.46197
-0.00000,-0.02009
