399.69498,1.61180
399.45391,1.64133
399.21284,1.65749
398.97177,1.65468
398.73070,1.64041
398.48963,1.62186
398.24856,1.59974
398.00749,1.57551
397.76642,1.55357
397.52535,1.53684
397.28428,1.52658
397.04321,1.52301
396.80214,1.52394
396.56107,1.52540
396.32000,1.52682
396.07892,1.53263
395.83785,1.54794
395.59678,1.57515
395.35571,1.61300
395.11464,1.65698
394.87357,1.69755
394.63250,1.71381
394.39143,1.68515
394.15036,1.62485
393.90929,1.57434
393.66822,1.55915
393.42715,1.57238
393.18608,1.59147
392.94501,1.60200
392.70394,1.60056
392.46287,1.58845
392.22180,1.57318
391.98073,1.56052
391.73965,1.55304
391.49858,1.55402
391.25751,1.56304
391.01644,1.56737
390.77537,1.55303
390.53430,1.52862
390.29323,1.51284
390.05216,1.51490
389.81109,1.52162
389.57002,1.50899
389.32895,1.47972
389.08788,1.46114
388.84681,1.46576
388.60574,1.48440
388.36467,1.50313
388.12360,1.50952
387.88253,1.50037
387.64146,1.48924
387.40038,1.48839
387.15931,1.49141
386.91824,1.48364
386.67717,1.47043
386.43610,1.47318
386.19503,1.49786
385.95396,1.51940
385.71289,1.50574
385.47182,1.46369
385.23075,1.42790
384.98968,1.41431
384.74861,1.41264
384.50754,1.40564
384.26647,1.39035
384.02540,1.37827
383.78433,1.37647
383.54326,1.37858
383.30219,1.37332
383.06111,1.35740
382.82004,1.33892
382.57897,1.32850
382.33790,1.32958
382.09683,1.33739
381.85576,1.34266
381.61469,1.34023
381.37362,1.33566
381.13255,1.33163
380.89148,1.32295
380.65041,1.31175
380.40934,1.30655
380.16827,1.30949
379.92720,1.31791
379.68613,1.33003
379.44506,1.34216
379.20399,1.35373
378.96292,1.37376
378.72184,1.40216
378.48077,1.42521
378.23970,1.43456
377.99863,1.43100
377.75756,1.41994
377.51649,1.40609
377.27542,1.39516
377.03435,1.39468
376.79328,1.40527
376.55221,1.41905
376.31114,1.42718
376.07007,1.43102
375.82900,1.44035
375.58793,1.45887
375.34686,1.47556
375.10579,1.47556
374.86472,1.46061
374.62365,1.44431
374.38257,1.43482
374.14150,1.43356
373.90043,1.43657
373.65936,1.43462
373.41829,1.42381
373.17722,1.41422
372.93615,1.42011
372.69508,1.44445
372.45401,1.47273
372.21294,1.48314
371.97187,1.47193
371.73080,1.45992
371.48973,1.46200
371.24866,1.46797
371.00759,1.46000
370.76652,1.43766
370.52545,1.41573
370.28437,1.40764
370.04330,1.41740
369.80223,1.43519
369.56116,1.44374
369.32009,1.43750
369.07902,1.42875
368.83795,1.42929
368.59688,1.43897
368.35581,1.45164
368.11474,1.45822
367.87367,1.45171
367.63260,1.43824
367.39153,1.43062
367.15046,1.43081
366.90939,1.43003
366.66832,1.42347
366.42725,1.41410
366.18618,1.40514
365.94510,1.39654
365.70403,1.38653
365.46296,1.37711
365.22189,1.37314
364.98082,1.37338
364.73975,1.37060
364.49868,1.36091
364.25761,1.35031
364.01654,1.34748
363.77547,1.35227
363.53440,1.35615
363.29333,1.35269
363.05226,1.34456
362.81119,1.33900
362.57012,1.33832
362.32905,1.33951
362.08798,1.34112
361.84691,1.34625
361.60583,1.35864
361.36476,1.37405
361.12369,1.37930
360.88262,1.36552
360.64155,1.34028
360.40048,1.32010
360.15941,1.31545
359.91834,1.32244
359.67727,1.32455
359.43620,1.31241
359.19513,1.29740
358.95406,1.29610
358.71299,1.31065
358.47192,1.32589
358.23085,1.32714
357.98978,1.31813
357.74871,1.31410
357.50764,1.32211
357.26656,1.33540
357.02549,1.34269
356.78442,1.33780
356.54335,1.32346
356.30228,1.30604
356.06121,1.28955
355.82014,1.27783
355.57907,1.27635
355.33800,1.28670
355.09693,1.30253
354.85586,1.31449
354.61479,1.31881
354.37372,1.31863
354.13265,1.31906
353.89158,1.32479
353.65051,1.33730
353.40944,1.35032
353.16837,1.35203
352.92729,1.33745
352.68622,1.31382
352.44515,1.29216
352.20408,1.27931
351.96301,1.27594
351.72194,1.27976
351.48087,1.28827
351.23980,1.29877
350.99873,1.30902
350.75766,1.31774
350.51659,1.32300
350.27552,1.32144
350.03445,1.31236
349.79338,1.30250
349.55231,1.30017
349.31124,1.30610
349.07017,1.31526
348.82910,1.32397
348.58802,1.32999
348.34695,1.33216
348.10588,1.33344
347.86481,1.33717
347.62374,1.34258
347.38267,1.34900
347.14160,1.35802
346.90053,1.36736
346.65946,1.36895
346.41839,1.35789
346.17732,1.33947
345.93625,1.32456
345.69518,1.32172
345.45411,1.33183
345.21304,1.34697
344.97197,1.35679
344.73090,1.35796
344.48983,1.35770
344.24875,1.36638
344.00768,1.38436
343.76661,1.40073
343.52554,1.40639
343.28447,1.40068
343.04340,1.38991
342.80233,1.38217
342.56126,1.37925
342.32019,1.37656
342.07912,1.37215
341.83805,1.37310
341.59698,1.38388
341.35591,1.39441
341.11484,1.39446
340.87377,1.39192
340.63270,1.40140
340.39163,1.42282
340.15056,1.43999
339.90948,1.43833
339.66841,1.42137
339.42734,1.40402
339.18627,1.39443
338.94520,1.39243
338.70413,1.39837
338.46306,1.41512
338.22199,1.44413
337.98092,1.48030
337.73985,1.50651
337.49878,1.50508
337.25771,1.48033
337.01664,1.44887
336.77557,1.42227
336.53450,1.40675
336.29343,1.40263
336.05236,1.40308
335.81129,1.40257
335.57021,1.40375
335.32914,1.40931
335.08807,1.41710
334.84700,1.42553
334.60593,1.43528
334.36486,1.44295
334.12379,1.43930
333.88272,1.42375
333.64165,1.40827
333.40058,1.40091
333.15951,1.40065
332.91844,1.40462
332.67737,1.40861
332.43630,1.40618
332.19523,1.39698
331.95416,1.39156
331.71309,1.39906
331.47202,1.41537
331.23094,1.42423
330.98987,1.41396
330.74880,1.39039
330.50773,1.36365
330.26666,1.33886
330.02559,1.32268
329.78452,1.32234
329.54345,1.33359
329.30238,1.33979
329.06131,1.33314
328.82024,1.32522
328.57917,1.32842
328.33810,1.34205
328.09703,1.35670
327.85596,1.36365
327.61489,1.35917
327.37382,1.34487
327.13275,1.32816
326.89167,1.31797
326.65060,1.31336
326.40953,1.30420
326.16846,1.28905
325.92739,1.28024
325.68632,1.28929
325.44525,1.31268
325.20418,1.33245
324.96311,1.33508
324.72204,1.32550
324.48097,1.31866
324.23990,1.32418
323.99883,1.34178
323.75776,1.36573
323.51669,1.38729
323.27562,1.39409
323.03455,1.38286
322.79348,1.36608
322.55240,1.35627
322.31133,1.36536
322.07026,1.39051
321.82919,1.40804
321.58812,1.40618
321.34705,1.39501
321.10598,1.38291
320.86491,1.37508
320.62384,1.37321
320.38277,1.37060
320.14170,1.36352
319.90063,1.35653
319.65956,1.35248
319.41849,1.34543
319.17742,1.33012
318.93635,1.31697
318.69528,1.32302
318.45421,1.34951
318.21313,1.37550
317.97206,1.38088
317.73099,1.37141
317.48992,1.36268
317.24885,1.36054
317.00778,1.36634
316.76671,1.37890
316.52564,1.38613
316.28457,1.37747
316.04350,1.36020
315.80243,1.34274
315.56136,1.32791
315.32029,1.32328
315.07922,1.33635
314.83815,1.35971
314.59708,1.37992
314.35601,1.39482
314.11494,1.40362
313.87386,1.39694
313.63279,1.37482
313.39172,1.35792
313.15065,1.36550
312.90958,1.39757
312.66851,1.44128
312.42744,1.48105
312.18637,1.49430
311.94530,1.46983
311.70423,1.42940
311.46316,1.39866
311.22209,1.39472
310.98102,1.41902
310.73995,1.45476
310.49888,1.47686
310.25781,1.47051
310.01674,1.44211
309.77567,1.41020
309.53459,1.39328
309.29352,1.39870
309.05245,1.41763
308.81138,1.43422
308.57031,1.43965
308.32924,1.43718
308.08817,1.43606
307.84710,1.44037
307.60603,1.44595
307.36496,1.44817
307.12389,1.44787
306.88282,1.44644
306.64175,1.44173
306.40068,1.43265
306.15961,1.42093
305.91854,1.40938
305.67747,1.40155
305.43640,1.40118
305.19532,1.41079
304.95425,1.42574
304.71318,1.43349
304.47211,1.42648
304.23104,1.41238
303.98997,1.40301
303.74890,1.40039
303.50783,1.40082
303.26676,1.40307
303.02569,1.40653
302.78462,1.40474
302.54355,1.39315
302.30248,1.37873
302.06141,1.37175
301.82034,1.37567
301.57927,1.38437
301.33820,1.38960
301.09713,1.38911
300.85605,1.38455
300.61498,1.37781
300.37391,1.37054
300.13284,1.36495
299.89177,1.36385
299.65070,1.36710
299.40963,1.36785
299.16856,1.35732
298.92749,1.33580
298.68642,1.31469
298.44535,1.30362
298.20428,1.30072
297.96321,1.29883
297.72214,1.29608
297.48107,1.29486
297.24000,1.29394
296.99893,1.28947
296.75786,1.28127
296.51678,1.27310
296.27571,1.26692
296.03464,1.26177
295.79357,1.25803
295.55250,1.25917
295.31143,1.26617
295.07036,1.27228
294.82929,1.26991
294.58822,1.26168
294.34715,1.25666
294.10608,1.25767
293.86501,1.25823
293.62394,1.25135
293.38287,1.23978
293.14180,1.23338
292.90073,1.23676
292.65966,1.24345
292.41859,1.24327
292.17751,1.23483
291.93644,1.22690
291.69537,1.22698
291.45430,1.23317
291.21323,1.23712
290.97216,1.23331
290.73109,1.22477
290.49002,1.21714
290.24895,1.21132
290.00788,1.20517
289.76681,1.19872
289.52574,1.19575
289.28467,1.19971
289.04360,1.20904
288.80253,1.21760
288.56146,1.21955
288.32039,1.21308
288.07932,1.20151
287.83824,1.19065
287.59717,1.18392
287.35610,1.18021
287.11503,1.17650
286.87396,1.17246
286.63289,1.17074
286.39182,1.17328
286.15075,1.17862
285.90968,1.18243
285.66861,1.18176
285.42754,1.17838
285.18647,1.17628
284.94540,1.17687
284.70433,1.17898
284.46326,1.18201
284.22219,1.18612
283.98112,1.18940
283.74005,1.18837
283.49897,1.18215
283.25790,1.17429
283.01683,1.16945
282.77576,1.16908
282.53469,1.17026
282.29362,1.16964
282.05255,1.16888
281.81148,1.17296
281.57041,1.18229
281.32934,1.19082
281.08827,1.19343
280.84720,1.19082
280.60613,1.18589
280.36506,1.18048
280.12399,1.17679
279.88292,1.17612
279.64185,1.17616
279.40078,1.17468
279.15970,1.17365
278.91863,1.17615
278.67756,1.18085
278.43649,1.18335
278.19542,1.18236
277.95435,1.18128
277.71328,1.18242
277.47221,1.18388
277.23114,1.18387
276.99007,1.18363
276.74900,1.18393
276.50793,1.18267
276.26686,1.17871
276.02579,1.17531
275.78472,1.17723
275.54365,1.18486
275.30258,1.19283
275.06151,1.19478
274.82043,1.18970
274.57936,1.18232
274.33829,1.17739
274.09722,1.17570
273.85615,1.17559
273.61508,1.17574
273.37401,1.17616
273.13294,1.17733
272.89187,1.17846
272.65080,1.17804
272.40973,1.17684
272.16866,1.17718
271.92759,1.17946
271.68652,1.18342
271.44545,1.19145
271.20438,1.20425
270.96331,1.21497
270.72224,1.21735
270.48116,1.21592
270.24009,1.21821
269.99902,1.22338
269.75795,1.22551
269.51688,1.22376
269.27581,1.22326
269.03474,1.22717
268.79367,1.23262
268.55260,1.23497
268.31153,1.23489
268.07046,1.23883
267.82939,1.25031
267.58832,1.26431
267.34725,1.27347
267.10618,1.27689
266.86511,1.27845
266.62404,1.28122
266.38297,1.28543
266.14189,1.28831
265.90082,1.28785
265.65975,1.28731
265.41868,1.29308
265.17761,1.30719
264.93654,1.32419
264.69547,1.33689
264.45440,1.34367
264.21333,1.34913
263.97226,1.35795
263.73119,1.36856
263.49012,1.37533
263.24905,1.37673
263.00798,1.37777
262.76691,1.38496
262.52584,1.40136
262.28477,1.42449
262.04370,1.44676
261.80262,1.46077
261.56155,1.46676
261.32048,1.47322
261.07941,1.49058
260.83834,1.52280
260.59727,1.56204
260.35620,1.59475
260.11513,1.61666
259.87406,1.63711
259.63299,1.66500
259.39192,1.70181
259.15085,1.74645
258.90978,1.79330
258.66871,1.82927
258.42764,1.84567
258.18657,1.84745
257.94550,1.85044
257.70443,1.86625
257.46335,1.88662
257.22228,1.91482
256.98121,1.96283
256.74014,2.00671
256.49907,2.00428
256.25800,1.96596
256.01693,1.93814
255.77586,1.93380
255.53479,1.92575
255.29372,1.88420
255.05265,1.82088
254.81158,1.76885
254.57051,1.73011
254.32944,1.68814
254.08837,1.64811
253.84730,1.62925
253.60623,1.63792
253.36516,1.66143
253.12408,1.68082
252.88301,1.68747
252.64194,1.68542
252.40087,1.68526
252.15980,1.69199
251.91873,1.69524
251.67766,1.68262
251.43659,1.65790
251.19552,1.63596
250.95445,1.62527
250.71338,1.62253
250.47231,1.61908
250.23124,1.61091
249.99017,1.60268
249.74910,1.60030
249.50803,1.60269
249.26696,1.60508
249.02589,1.60644
248.78481,1.60642
248.54374,1.60178
248.30267,1.59156
248.06160,1.58064
247.82053,1.57451
247.57946,1.57342
247.33839,1.57628
247.09732,1.58233
246.85625,1.58955
246.61518,1.60055
246.37411,1.62121
246.13304,1.65193
245.89197,1.68532
245.65090,1.71267
245.40983,1.72984
245.16876,1.73998
244.92769,1.75981
244.68661,1.80444
244.44554,1.86492
244.20447,1.91955
243.96340,1.96259
243.72233,1.99151
243.48126,2.00769
243.24019,2.03813
242.99912,2.09794
242.75805,2.14056
242.51698,2.07621
242.27591,1.97756
242.03484,1.87742
241.79377,1.76926
241.55270,1.66570
241.31163,1.57575
241.07056,1.50300
240.82949,1.44922
240.58842,1.41108
240.34734,1.37956
240.10627,1.34841
239.86520,1.31942
239.62413,1.29355
239.38306,1.26554
239.14199,1.23246
238.90092,1.19910
238.65985,1.17079
238.41878,1.14799
238.17771,1.12917
237.93664,1.11351
237.69557,1.09980
237.45450,1.08590
237.21343,1.07024
236.97236,1.05411
236.73129,1.04058
236.49022,1.03063
236.24915,1.02250
236.00807,1.01404
235.76700,1.00326
235.52593,0.98907
235.28486,0.97471
235.04379,0.96594
234.80272,0.96367
234.56165,0.96307
234.32058,0.95969
234.07951,0.95295
233.83844,0.94465
233.59737,0.93701
233.35630,0.93145
233.11523,0.92848
232.87416,0.92776
232.63309,0.92756
232.39202,0.92546
232.15095,0.92142
231.90988,0.91873
231.66880,0.91932
231.42773,0.91965
231.18666,0.91563
230.94559,0.90907
230.70452,0.90454
230.46345,0.90227
230.22238,0.89883
229.98131,0.89335
229.74024,0.88828
229.49917,0.88521
229.25810,0.88249
229.01703,0.87858
228.77596,0.87579
228.53489,0.87702
228.29382,0.88101
228.05275,0.88494
227.81168,0.88842
227.57061,0.89001
227.32953,0.88555
227.08846,0.87553
226.84739,0.86626
226.60632,0.86056
226.36525,0.85614
226.12418,0.85318
225.88311,0.85495
225.64204,0.86126
225.40097,0.86765
225.15990,0.87041
224.91883,0.86860
224.67776,0.86370
224.43669,0.85868
224.19562,0.85533
223.95455,0.85363
223.71348,0.85396
223.47241,0.85690
223.23134,0.86166
222.99026,0.86718
222.74919,0.87369
222.50812,0.88180
222.26705,0.89041
222.02598,0.89676
221.78491,0.89886
221.54384,0.89781
221.30277,0.89701
221.06170,0.89914
220.82063,0.90472
220.57956,0.91312
220.33849,0.92346
220.09742,0.93400
219.85635,0.94185
219.61528,0.94546
219.37421,0.94712
219.13314,0.95110
218.89207,0.95882
218.65099,0.96786
218.40992,0.97575
218.16885,0.98274
217.92778,0.99058
217.68671,1.00091
217.44564,1.01487
217.20457,1.03214
216.96350,1.05041
216.72243,1.06703
216.48136,1.08141
216.24029,1.09354
215.99922,1.10112
215.75815,1.10248
215.51708,1.10196
215.27601,1.10864
215.03494,1.12752
214.79387,1.15231
214.55280,1.16923
214.31172,1.17143
214.07065,1.16633
213.82958,1.16521
213.58851,1.17208
213.34744,1.18379
213.10637,1.19649
212.86530,1.20911
212.62423,1.22075
212.38316,1.22898
212.14209,1.23299
211.90102,1.23488
211.65995,1.23676
211.41888,1.23978
211.17781,1.24491
210.93674,1.25194
210.69567,1.25858
210.45460,1.26130
210.21353,1.25576
209.97245,1.24133
209.73138,1.22584
209.49031,1.21817
209.24924,1.22125
209.00817,1.23143
208.76710,1.24040
208.52603,1.24069
208.28496,1.23063
208.04389,1.21453
207.80282,1.19981
207.56175,1.19278
207.32068,1.19428
207.07961,1.19723
206.83854,1.19080
206.59747,1.17176
206.35640,1.14861
206.11533,1.13390
205.87426,1.13324
205.63318,1.13899
205.39211,1.13630
205.15104,1.11883
204.90997,1.09440
204.66890,1.07261
204.42783,1.05676
204.18676,1.04674
203.94569,1.04122
203.70462,1.03730
203.46355,1.03225
203.22248,1.02547
202.98141,1.01674
202.74034,1.00402
202.49927,0.98616
202.25820,0.96613
202.01713,0.94826
201.77606,0.93449
201.53499,0.92452
201.29391,0.91719
201.05284,0.90995
200.81177,0.89893
200.57070,0.88246
200.32963,0.86434
200.08856,0.85064
199.84749,0.84277
199.60642,0.83597
199.36535,0.82567
199.12428,0.81316
198.88321,0.80270
198.64214,0.79567
198.40107,0.79030
198.16000,0.78496
197.91893,0.77862
197.67786,0.76986
197.43679,0.75850
197.19572,0.74766
196.95464,0.74144
196.71357,0.74009
196.47250,0.73854
196.23143,0.73140
195.99036,0.71937
195.74929,0.70801
195.50822,0.70102
195.26715,0.69714
195.02608,0.69217
194.78501,0.68399
194.54394,0.67543
194.30287,0.67043
194.06180,0.66883
193.82073,0.66692
193.57966,0.66271
193.33859,0.65824
193.09752,0.65526
192.85645,0.65202
192.61537,0.64598
192.37430,0.63767
192.13323,0.63020
191.89216,0.62538
191.65109,0.62223
191.41002,0.61878
191.16895,0.61398
190.92788,0.60884
190.68681,0.60565
190.44574,0.60498
190.20467,0.60468
189.96360,0.60306
189.72253,0.60154
189.48146,0.60156
189.24039,0.60137
188.99932,0.59853
188.75825,0.59390
188.51718,0.59020
188.27610,0.58839
188.03503,0.58728
187.79396,0.58604
187.55289,0.58520
187.31182,0.58521
187.07075,0.58517
186.82968,0.58401
186.58861,0.58224
186.34754,0.58117
186.10647,0.58062
185.86540,0.57933
185.62433,0.57770
185.38326,0.57777
185.14219,0.57955
184.90112,0.58047
184.66005,0.57940
184.41898,0.57863
184.17791,0.58001
183.93683,0.58219
183.69576,0.58325
183.45469,0.58441
183.21362,0.58807
182.97255,0.59289
182.73148,0.59463
182.49041,0.59308
182.24934,0.59273
182.00827,0.59457
181.76720,0.59443
181.52613,0.59135
181.28506,0.58971
181.04399,0.59195
180.80292,0.59619
180.56185,0.60036
180.32078,0.60323
180.07971,0.60377
179.83864,0.60353
179.59756,0.60591
179.35649,0.61164
179.11542,0.61851
178.87435,0.62515
178.63328,0.63185
178.39221,0.63897
178.15114,0.64707
177.91007,0.65674
177.66900,0.66690
177.42793,0.67553
177.18686,0.68240
176.94579,0.68950
176.70472,0.69929
176.46365,0.71357
176.22258,0.73298
175.98151,0.75574
175.74044,0.77769
175.49937,0.79578
175.25829,0.81079
175.01722,0.82476
174.77615,0.83795
174.53508,0.85003
174.29401,0.86163
174.05294,0.87328
173.81187,0.88488
173.57080,0.89635
173.32973,0.90734
173.08866,0.91716
172.84759,0.92553
172.60652,0.93235
172.36545,0.93720
172.12438,0.94123
171.88331,0.94786
171.64224,0.95861
171.40117,0.96939
171.16010,0.97423
170.91902,0.97181
170.67795,0.96480
170.43688,0.95477
170.19581,0.94234
169.95474,0.93051
169.71367,0.92309
169.47260,0.92032
169.23153,0.91899
168.99046,0.91668
168.74939,0.91350
168.50832,0.90967
168.26725,0.90465
168.02618,0.89897
167.78511,0.89426
167.54404,0.89146
167.30297,0.89068
167.06190,0.89192
166.82083,0.89529
166.57975,0.90113
166.33868,0.90941
166.09761,0.91763
165.85654,0.92232
165.61547,0.92433
165.37440,0.92867
165.13333,0.93657
164.89226,0.94274
164.65119,0.94339
164.41012,0.94240
164.16905,0.94634
163.92798,0.95711
163.68691,0.97157
163.44584,0.98642
163.20477,0.99946
162.96370,1.00618
162.72263,1.00196
162.48156,0.99006
162.24048,0.98084
161.99941,0.98166
161.75834,0.99182
161.51727,1.00609
161.27620,1.01919
161.03513,1.02692
160.79406,1.02708
160.55299,1.02058
160.31192,1.00952
160.07085,0.99624
159.82978,0.98410
159.58871,0.97686
159.34764,0.97619
159.10657,0.97987
158.86550,0.98356
158.62443,0.98466
158.38336,0.98317
158.14229,0.97928
157.90121,0.97256
157.66014,0.96368
157.41907,0.95550
157.17800,0.95051
156.93693,0.94717
156.69586,0.94155
156.45479,0.93333
156.21372,0.92614
155.97265,0.92234
155.73158,0.92106
155.49051,0.91913
155.24944,0.91215
155.00837,0.89841
154.76730,0.88162
154.52623,0.86686
154.28516,0.85617
154.04409,0.84837
153.80302,0.84094
153.56194,0.83134
153.32087,0.81776
153.07980,0.80039
152.83873,0.78209
152.59766,0.76587
152.35659,0.75235
152.11552,0.74022
151.87445,0.72757
151.63338,0.71264
151.39231,0.69592
151.15124,0.68105
150.91017,0.67052
150.66910,0.66186
150.42803,0.65092
150.18696,0.63736
149.94589,0.62412
149.70482,0.61339
149.46375,0.60581
149.22267,0.60076
148.98160,0.59607
148.74053,0.58935
148.49946,0.58058
148.25839,0.57256
148.01732,0.56813
147.77625,0.56683
147.53518,0.56526
147.29411,0.56192
147.05304,0.55931
146.81197,0.55985
146.57090,0.56185
146.32983,0.56163
146.08876,0.55895
145.84769,0.55813
145.60662,0.56305
145.36555,0.57289
145.12448,0.58316
144.88340,0.59005
144.64233,0.59349
144.40126,0.59590
144.16019,0.59885
143.91912,0.60150
143.67805,0.60220
143.43698,0.60092
143.19591,0.59853
142.95484,0.59447
142.71377,0.58735
142.47270,0.57751
142.23163,0.56696
141.99056,0.55694
141.74949,0.54729
141.50842,0.53815
141.26735,0.53057
141.02628,0.52500
140.78521,0.52048
140.54413,0.51613
140.30306,0.51273
140.06199,0.51189
139.82092,0.51368
139.57985,0.51633
139.33878,0.51868
139.09771,0.52156
138.85664,0.52575
138.61557,0.53030
138.37450,0.53429
138.13343,0.53907
137.89236,0.54704
137.65129,0.55821
137.41022,0.57034
137.16915,0.58323
136.92808,0.59949
136.68701,0.61931
136.44594,0.63914
136.20486,0.65756
135.96379,0.67691
135.72272,0.69773
135.48165,0.71851
135.24058,0.74082
134.99951,0.76790
134.75844,0.79865
134.51737,0.82872
134.27630,0.85613
134.03523,0.88242
133.79416,0.91035
133.55309,0.94142
133.31202,0.97344
133.07095,1.00140
132.82988,1.02274
132.58881,1.04046
132.34774,1.06032
132.10667,1.08654
131.86559,1.11686
131.62452,1.14027
131.38345,1.14740
131.14238,1.14363
130.90131,1.14050
130.66024,1.13732
130.41917,1.12234
130.17810,1.09178
129.93703,1.05628
129.69596,1.02583
129.45489,0.99890
129.21382,0.96822
128.97275,0.93134
128.73168,0.89261
128.49061,0.85760
128.24954,0.82761
128.00847,0.79984
127.76740,0.77185
127.52632,0.74375
127.28525,0.71641
127.04418,0.68982
126.80311,0.66448
126.56204,0.64231
126.32097,0.62437
126.07990,0.60856
125.83883,0.59212
125.59776,0.57567
125.35669,0.56210
125.11562,0.55203
124.87455,0.54329
124.63348,0.53443
124.39241,0.52584
124.15134,0.51781
123.91027,0.50959
123.66920,0.50080
123.42812,0.49215
123.18705,0.48465
122.94598,0.47861
122.70491,0.47371
122.46384,0.46959
122.22277,0.46610
121.98170,0.46352
121.74063,0.46287
121.49956,0.46476
121.25849,0.46814
121.01742,0.47134
120.77635,0.47463
120.53528,0.48016
120.29421,0.48897
120.05314,0.49955
119.81207,0.51002
119.57100,0.52042
119.32993,0.53230
119.08885,0.54731
118.84778,0.56723
118.60671,0.59339
118.36564,0.62496
118.12457,0.65864
117.88350,0.69134
117.64243,0.72251
117.40136,0.75258
117.16029,0.77971
116.91922,0.79947
116.67815,0.80796
116.43708,0.80458
116.19601,0.79171
115.95494,0.77302
115.71387,0.75170
115.47280,0.73006
115.23173,0.71096
114.99066,0.69760
114.74958,0.69050
114.50851,0.68687
114.26744,0.68451
114.02637,0.68369
113.78530,0.68483
113.54423,0.68684
113.30316,0.68771
113.06209,0.68537
112.82102,0.68017
112.57995,0.67653
112.33888,0.67823
112.09781,0.68345
111.85674,0.68804
111.61567,0.69162
111.37460,0.69654
111.13353,0.70262
110.89246,0.70727
110.65139,0.70986
110.41031,0.71140
110.16924,0.71006
109.92817,0.70101
109.68710,0.68257
109.44603,0.66016
109.20496,0.64209
108.96389,0.63252
108.72282,0.62980
108.48175,0.62957
108.24068,0.62674
107.99961,0.61561
107.75854,0.59259
107.51747,0.55970
107.27640,0.52452
107.03533,0.49603
106.79426,0.47942
106.55319,0.47388
106.31212,0.47387
106.07104,0.47175
105.82997,0.46183
105.58890,0.44416
105.34783,0.42395
105.10676,0.40710
104.86569,0.39664
104.62462,0.39217
104.38355,0.39059
104.14248,0.38700
103.90141,0.37758
103.66034,0.36334
103.41927,0.34944
103.17820,0.34064
102.93713,0.33812
102.69606,0.33818
102.45499,0.33403
102.21392,0.32248
101.97285,0.30813
101.73177,0.29823
101.49070,0.29577
101.24963,0.29830
101.00856,0.30106
100.76749,0.30019
100.52642,0.29444
100.28535,0.28578
100.04428,0.27877
99.80321,0.27749
99.56214,0.28139
99.32107,0.28467
99.08000,0.28230
98.83893,0.27612
98.59786,0.27202
98.35679,0.27262
98.11572,0.27439
97.87465,0.27236
97.63358,0.26782
97.39250,0.26710
97.15143,0.27343
96.91036,0.28265
96.66929,0.28724
96.42822,0.28607
96.18715,0.28625
95.94608,0.29360
95.70501,0.30538
95.46394,0.31284
95.22287,0.31185
94.98180,0.30859
94.74073,0.31090
94.49966,0.31822
94.25859,0.32381
94.01752,0.32562
93.77645,0.32783
93.53538,0.33131
93.29431,0.33182
93.05323,0.32887
92.81216,0.32836
92.57109,0.33278
92.33002,0.33571
92.08895,0.33133
91.84788,0.32611
91.60681,0.32934
91.36574,0.33854
91.12467,0.34598
90.88360,0.35488
90.64253,0.37343
90.40146,0.39905
90.16039,0.42539
89.91932,0.45716
89.67825,0.50065
89.43718,0.55040
89.19611,0.59748
88.95504,0.63972
88.71396,0.67549
88.47289,0.70158
88.23182,0.71634
87.99075,0.71547
87.74968,0.69643
87.50861,0.66596
87.26754,0.63038
87.02647,0.58906
86.78540,0.54333
86.54433,0.50048
86.30326,0.46666
86.06219,0.44171
85.82112,0.42074
85.58005,0.39921
85.33898,0.37640
85.09791,0.35457
84.85684,0.33576
84.61577,0.32001
84.37469,0.30634
84.13362,0.29451
83.89255,0.28460
83.65148,0.27552
83.41041,0.26600
83.16934,0.25688
82.92827,0.25015
82.68720,0.24581
82.44613,0.24155
82.20506,0.23519
81.96399,0.22672
81.72292,0.21819
81.48185,0.21205
81.24078,0.20930
80.99971,0.20880
80.75864,0.20823
80.51757,0.20609
80.27650,0.20275
80.03542,0.19936
79.79435,0.19612
79.55328,0.19277
79.31221,0.19010
79.07114,0.18908
78.83007,0.18946
78.58900,0.19038
78.34793,0.19148
78.10686,0.19201
77.86579,0.19043
77.62472,0.18623
77.38365,0.18083
77.14258,0.17624
76.90151,0.17341
76.66044,0.17206
76.41937,0.17104
76.17830,0.16916
75.93723,0.16601
75.69615,0.16226
75.45508,0.15894
75.21401,0.15650
74.97294,0.15494
74.73187,0.15457
74.49080,0.15631
74.24973,0.16032
74.00866,0.16473
73.76759,0.16720
73.52652,0.16733
73.28545,0.16649
73.04438,0.16645
72.80331,0.16962
72.56224,0.17790
72.32117,0.18905
72.08010,0.19658
71.83903,0.19556
71.59796,0.18735
71.35688,0.17706
71.11581,0.16905
70.87474,0.16584
70.63367,0.16834
70.39260,0.17604
70.15153,0.18772
69.91046,0.20247
69.66939,0.21949
69.42832,0.23674
69.18725,0.25047
68.94618,0.25666
68.70511,0.25313
68.46404,0.23997
68.22297,0.21926
67.98190,0.19496
67.74083,0.17186
67.49976,0.15409
67.25869,0.14385
67.01761,0.14043
66.77654,0.14041
66.53547,0.13994
66.29440,0.13764
66.05333,0.13538
65.81226,0.13589
65.57119,0.14001
65.33012,0.14702
65.08905,0.15643
64.84798,0.16789
64.60691,0.18030
64.36584,0.19244
64.12477,0.20289
63.88370,0.20865
63.64263,0.20673
63.40156,0.19854
63.16049,0.18938
62.91942,0.18322
62.67834,0.17987
62.43727,0.17732
62.19620,0.17464
61.95513,0.17188
61.71406,0.16864
61.47299,0.16468
61.23192,0.16064
60.99085,0.15624
60.74978,0.14981
60.50871,0.14127
60.26764,0.13301
60.02657,0.12643
59.78550,0.12033
59.54443,0.11386
59.30336,0.10913
59.06229,0.10906
58.82122,0.11407
58.58015,0.12229
58.33907,0.13265
58.09800,0.14648
57.85693,0.16520
57.61586,0.18672
57.37479,0.20377
57.13372,0.20632
56.89265,0.19022
56.65158,0.16223
56.41051,0.13205
56.16944,0.10577
55.92837,0.08655
55.68730,0.07726
55.44623,0.08107
55.20516,0.09937
54.96409,0.12951
54.72302,0.16414
54.48195,0.18901
54.24088,0.18572
53.99980,0.15402
53.75873,0.11625
53.51766,0.09246
53.27659,0.09136
53.03552,0.11462
52.79445,0.16115
52.55338,0.21995
52.31231,0.24885
52.07124,0.21321
51.83017,0.15597
51.58910,0.11857
51.34803,0.11294
51.10696,0.13804
50.86589,0.17874
50.62482,0.19594
50.38375,0.16721
50.14268,0.13005
49.90161,0.11941
49.66053,0.14555
49.41946,0.19193
49.17839,0.20043
48.93732,0.15283
48.69625,0.11069
48.45518,0.11046
48.21411,0.14906
47.97304,0.17787
47.73197,0.15040
47.49090,0.11577
47.24983,0.11940
47.00876,0.14974
46.76769,0.14767
46.52662,0.10468
46.28555,0.08378
46.04448,0.10308
45.80341,0.12487
45.56234,0.11880
45.32126,0.11364
45.08019,0.12238
44.83912,0.11501
44.59805,0.09082
44.35698,0.08408
44.11591,0.09873
43.87484,0.11123
43.63377,0.11534
43.39270,0.12164
43.15163,0.12902
42.91056,0.13104
42.66949,0.12893
42.42842,0.12734
42.18735,0.12882
41.94628,0.13126
41.70521,0.12993
41.46414,0.12607
41.22307,0.12663
40.98199,0.13454
40.74092,0.14470
40.49985,0.15035
40.25878,0.15180
40.01771,0.15486
39.77664,0.16122
39.53557,0.16737
39.29450,0.17382
39.05343,0.18675
38.81236,0.20822
38.57129,0.23074
38.33022,0.24131
38.08915,0.23438
37.84808,0.22250
37.60701,0.22237
37.36594,0.22933
37.12487,0.22260
36.88380,0.19861
36.64272,0.17555
36.40165,0.16564
36.16058,0.16572
35.91951,0.16683
35.67844,0.16618
35.43737,0.16965
35.19630,0.18352
34.95523,0.20640
34.71416,0.22707
34.47309,0.23240
34.23202,0.22239
33.99095,0.21246
33.74988,0.21933
33.50881,0.24354
33.26774,0.26398
33.02667,0.26200
32.78560,0.24295
32.54453,0.22347
32.30345,0.20736
32.06238,0.18537
31.82131,0.15780
31.58024,0.13495
31.33917,0.11970
31.09810,0.10517
30.85703,0.08619
30.61596,0.06676
30.37489,0.05400
30.13382,0.04825
29.89275,0.04641
29.65168,0.04761
29.41061,0.04950
29.16954,0.04842
28.92847,0.04101
28.68740,0.02664
28.44633,0.00784
28.20526,-0.00726
27.96418,-0.00981
27.72311,-0.00055
27.48204,0.01448
27.24097,0.02521
26.99990,0.02075
26.75883,0.00040
26.51776,-0.02412
26.27669,-0.03867
26.03562,-0.04039
25.79455,-0.04289
25.55348,-0.05815
25.31241,-0.08104
25.07134,-0.09909
24.83027,-0.10710
24.58920,-0.10852
24.34813,-0.10876
24.10706,-0.11354
23.86599,-0.13202
23.62491,-0.17376
23.38384,-0.24141
23.14277,-0.31463
22.90170,-0.35509
22.66063,-0.34943
22.41956,-0.31913
22.17849,-0.29525
21.93742,-0.28483
21.69635,-0.27295
21.45528,-0.24469
21.21421,-0.20404
20.97314,-0.17680
20.73207,-0.18721
20.49100,-0.22909
20.24993,-0.27532
20.00886,-0.30845
19.76779,-0.32402
19.52672,-0.31867
19.28564,-0.30502
19.04457,-0.30839
18.80350,-0.33848
18.56243,-0.37714
18.32136,-0.39584
18.08029,-0.39164
17.83922,-0.38273
17.59815,-0.39061
17.35708,-0.42174
17.11601,-0.44090
16.87494,-0.43489
16.63387,-0.42161
16.39280,-0.41224
16.15173,-0.40998
15.91066,-0.41098
15.66959,-0.40496
15.42852,-0.38012
15.18745,-0.34468
14.94637,-0.32009
14.70530,-0.31640
14.46423,-0.32926
14.22316,-0.34656
13.98209,-0.35883
13.74102,-0.36656
13.49995,-0.36898
13.25888,-0.35537
13.01781,-0.32627
12.77674,-0.30363
12.53567,-0.29842
12.29460,-0.29330
12.05353,-0.28407
11.81246,-0.29314
11.57139,-0.32270
11.33032,-0.34700
11.08925,-0.34554
10.84818,-0.32330
10.60710,-0.30396
10.36603,-0.30240
10.12496,-0.30618
9.88389,-0.27918
9.64282,-0.28925
9.40175,-0.32098
9.16068,-0.34159
8.91961,-0.33632
8.67854,-0.31613
8.43747,-0.29989
8.19640,-0.29337
7.95533,-0.29666
7.71426,-0.30825
7.47319,-0.31179
7.23212,-0.30857
6.99105,-0.31658
6.74998,-0.33130
6.50891,-0.34247
6.26783,-0.35135
6.02676,-0.36243
5.78569,-0.36972
5.54462,-0.37175
5.30355,-0.37281
5.06248,-0.36642
4.82141,-0.35449
4.58034,-0.36295
4.33927,-0.38483
4.09820,-0.38767
3.85713,-0.37611
3.61606,-0.37038
3.37499,-0.36910
3.13392,-0.36203
2.89285,-0.35363
2.65178,-0.34650
2.41071,-0.33185
2.16964,-0.30748
1.92856,-0.29285
1.68749,-0.31491
1.44642,-0.35866
1.20535,-0.36239
0.96428,-0.35726
0.72321,-0.36078
0.48214,-0.37191
0.24107,-0.34498
-0.00000,-0.00580
