399.69498,1.52736
399.45391,1.53738
399.21284,1.54075
398.97177,1.53526
398.73070,1.52554
398.48963,1.51412
398.24856,1.50043
398.00749,1.48586
397.76642,1.47512
397.52535,1.47307
397.28428,1.48068
397.04321,1.49300
396.80214,1.50229
396.56107,1.50569
396.32000,1.50693
396.07892,1.50821
395.83785,1.50690
395.59678,1.50083
395.35571,1.49212
395.11464,1.48647
394.87357,1.48911
394.63250,1.49851
394.39143,1.50402
394.15036,1.49872
393.90929,1.49095
393.66822,1.49105
393.42715,1.49737
393.18608,1.50155
392.94501,1.50181
392.70394,1.50536
392.46287,1.51433
392.22180,1.51468
391.98073,1.49456
391.73965,1.46535
391.49858,1.44789
391.25751,1.44759
391.01644,1.45118
390.77537,1.44572
390.53430,1.43458
390.29323,1.42789
390.05216,1.42742
389.81109,1.42807
389.57002,1.42839
389.32895,1.43445
389.08788,1.45015
388.84681,1.46860
388.60574,1.48022
388.36467,1.48267
388.12360,1.47405
387.88253,1.44998
387.64146,1.41636
387.40038,1.38996
387.15931,1.38079
386.91824,1.38519
386.67717,1.39259
386.43610,1.39376
386.19503,1.38649
385.95396,1.37657
385.71289,1.37299
385.47182,1.38089
385.23075,1.39465
384.98968,1.39653
384.74861,1.37369
384.50754,1.33842
384.26647,1.31444
384.02540,1.31126
383.78433,1.32033
383.54326,1.32705
383.30219,1.32138
383.06111,1.30227
382.82004,1.27810
382.57897,1.26030
382.33790,1.25427
382.09683,1.25602
381.85576,1.25685
381.61469,1.25178
381.37362,1.24228
381.13255,1.23145
380.89148,1.22207
380.65041,1.21853
380.40934,1.22378
380.16827,1.23734
379.92720,1.25741
379.68613,1.28056
379.44506,1.30074
379.20399,1.31262
378.96292,1.31742
378.72184,1.32176
378.48077,1.32860
378.23970,1.33211
377.99863,1.32409
377.75756,1.30665
377.51649,1.29335
377.27542,1.29383
377.03435,1.30585
376.79328,1.32034
376.55221,1.32928
376.31114,1.33165
376.07007,1.33203
375.82900,1.33314
375.58793,1.33357
375.34686,1.33298
375.10579,1.33418
374.86472,1.34001
374.62365,1.35262
374.38257,1.37175
374.14150,1.38869
373.90043,1.39124
373.65936,1.38177
373.41829,1.37676
373.17722,1.38423
372.93615,1.39449
372.69508,1.39614
372.45401,1.38994
372.21294,1.38177
371.97187,1.37379
371.73080,1.36627
371.48973,1.36156
371.24866,1.36192
371.00759,1.36543
370.76652,1.36606
370.52545,1.35926
370.28437,1.34800
370.04330,1.33984
369.80223,1.33680
369.56116,1.33354
369.32009,1.32707
369.07902,1.32109
368.83795,1.31790
368.59688,1.31422
368.35581,1.30752
368.11474,1.29992
367.87367,1.29435
367.63260,1.29145
367.39153,1.29074
367.15046,1.29164
366.90939,1.29330
366.66832,1.29502
366.42725,1.29677
366.18618,1.29765
365.94510,1.29481
365.70403,1.28675
365.46296,1.27680
365.22189,1.26984
364.98082,1.26679
364.73975,1.26420
364.49868,1.25968
364.25761,1.25599
364.01654,1.25739
363.77547,1.26260
363.53440,1.26565
363.29333,1.26459
363.05226,1.26267
362.81119,1.26067
362.57012,1.25502
362.32905,1.24488
362.08798,1.23607
361.84691,1.23410
361.60583,1.23778
361.36476,1.24138
361.12369,1.23983
360.88262,1.23241
360.64155,1.22344
360.40048,1.21807
360.15941,1.21652
359.91834,1.21521
359.67727,1.21350
359.43620,1.21393
359.19513,1.21664
358.95406,1.21858
358.71299,1.21886
358.47192,1.22109
358.23085,1.22906
357.98978,1.24150
357.74871,1.25022
357.50764,1.24657
357.26656,1.23153
357.02549,1.21527
356.78442,1.20694
356.54335,1.20871
356.30228,1.21684
356.06121,1.22610
355.82014,1.23293
355.57907,1.23447
355.33800,1.22842
355.09693,1.21774
354.85586,1.21125
354.61479,1.21423
354.37372,1.22197
354.13265,1.22523
353.89158,1.22106
353.65051,1.21494
353.40944,1.21224
353.16837,1.21222
352.92729,1.21110
352.68622,1.20839
352.44515,1.20665
352.20408,1.20692
351.96301,1.20876
351.72194,1.21103
351.48087,1.21062
351.23980,1.20595
350.99873,1.20165
350.75766,1.20304
350.51659,1.20790
350.27552,1.20982
350.03445,1.20698
349.79338,1.20309
349.55231,1.20256
349.31124,1.20731
349.07017,1.21569
348.82910,1.22312
348.58802,1.22641
348.34695,1.22658
348.10588,1.22498
347.86481,1.22032
347.62374,1.21275
347.38267,1.20707
347.14160,1.20855
346.90053,1.21782
346.65946,1.23161
346.41839,1.24632
346.17732,1.25811
345.93625,1.26227
345.69518,1.25830
345.45411,1.25347
345.21304,1.25653
344.97197,1.26887
344.73090,1.28376
344.48983,1.29351
344.24875,1.29613
344.00768,1.29416
343.76661,1.28975
343.52554,1.28331
343.28447,1.27566
343.04340,1.27001
342.80233,1.27045
342.56126,1.27892
342.32019,1.29352
342.07912,1.30750
341.83805,1.31153
341.59698,1.30300
341.35591,1.29163
341.11484,1.28869
340.87377,1.29424
340.63270,1.30012
340.39163,1.30166
340.15056,1.30187
339.90948,1.30736
339.66841,1.32258
339.42734,1.34418
339.18627,1.36112
338.94520,1.36446
338.70413,1.35611
338.46306,1.34555
338.22199,1.34104
337.98092,1.34484
337.73985,1.35419
337.49878,1.36423
337.25771,1.36956
337.01664,1.36755
336.77557,1.36258
336.53450,1.35993
336.29343,1.35657
336.05236,1.34756
335.81129,1.33509
335.57021,1.32447
335.32914,1.31861
335.08807,1.31985
334.84700,1.32926
334.60593,1.34225
334.36486,1.35144
334.12379,1.35324
333.88272,1.34845
333.64165,1.33959
333.40058,1.32907
333.15951,1.31915
332.91844,1.31275
332.67737,1.31125
332.43630,1.31042
332.19523,1.30377
331.95416,1.29178
331.71309,1.28174
331.47202,1.27934
331.23094,1.28412
330.98987,1.29012
330.74880,1.28975
330.50773,1.27948
330.26666,1.26305
330.02559,1.24825
329.78452,1.24043
329.54345,1.23992
329.30238,1.24368
329.06131,1.24849
328.82024,1.25319
328.57917,1.25723
328.33810,1.25915
328.09703,1.25928
327.85596,1.26019
327.61489,1.26305
327.37382,1.26686
327.13275,1.26967
326.89167,1.26953
326.65060,1.26736
326.40953,1.26771
326.16846,1.27356
325.92739,1.28044
325.68632,1.27943
325.44525,1.26790
325.20418,1.25360
324.96311,1.24506
324.72204,1.24271
324.48097,1.24139
324.23990,1.23751
323.99883,1.23313
323.75776,1.23353
323.51669,1.24228
323.27562,1.25948
323.03455,1.28104
322.79348,1.29770
322.55240,1.29935
322.31133,1.28507
322.07026,1.26514
321.82919,1.24924
321.58812,1.23839
321.34705,1.23036
321.10598,1.22854
320.86491,1.24026
320.62384,1.26584
320.38277,1.29203
320.14170,1.30141
319.90063,1.29163
319.65956,1.27790
319.41849,1.27495
319.17742,1.28466
318.93635,1.29699
318.69528,1.29977
318.45421,1.29088
318.21313,1.27829
317.97206,1.26923
317.73099,1.26536
317.48992,1.26549
317.24885,1.26899
317.00778,1.27642
316.76671,1.28742
316.52564,1.30062
316.28457,1.31368
316.04350,1.32234
315.80243,1.32235
315.56136,1.31648
315.32029,1.31328
315.07922,1.31270
314.83815,1.30614
314.59708,1.29344
314.35601,1.28756
314.11494,1.29625
313.87386,1.31046
313.63279,1.31508
313.39172,1.30488
313.15065,1.28980
312.90958,1.28367
312.66851,1.29172
312.42744,1.30728
312.18637,1.31870
311.94530,1.32176
311.70423,1.32355
311.46316,1.33090
311.22209,1.34038
310.98102,1.34464
310.73995,1.34458
310.49888,1.34560
310.25781,1.34507
310.01674,1.33930
309.77567,1.33830
309.53459,1.35314
309.29352,1.37293
309.05245,1.37389
308.81138,1.35429
308.57031,1.33765
308.32924,1.33829
308.08817,1.34661
307.84710,1.34970
307.60603,1.35068
307.36496,1.35662
307.12389,1.36270
306.88282,1.36217
306.64175,1.35783
306.40068,1.35442
306.15961,1.35116
305.91854,1.34611
305.67747,1.34162
305.43640,1.34288
305.19532,1.35030
304.95425,1.35444
304.71318,1.34582
304.47211,1.32934
304.23104,1.31816
303.98997,1.31732
303.74890,1.31998
303.50783,1.31737
303.26676,1.30773
303.02569,1.29456
302.78462,1.28246
302.54355,1.27510
302.30248,1.27332
302.06141,1.27487
301.82034,1.27620
301.57927,1.27447
301.33820,1.26903
301.09713,1.26183
300.85605,1.25523
300.61498,1.25001
300.37391,1.24671
300.13284,1.24605
299.89177,1.24671
299.65070,1.24560
299.40963,1.24057
299.16856,1.23038
298.92749,1.21599
298.68642,1.20319
298.44535,1.19895
298.20428,1.20389
297.96321,1.21171
297.72214,1.21628
297.48107,1.21524
297.24000,1.20938
296.99893,1.20158
296.75786,1.19518
296.51678,1.19295
296.27571,1.19600
296.03464,1.20150
295.79357,1.20271
295.55250,1.19476
295.31143,1.18110
295.07036,1.17087
294.82929,1.16878
294.58822,1.17086
294.34715,1.17039
294.10608,1.16537
293.86501,1.15840
293.62394,1.15241
293.38287,1.14952
293.14180,1.15045
292.90073,1.15238
292.65966,1.15004
292.41859,1.14077
292.17751,1.12852
291.93644,1.12121
291.69537,1.12290
291.45430,1.12976
291.21323,1.13463
290.97216,1.13476
290.73109,1.13303
290.49002,1.13192
290.24895,1.13036
290.00788,1.12659
289.76681,1.12134
289.52574,1.11746
289.28467,1.11705
289.04360,1.11949
288.80253,1.12238
288.56146,1.12340
288.32039,1.12116
288.07932,1.11557
287.83824,1.10806
287.59717,1.10170
287.35610,1.09960
287.11503,1.10203
286.87396,1.10600
286.63289,1.10823
286.39182,1.10662
286.15075,1.10009
285.90968,1.09030
285.66861,1.08165
285.42754,1.07674
285.18647,1.07476
284.94540,1.07518
284.70433,1.07921
284.46326,1.08601
284.22219,1.09102
283.98112,1.09026
283.74005,1.08450
283.49897,1.07790
283.25790,1.07387
283.01683,1.07335
282.77576,1.07566
282.53469,1.07882
282.29362,1.08011
282.05255,1.07881
281.81148,1.07757
281.57041,1.07885
281.32934,1.08140
281.08827,1.08210
280.84720,1.08069
280.60613,1.08013
280.36506,1.08253
280.12399,1.08709
279.88292,1.09217
279.64185,1.09688
279.40078,1.09959
279.15970,1.09855
278.91863,1.09503
278.67756,1.09280
278.43649,1.09380
278.19542,1.09633
277.95435,1.09802
277.71328,1.09849
277.47221,1.09814
277.23114,1.09631
276.99007,1.09265
276.74900,1.08877
276.50793,1.08663
276.26686,1.08629
276.02579,1.08683
275.78472,1.08757
275.54365,1.08753
275.30258,1.08653
275.06151,1.08691
274.82043,1.09131
274.57936,1.09790
274.33829,1.10106
274.09722,1.09790
273.85615,1.09163
273.61508,1.08799
273.37401,1.09018
273.13294,1.09731
272.89187,1.10590
272.65080,1.11215
272.40973,1.11416
272.16866,1.11373
271.92759,1.11454
271.68652,1.11716
271.44545,1.11847
271.20438,1.11731
270.96331,1.11723
270.72224,1.12180
270.48116,1.12951
270.24009,1.13534
269.99902,1.13699
269.75795,1.13784
269.51688,1.14239
269.27581,1.15132
269.03474,1.16213
268.79367,1.17203
268.55260,1.17871
268.31153,1.18082
268.07046,1.17939
267.82939,1.17775
267.58832,1.17926
267.34725,1.18461
267.10618,1.19123
266.86511,1.19640
266.62404,1.20059
266.38297,1.20546
266.14189,1.21049
265.90082,1.21505
265.65975,1.22148
265.41868,1.23227
265.17761,1.24586
264.93654,1.25823
264.69547,1.26738
264.45440,1.27430
264.21333,1.28115
263.97226,1.29015
263.73119,1.30180
263.49012,1.31385
263.24905,1.32402
263.00798,1.33314
262.76691,1.34348
262.52584,1.35488
262.28477,1.36535
262.04370,1.37588
261.80262,1.39179
261.56155,1.41586
261.32048,1.44179
261.07941,1.46017
260.83834,1.47240
260.59727,1.49080
260.35620,1.52310
260.11513,1.56410
259.87406,1.60134
259.63299,1.62437
259.39192,1.63222
259.15085,1.63675
258.90978,1.65196
258.66871,1.67942
258.42764,1.70954
258.18657,1.73436
257.94550,1.75463
257.70443,1.76948
257.46335,1.77246
257.22228,1.76915
256.98121,1.77187
256.74014,1.77600
256.49907,1.76951
256.25800,1.75515
256.01693,1.74237
255.77586,1.73435
255.53479,1.72663
255.29372,1.71368
255.05265,1.69385
254.81158,1.66804
254.57051,1.63804
254.32944,1.60695
254.08837,1.58347
253.84730,1.57675
253.60623,1.58266
253.36516,1.58831
253.12408,1.59117
252.88301,1.60017
252.64194,1.61570
252.40087,1.62348
252.15980,1.61318
251.91873,1.59167
251.67766,1.57199
251.43659,1.56088
251.19552,1.55735
250.95445,1.55515
250.71338,1.54664
250.47231,1.53132
250.23124,1.51819
249.99017,1.51537
249.74910,1.52172
249.50803,1.53029
249.26696,1.53536
249.02589,1.53640
248.78481,1.53758
248.54374,1.54150
248.30267,1.54620
248.06160,1.55004
247.82053,1.55425
247.57946,1.55932
247.33839,1.56444
247.09732,1.56963
246.85625,1.57572
246.61518,1.58322
246.37411,1.59040
246.13304,1.59516
245.89197,1.59947
245.65090,1.61137
245.40983,1.63584
245.16876,1.66262
244.92769,1.67516
244.68661,1.67540
244.44554,1.68319
244.20447,1.71022
243.96340,1.75057
243.72233,1.79444
243.48126,1.84143
243.24019,1.89861
242.99912,1.97002
242.75805,2.02832
242.51698,1.99970
242.27591,1.90185
242.03484,1.79204
241.79377,1.69124
241.55270,1.60699
241.31163,1.54232
241.07056,1.49654
240.82949,1.46081
240.58842,1.42009
240.34734,1.36757
240.10627,1.31225
239.86520,1.26628
239.62413,1.23205
239.38306,1.20339
239.14199,1.17510
238.90092,1.14844
238.65985,1.12654
238.41878,1.10798
238.17771,1.08836
237.93664,1.06625
237.69557,1.04489
237.45450,1.02796
237.21343,1.01555
236.97236,1.00438
236.73129,0.99181
236.49022,0.97867
236.24915,0.96687
236.00807,0.95664
235.76700,0.94733
235.52593,0.93872
235.28486,0.93068
235.04379,0.92275
234.80272,0.91464
234.56165,0.90676
234.32058,0.90054
234.07951,0.89771
233.83844,0.89749
233.59737,0.89603
233.35630,0.89020
233.11523,0.88054
232.87416,0.87038
232.63309,0.86288
232.39202,0.85895
232.15095,0.85794
231.90988,0.85916
231.66880,0.86151
231.42773,0.86258
231.18666,0.86035
230.94559,0.85563
230.70452,0.85099
230.46345,0.84753
230.22238,0.84435
229.98131,0.84123
229.74024,0.83906
229.49917,0.83740
229.25810,0.83446
229.01703,0.82975
228.77596,0.82473
228.53489,0.82104
228.29382,0.81957
228.05275,0.82014
227.81168,0.82081
227.57061,0.81925
227.32953,0.81579
227.08846,0.81301
226.84739,0.81239
226.60632,0.81323
226.36525,0.81412
226.12418,0.81364
225.88311,0.81096
225.64204,0.80733
225.40097,0.80552
225.15990,0.80650
224.91883,0.80799
224.67776,0.80804
224.43669,0.80787
224.19562,0.80928
223.95455,0.81190
223.71348,0.81482
223.47241,0.81833
223.23134,0.82231
222.99026,0.82569
222.74919,0.82841
222.50812,0.83172
222.26705,0.83611
222.02598,0.84082
221.78491,0.84538
221.54384,0.85001
221.30277,0.85452
221.06170,0.85825
220.82063,0.86175
220.57956,0.86682
220.33849,0.87399
220.09742,0.88156
219.85635,0.88797
219.61528,0.89387
219.37421,0.90076
219.13314,0.90886
218.89207,0.91804
218.65099,0.92885
218.40992,0.94054
218.16885,0.95051
217.92778,0.95803
217.68671,0.96563
217.44564,0.97521
217.20457,0.98721
216.96350,1.00245
216.72243,1.02039
216.48136,1.03757
216.24029,1.05146
215.99922,1.06267
215.75815,1.07165
215.51708,1.07805
215.27601,1.08332
215.03494,1.08949
214.79387,1.09809
214.55280,1.11161
214.31172,1.13089
214.07065,1.15132
213.82958,1.16709
213.58851,1.17676
213.34744,1.18259
213.10637,1.18820
212.86530,1.19563
212.62423,1.20203
212.38316,1.20261
212.14209,1.19809
211.90102,1.19465
211.65995,1.19675
211.41888,1.20277
211.17781,1.20850
210.93674,1.21265
210.69567,1.21723
210.45460,1.22388
210.21353,1.23169
209.97245,1.23714
209.73138,1.23607
209.49031,1.22738
209.24924,1.21494
209.00817,1.20453
208.76710,1.19913
208.52603,1.19699
208.28496,1.19370
208.04389,1.18757
207.80282,1.18184
207.56175,1.17965
207.32068,1.17852
207.07961,1.17318
206.83854,1.16216
206.59747,1.14709
206.35640,1.12904
206.11533,1.11006
205.87426,1.09466
205.63318,1.08623
205.39211,1.08313
205.15104,1.07953
204.90997,1.07054
204.66890,1.05613
204.42783,1.03974
204.18676,1.02432
203.94569,1.01067
203.70462,0.99878
203.46355,0.98927
203.22248,0.98251
202.98141,0.97658
202.74034,0.96775
202.49927,0.95450
202.25820,0.93951
202.01713,0.92597
201.77606,0.91454
201.53499,0.90358
201.29391,0.89089
201.05284,0.87621
200.81177,0.86160
200.57070,0.84830
200.32963,0.83565
200.08856,0.82374
199.84749,0.81431
199.60642,0.80751
199.36535,0.80050
199.12428,0.79031
198.88321,0.77664
198.64214,0.76145
198.40107,0.74714
198.16000,0.73580
197.91893,0.72910
197.67786,0.72734
197.43679,0.72766
197.19572,0.72500
196.95464,0.71681
196.71357,0.70511
196.47250,0.69320
196.23143,0.68250
195.99036,0.67314
195.74929,0.66529
195.50822,0.65894
195.26715,0.65397
195.02608,0.65057
194.78501,0.64850
194.54394,0.64575
194.30287,0.63984
194.06180,0.63092
193.82073,0.62181
193.57966,0.61481
193.33859,0.61050
193.09752,0.60865
192.85645,0.60843
192.61537,0.60788
192.37430,0.60500
192.13323,0.59965
191.89216,0.59354
191.65109,0.58858
191.41002,0.58570
191.16895,0.58404
190.92788,0.58136
190.68681,0.57660
190.44574,0.57192
190.20467,0.56998
189.96360,0.56986
189.72253,0.56782
189.48146,0.56263
189.24039,0.55749
188.99932,0.55594
188.75825,0.55778
188.51718,0.55952
188.27610,0.55846
188.03503,0.55558
187.79396,0.55346
187.55289,0.55264
187.31182,0.55134
187.07075,0.54847
186.82968,0.54524
186.58861,0.54334
186.34754,0.54280
186.10647,0.54246
185.86540,0.54177
185.62433,0.54115
185.38326,0.54089
185.14219,0.54060
184.90112,0.54027
184.66005,0.54069
184.41898,0.54233
184.17791,0.54463
183.93683,0.54691
183.69576,0.54924
183.45469,0.55200
183.21362,0.55497
182.97255,0.55693
182.73148,0.55699
182.49041,0.55624
182.24934,0.55671
182.00827,0.55865
181.76720,0.56051
181.52613,0.56141
181.28506,0.56199
181.04399,0.56318
180.80292,0.56559
180.56185,0.56901
180.32078,0.57149
180.07971,0.57088
179.83864,0.56861
179.59756,0.56937
179.35649,0.57581
179.11542,0.58580
178.87435,0.59579
178.63328,0.60478
178.39221,0.61323
178.15114,0.62086
177.91007,0.62810
177.66900,0.63694
177.42793,0.64797
177.18686,0.65887
176.94579,0.66819
176.70472,0.67785
176.46365,0.69002
176.22258,0.70407
175.98151,0.71830
175.74044,0.73270
175.49937,0.74870
175.25829,0.76671
175.01722,0.78504
174.77615,0.80213
174.53508,0.81911
174.29401,0.83798
174.05294,0.85806
173.81187,0.87675
173.57080,0.89239
173.32973,0.90422
173.08866,0.91258
172.84759,0.92030
172.60652,0.92953
172.36545,0.93831
172.12438,0.94391
171.88331,0.94688
171.64224,0.94877
171.40117,0.95013
171.16010,0.95132
170.91902,0.95090
170.67795,0.94596
170.43688,0.93661
170.19581,0.92607
169.95474,0.91605
169.71367,0.90636
169.47260,0.89725
169.23153,0.88927
168.99046,0.88301
168.74939,0.87999
168.50832,0.88089
168.26725,0.88319
168.02618,0.88311
167.78511,0.87984
167.54404,0.87648
167.30297,0.87648
167.06190,0.88020
166.82083,0.88504
166.57975,0.88828
166.33868,0.88968
166.09761,0.89120
165.85654,0.89404
165.61547,0.89754
165.37440,0.90121
165.13333,0.90543
164.89226,0.91014
164.65119,0.91565
164.41012,0.92440
164.16905,0.93833
163.92798,0.95496
163.68691,0.96866
163.44584,0.97630
163.20477,0.98032
162.96370,0.98581
162.72263,0.99414
162.48156,1.00099
162.24048,1.00268
161.99941,1.00164
161.75834,1.00201
161.51727,1.00362
161.27620,1.00393
161.03513,1.00275
160.79406,1.00230
160.55299,1.00455
160.31192,1.00930
160.07085,1.01345
159.82978,1.01300
159.58871,1.00658
159.34764,0.99639
159.10657,0.98539
158.86550,0.97477
158.62443,0.96514
158.38336,0.95799
158.14229,0.95413
157.90121,0.95222
157.66014,0.95003
157.41907,0.94644
157.17800,0.94182
156.93693,0.93740
156.69586,0.93376
156.45479,0.92954
156.21372,0.92313
155.97265,0.91568
155.73158,0.90958
155.49051,0.90394
155.24944,0.89542
155.00837,0.88395
154.76730,0.87307
154.52623,0.86379
154.28516,0.85292
154.04409,0.83872
153.80302,0.82406
153.56194,0.81195
153.32087,0.80132
153.07980,0.78903
152.83873,0.77415
152.59766,0.75838
152.35659,0.74349
152.11552,0.72972
151.87445,0.71647
151.63338,0.70353
151.39231,0.69119
151.15124,0.67956
150.91017,0.66777
150.66910,0.65420
150.42803,0.63819
150.18696,0.62144
149.94589,0.60681
149.70482,0.59626
149.46375,0.58988
149.22267,0.58577
148.98160,0.58071
148.74053,0.57260
148.49946,0.56228
148.25839,0.55227
148.01732,0.54463
147.77625,0.54016
147.53518,0.53854
147.29411,0.53873
147.05304,0.53958
146.81197,0.54068
146.57090,0.54223
146.32983,0.54423
146.08876,0.54622
145.84769,0.54805
145.60662,0.55055
145.36555,0.55470
145.12448,0.56023
144.88340,0.56578
144.64233,0.57045
144.40126,0.57439
144.16019,0.57776
143.91912,0.57980
143.67805,0.57969
143.43698,0.57758
143.19591,0.57407
142.95484,0.56908
142.71377,0.56199
142.47270,0.55276
142.23163,0.54254
141.99056,0.53315
141.74949,0.52591
141.50842,0.52059
141.26735,0.51608
141.02628,0.51186
140.78521,0.50817
140.54413,0.50527
140.30306,0.50319
140.06199,0.50191
139.82092,0.50144
139.57985,0.50203
139.33878,0.50410
139.09771,0.50744
138.85664,0.51115
138.61557,0.51536
138.37450,0.52164
138.13343,0.53066
137.89236,0.54116
137.65129,0.55222
137.41022,0.56431
137.16915,0.57760
136.92808,0.59159
136.68701,0.60696
136.44594,0.62492
136.20486,0.64494
135.96379,0.66575
135.72272,0.68806
135.48165,0.71298
135.24058,0.73928
134.99951,0.76532
134.75844,0.79190
134.51737,0.82069
134.27630,0.85168
134.03523,0.88420
133.79416,0.91812
133.55309,0.95236
133.31202,0.98490
133.07095,1.01585
132.82988,1.04725
132.58881,1.07874
132.34774,1.10636
132.10667,1.12540
131.86559,1.13361
131.62452,1.13340
131.38345,1.12950
131.14238,1.12439
130.90131,1.11787
130.66024,1.10933
130.41917,1.09785
130.17810,1.08101
129.93703,1.05830
129.69596,1.03289
129.45489,1.00662
129.21382,0.97800
128.97275,0.94642
128.73168,0.91344
128.49061,0.87979
128.24954,0.84549
128.00847,0.81194
127.76740,0.78095
127.52632,0.75256
127.28525,0.72519
127.04418,0.69748
126.80311,0.66982
126.56204,0.64411
126.32097,0.62169
126.07990,0.60223
125.83883,0.58469
125.59776,0.56873
125.35669,0.55478
125.11562,0.54265
124.87455,0.53078
124.63348,0.51797
124.39241,0.50517
124.15134,0.49410
123.91027,0.48475
123.66920,0.47596
123.42812,0.46760
123.18705,0.46052
122.94598,0.45522
122.70491,0.45181
122.46384,0.45058
122.22277,0.45136
121.98170,0.45255
121.74063,0.45231
121.49956,0.45064
121.25849,0.44961
121.01742,0.45111
120.77635,0.45579
120.53528,0.46381
120.29421,0.47512
120.05314,0.48872
119.81207,0.50330
119.57100,0.51888
119.32993,0.53637
119.08885,0.55591
118.84778,0.57741
118.60671,0.60194
118.36564,0.63044
118.12457,0.66132
117.88350,0.69149
117.64243,0.71965
117.40136,0.74699
117.16029,0.77439
116.91922,0.79948
116.67815,0.81625
116.43708,0.81904
116.19601,0.80863
115.95494,0.79187
115.71387,0.77499
115.47280,0.75974
115.23173,0.74466
114.99066,0.72799
114.74958,0.71055
114.50851,0.69592
114.26744,0.68643
114.02637,0.68040
113.78530,0.67485
113.54423,0.67005
113.30316,0.66854
113.06209,0.67066
112.82102,0.67409
112.57995,0.67773
112.33888,0.68351
112.09781,0.69281
111.85674,0.70388
111.61567,0.71436
111.37460,0.72382
111.13353,0.73172
110.89246,0.73571
110.65139,0.73369
110.41031,0.72609
110.16924,0.71516
109.92817,0.70317
109.68710,0.69168
109.44603,0.68086
109.20496,0.66905
108.96389,0.65379
108.72282,0.63505
108.48175,0.61604
108.24068,0.59905
107.99961,0.58315
107.75854,0.56690
107.51747,0.55064
107.27640,0.53418
107.03533,0.51535
106.79426,0.49355
106.55319,0.47237
106.31212,0.45604
106.07104,0.44483
105.82997,0.43597
105.58890,0.42767
105.34783,0.42063
105.10676,0.41615
104.86569,0.41338
104.62462,0.40876
104.38355,0.39924
104.14248,0.38608
103.90141,0.37295
103.66034,0.36138
103.41927,0.35070
103.17820,0.34111
102.93713,0.33401
102.69606,0.32967
102.45499,0.32669
102.21392,0.32359
101.97285,0.31994
101.73177,0.31604
101.49070,0.31174
101.24963,0.30628
101.00856,0.29932
100.76749,0.29179
100.52642,0.28533
100.28535,0.28128
100.04428,0.28060
99.80321,0.28349
99.56214,0.28782
99.32107,0.28878
99.08000,0.28275
98.83893,0.27197
98.59786,0.26273
98.35679,0.25951
98.11572,0.26230
97.87465,0.26840
97.63358,0.27427
97.39250,0.27640
97.15143,0.27364
96.91036,0.26951
96.66929,0.26978
96.42822,0.27700
96.18715,0.28766
95.94608,0.29512
95.70501,0.29703
95.46394,0.29856
95.22287,0.30573
94.98180,0.31719
94.74073,0.32449
94.49966,0.32258
94.25859,0.31736
94.01752,0.31734
93.77645,0.32308
93.53538,0.32770
93.29431,0.32619
93.05323,0.32202
92.81216,0.32154
92.57109,0.32518
92.33002,0.32742
92.08895,0.32515
91.84788,0.32257
91.60681,0.32455
91.36574,0.33052
91.12467,0.33866
90.88360,0.35103
90.64253,0.36984
90.40146,0.39263
90.16039,0.41794
89.91932,0.45139
89.67825,0.49700
89.43718,0.54686
89.19611,0.59011
88.95504,0.62893
88.71396,0.66817
88.47289,0.69944
88.23182,0.71214
87.99075,0.70739
87.74968,0.68757
87.50861,0.65259
87.26754,0.60973
87.02647,0.56936
86.78540,0.53479
86.54433,0.50342
86.30326,0.47284
86.06219,0.44322
85.82112,0.41653
85.58005,0.39313
85.33898,0.37072
85.09791,0.34851
84.85684,0.32899
84.61577,0.31348
84.37469,0.30075
84.13362,0.29002
83.89255,0.28118
83.65148,0.27304
83.41041,0.26473
83.16934,0.25681
82.92827,0.24921
82.68720,0.24113
82.44613,0.23313
82.20506,0.22677
81.96399,0.22261
81.72292,0.22012
81.48185,0.21844
81.24078,0.21673
80.99971,0.21408
80.75864,0.21015
80.51757,0.20558
80.27650,0.20154
80.03542,0.19863
79.79435,0.19668
79.55328,0.19544
79.31221,0.19488
79.07114,0.19497
78.83007,0.19537
78.58900,0.19521
78.34793,0.19335
78.10686,0.18936
77.86579,0.18429
77.62472,0.18007
77.38365,0.17779
77.14258,0.17653
76.90151,0.17440
76.66044,0.17098
76.41937,0.16776
76.17830,0.16624
75.93723,0.16621
75.69615,0.16626
75.45508,0.16530
75.21401,0.16330
74.97294,0.16072
74.73187,0.15834
74.49080,0.15768
74.24973,0.16012
74.00866,0.16504
73.76759,0.16989
73.52652,0.17255
73.28545,0.17273
73.04438,0.17156
72.80331,0.17018
72.56224,0.16856
72.32117,0.16585
72.08010,0.16275
71.83903,0.16196
71.59796,0.16517
71.35688,0.17096
71.11581,0.17582
70.87474,0.17718
70.63367,0.17611
70.39260,0.17709
70.15153,0.18453
69.91046,0.19966
69.66939,0.21930
69.42832,0.23662
69.18725,0.24502
68.94618,0.24297
68.70511,0.23424
68.46404,0.22358
68.22297,0.21383
67.98190,0.20600
67.74083,0.20013
67.49976,0.19488
67.25869,0.18758
67.01761,0.17659
66.77654,0.16322
66.53547,0.15043
66.29440,0.14029
66.05333,0.13337
65.81226,0.12996
65.57119,0.13061
65.33012,0.13607
65.08905,0.14700
64.84798,0.16309
64.60691,0.18212
64.36584,0.20056
64.12477,0.21531
63.88370,0.22437
63.64263,0.22650
63.40156,0.22164
63.16049,0.21177
62.91942,0.20029
62.67834,0.18972
62.43727,0.18033
62.19620,0.17137
61.95513,0.16334
61.71406,0.15752
61.47299,0.15397
61.23192,0.15161
60.99085,0.15010
60.74978,0.15041
60.50871,0.15345
60.26764,0.15891
60.02657,0.16546
59.78550,0.17117
59.54443,0.17381
59.30336,0.17184
59.06229,0.16609
58.82122,0.15925
58.58015,0.15282
58.33907,0.14619
58.09800,0.13940
57.85693,0.13451
57.61586,0.13246
57.37479,0.13070
57.13372,0.12592
56.89265,0.11836
56.65158,0.11133
56.41051,0.10734
56.16944,0.10702
55.92837,0.11095
55.68730,0.12065
55.44623,0.13662
55.20516,0.15612
54.96409,0.17431
54.72302,0.18777
54.48195,0.19528
54.24088,0.19530
53.99980,0.18684
53.75873,0.17269
53.51766,0.15834
53.27659,0.14849
53.03552,0.14529
52.79445,0.14773
52.55338,0.15296
52.31231,0.15957
52.07124,0.16920
51.83017,0.18424
51.58910,0.20384
51.34803,0.21941
51.10696,0.21474
50.86589,0.18514
50.62482,0.14803
50.38375,0.12076
50.14268,0.11023
49.90161,0.11781
49.66053,0.14454
49.41946,0.19000
49.17839,0.23337
48.93732,0.22376
48.69625,0.16472
48.45518,0.11632
48.21411,0.10890
47.97304,0.14411
47.73197,0.19739
47.49090,0.21100
47.24983,0.17367
47.00876,0.14628
46.76769,0.15569
46.52662,0.17784
46.28555,0.16685
46.04448,0.13374
45.80341,0.12303
45.56234,0.14239
45.32126,0.16269
45.08019,0.16060
44.83912,0.15610
44.59805,0.16337
44.35698,0.16516
44.11591,0.15818
43.87484,0.15835
43.63377,0.16250
43.39270,0.15679
43.15163,0.15083
42.91056,0.16055
42.66949,0.18006
42.42842,0.19206
42.18735,0.18977
41.94628,0.17870
41.70521,0.16792
41.46414,0.16364
41.22307,0.16690
40.98199,0.17762
40.74092,0.19381
40.49985,0.20586
40.25878,0.20641
40.01771,0.20321
39.77664,0.20519
39.53557,0.20902
39.29450,0.21151
39.05343,0.21799
38.81236,0.23127
38.57129,0.24738
38.33022,0.26143
38.08915,0.27055
37.84808,0.27324
37.60701,0.26835
37.36594,0.25656
37.12487,0.24189
36.88380,0.22897
36.64272,0.22162
36.40165,0.22226
36.16058,0.22915
35.91951,0.23676
35.67844,0.24096
35.43737,0.24019
35.19630,0.23445
34.95523,0.22583
34.71416,0.21673
34.47309,0.20935
34.23202,0.20746
33.99095,0.21295
33.74988,0.22228
33.50881,0.23025
33.26774,0.23608
33.02667,0.24057
32.78560,0.23987
32.54453,0.23046
32.30345,0.21596
32.06238,0.20244
31.82131,0.18998
31.58024,0.17662
31.33917,0.16652
31.09810,0.16258
30.85703,0.15770
30.61596,0.14448
30.37489,0.12828
30.13382,0.11809
29.89275,0.11479
29.65168,0.11378
29.41061,0.10786
29.16954,0.09123
28.92847,0.06641
28.68740,0.04203
28.44633,0.02431
28.20526,0.01305
27.96418,0.00428
27.72311,-0.00500
27.48204,-0.01589
27.24097,-0.02799
26.99990,-0.03790
26.75883,-0.04060
26.51776,-0.03604
26.27669,-0.03165
26.03562,-0.03443
25.79455,-0.04219
25.55348,-0.04745
25.31241,-0.05170
25.07134,-0.06750
24.83027,-0.09961
24.58920,-0.13218
24.34813,-0.14745
24.10706,-0.15095
23.86599,-0.15853
23.62491,-0.17243
23.38384,-0.18543
23.14277,-0.19535
22.90170,-0.20153
22.66063,-0.20117
22.41956,-0.19883
22.17849,-0.20264
21.93742,-0.21239
21.69635,-0.21962
21.45528,-0.21845
21.21421,-0.21406
20.97314,-0.21886
20.73207,-0.23883
20.49100,-0.26391
20.24993,-0.27851
20.00886,-0.27867
19.76779,-0.27088
19.52672,-0.26054
19.28564,-0.25302
19.04457,-0.26034
18.80350,-0.28897
18.56243,-0.32263
18.32136,-0.33365
18.08029,-0.31329
17.83922,-0.28026
17.59815,-0.26067
17.35708,-0.26636
17.11601,-0.28696
16.87494,-0.30347
16.63387,-0.31247
16.39280,-0.32585
16.15173,-0.34763
15.91066,-0.36801
15.66959,-0.38011
15.42852,-0.38999
15.18745,-0.41047
14.94637,-0.44247
14.70530,-0.46377
14.46423,-0.45339
14.22316,-0.42163
13.98209,-0.39491
13.74102,-0.38624
13.49995,-0.38657
13.25888,-0.37710
13.01781,-0.35861
12.77674,-0.35557
12.53567,-0.38450
12.29460,-0.43281
12.05353,-0.46458
11.81246,-0.45822
11.57139,-0.42650
11.33032,-0.39779
11.08925,-0.39064
10.84818,-0.40700
10.60710,-0.43773
10.36603,-0.46305
10.12496,-0.46575
9.88389,-0.45474
9.64282,-0.44834
9.40175,-0.45308
9.16068,-0.46540
8.91961,-0.47236
8.67854,-0.46577
8.43747,-0.46129
8.19640,-0.47849
7.95533,-0.50653
7.71426,-0.51813
7.47319,-0.50559
7.23212,-0.48386
6.99105,-0.48000
6.74998,-0.48570
6.50891,-0.48152
6.26783,-0.46946
6.02676,-0.44906
5.78569,-0.44284
5.54462,-0.45977
5.30355,-0.44166
5.06248,-0.43350
4.82141,-0.45354
4.58034,-0.48030
4.33927,-0.47629
4.09820,-0.46642
3.85713,-0.47184
3.61606,-0.46064
3.37499,-0.42992
3.13392,-0.39621
2.89285,-0.37557
2.65178,-0.36965
2.41071,-0.37328
2.16964,-0.37864
1.92856,-0.37037
1.68749,-0.35109
1.44642,-0.35065
1.20535,-0.37512
0.96428,-0.39792
0.72321,-0.42117
0.48214,-0.48351
0.24107,-0.51378
-0.00000,-0.35183
