399.69498,1.83219
399.45391,1.89076
399.21284,1.90154
398.97177,1.85590
398.73070,1.81359
398.48963,1.76722
398.24856,1.70813
398.00749,1.65809
397.76642,1.64089
397.52535,1.67173
397.28428,1.74426
397.04321,1.79133
396.80214,1.78676
396.56107,1.79191
396.32000,1.80569
396.07892,1.80680
395.83785,1.82069
395.59678,1.83629
395.35571,1.80506
395.11464,1.70446
394.87357,1.63949
394.63250,1.63607
394.39143,1.67358
394.15036,1.72306
393.90929,1.76538
393.66822,1.79231
393.42715,1.78020
393.18608,1.73277
392.94501,1.71262
392.70394,1.72716
392.46287,1.74061
392.22180,1.72626
391.98073,1.73253
391.73965,1.72030
391.49858,1.66321
391.25751,1.61085
391.01644,1.58776
390.77537,1.58944
390.53430,1.61391
390.29323,1.66037
390.05216,1.72061
389.81109,1.78525
389.57002,1.82819
389.32895,1.82516
389.08788,1.78873
388.84681,1.74668
388.60574,1.72316
388.36467,1.71480
388.12360,1.69930
387.88253,1.66732
387.64146,1.63653
387.40038,1.62690
387.15931,1.63347
386.91824,1.63174
386.67717,1.61103
386.43610,1.57616
386.19503,1.55146
385.95396,1.55561
385.71289,1.57814
385.47182,1.60850
385.23075,1.64140
384.98968,1.65160
384.74861,1.63793
384.50754,1.63463
384.26647,1.64797
384.02540,1.64114
383.78433,1.62066
383.54326,1.58016
383.30219,1.53420
383.06111,1.55907
382.82004,1.63721
382.57897,1.67985
382.33790,1.64016
382.09683,1.53304
381.85576,1.46388
381.61469,1.46862
381.37362,1.51475
381.13255,1.53459
380.89148,1.48881
380.65041,1.41544
380.40934,1.37696
380.16827,1.40798
379.92720,1.49694
379.68613,1.56515
379.44506,1.52684
379.20399,1.45545
378.96292,1.40222
378.72184,1.37229
378.48077,1.36858
378.23970,1.39680
377.99863,1.44589
377.75756,1.48471
377.51649,1.50345
377.27542,1.51503
377.03435,1.52987
376.79328,1.53986
376.55221,1.56824
376.31114,1.60070
376.07007,1.61812
375.82900,1.62059
375.58793,1.61043
375.34686,1.58608
375.10579,1.55641
374.86472,1.53195
374.62365,1.53191
374.38257,1.56073
374.14150,1.60072
373.90043,1.63280
373.65936,1.66925
373.41829,1.72720
373.17722,1.78027
372.93615,1.76926
372.69508,1.74282
372.45401,1.71922
372.21294,1.68275
371.97187,1.64309
371.73080,1.60724
371.48973,1.59838
371.24866,1.62969
371.00759,1.67949
370.76652,1.71490
370.52545,1.72148
370.28437,1.69050
370.04330,1.62987
369.80223,1.56711
369.56116,1.52271
369.32009,1.50535
369.07902,1.51681
368.83795,1.54830
368.59688,1.58487
368.35581,1.61461
368.11474,1.63443
367.87367,1.64537
367.63260,1.64666
367.39153,1.63941
367.15046,1.62254
366.90939,1.61215
366.66832,1.62004
366.42725,1.62384
366.18618,1.62229
365.94510,1.62663
365.70403,1.64087
365.46296,1.64935
365.22189,1.62314
364.98082,1.57488
364.73975,1.53447
364.49868,1.50692
364.25761,1.49517
364.01654,1.50394
363.77547,1.52823
363.53440,1.55097
363.29333,1.55961
363.05226,1.56014
362.81119,1.55720
362.57012,1.53761
362.32905,1.49879
362.08798,1.46744
361.84691,1.46170
361.60583,1.47023
361.36476,1.47733
361.12369,1.48430
360.88262,1.50489
360.64155,1.54500
360.40048,1.58230
360.15941,1.58220
359.91834,1.54109
359.67727,1.49526
359.43620,1.47852
359.19513,1.49162
358.95406,1.51283
358.71299,1.52939
358.47192,1.54830
358.23085,1.56969
357.98978,1.57301
357.74871,1.54134
357.50764,1.49140
357.26656,1.45083
357.02549,1.42825
356.78442,1.41579
356.54335,1.41047
356.30228,1.41748
356.06121,1.44141
355.82014,1.46987
355.57907,1.48321
355.33800,1.49523
355.09693,1.51434
354.85586,1.51204
354.61479,1.48248
354.37372,1.45792
354.13265,1.45395
353.89158,1.45717
353.65051,1.45599
353.40944,1.45546
353.16837,1.46099
352.92729,1.46838
352.68622,1.47243
352.44515,1.46984
352.20408,1.45457
351.96301,1.43432
351.72194,1.43551
351.48087,1.46977
351.23980,1.51314
350.99873,1.53350
350.75766,1.53479
350.51659,1.54193
350.27552,1.55134
350.03445,1.54214
349.79338,1.53212
349.55231,1.51708
349.31124,1.50222
349.07017,1.50388
348.82910,1.50825
348.58802,1.49234
348.34695,1.47265
348.10588,1.47244
347.86481,1.48659
347.62374,1.50600
347.38267,1.52190
347.14160,1.50911
346.90053,1.45618
346.65946,1.41106
346.41839,1.40385
346.17732,1.42423
345.93625,1.44272
345.69518,1.44198
345.45411,1.43985
345.21304,1.46063
344.97197,1.49470
344.73090,1.50696
344.48983,1.49896
344.24875,1.50671
344.00768,1.54163
343.76661,1.57577
343.52554,1.59521
343.28447,1.62495
343.04340,1.59854
342.80233,1.57142
342.56126,1.56292
342.32019,1.56840
342.07912,1.57634
341.83805,1.57025
341.59698,1.56333
341.35591,1.57672
341.11484,1.61400
340.87377,1.64760
340.63270,1.63674
340.39163,1.59921
340.15056,1.59851
339.90948,1.63871
339.66841,1.64034
339.42734,1.60650
339.18627,1.56979
338.94520,1.56022
338.70413,1.57443
338.46306,1.58903
338.22199,1.62372
337.98092,1.68929
337.73985,1.70477
337.49878,1.71541
337.25771,1.73481
337.01664,1.74635
336.77557,1.73527
336.53450,1.68142
336.29343,1.61033
336.05236,1.57873
335.81129,1.59773
335.57021,1.63835
335.32914,1.64203
335.08807,1.62401
334.84700,1.62167
334.60593,1.63200
334.36486,1.64407
334.12379,1.63138
333.88272,1.59430
333.64165,1.57773
333.40058,1.60802
333.15951,1.63953
332.91844,1.60549
332.67737,1.52992
332.43630,1.47619
332.19523,1.46407
331.95416,1.48079
331.71309,1.50233
331.47202,1.52020
331.23094,1.54565
330.98987,1.57601
330.74880,1.59006
330.50773,1.57692
330.26666,1.55604
330.02559,1.53602
329.78452,1.50575
329.54345,1.47324
329.30238,1.45174
329.06131,1.45204
328.82024,1.48007
328.57917,1.51066
328.33810,1.50738
328.09703,1.47739
327.85596,1.46762
327.61489,1.50432
327.37382,1.55438
327.13275,1.58690
326.89167,1.59935
326.65060,1.56498
326.40953,1.53026
326.16846,1.49283
325.92739,1.49638
325.68632,1.57389
325.44525,1.64883
325.20418,1.64552
324.96311,1.61046
324.72204,1.56119
324.48097,1.51106
324.23990,1.49843
323.99883,1.52274
323.75776,1.52571
323.51669,1.47804
323.27562,1.44144
323.03455,1.44956
322.79348,1.47148
322.55240,1.48028
322.31133,1.49151
322.07026,1.50829
321.82919,1.51327
321.58812,1.49448
321.34705,1.47028
321.10598,1.45978
320.86491,1.46244
320.62384,1.47887
320.38277,1.50545
320.14170,1.53104
319.90063,1.54550
319.65956,1.53325
319.41849,1.50368
319.17742,1.48841
318.93635,1.49232
318.69528,1.49816
318.45421,1.50312
318.21313,1.51686
317.97206,1.54220
317.73099,1.58063
317.48992,1.60474
317.24885,1.56667
317.00778,1.54194
316.76671,1.55176
316.52564,1.57553
316.28457,1.61232
316.04350,1.61582
315.80243,1.57380
315.56136,1.54046
315.32029,1.52416
315.07922,1.52389
314.83815,1.54327
314.59708,1.54012
314.35601,1.50158
314.11494,1.46413
313.87386,1.44650
313.63279,1.44999
313.39172,1.46890
313.15065,1.49900
312.90958,1.54434
312.66851,1.53999
312.42744,1.54267
312.18637,1.57618
311.94530,1.58037
311.70423,1.58437
311.46316,1.60531
311.22209,1.59990
310.98102,1.58245
310.73995,1.54805
310.49888,1.51123
310.25781,1.49557
310.01674,1.50221
309.77567,1.53129
309.53459,1.56425
309.29352,1.57328
309.05245,1.56438
308.81138,1.55461
308.57031,1.55693
308.32924,1.57665
308.08817,1.57714
307.84710,1.55952
307.60603,1.57108
307.36496,1.59232
307.12389,1.58865
306.88282,1.56823
306.64175,1.56135
306.40068,1.60353
306.15961,1.70034
305.91854,1.72199
305.67747,1.62117
305.43640,1.55158
305.19532,1.51737
304.95425,1.49418
304.71318,1.47188
304.47211,1.45017
304.23104,1.43335
303.98997,1.43495
303.74890,1.47128
303.50783,1.53925
303.26676,1.57615
303.02569,1.50216
302.78462,1.46724
302.54355,1.46534
302.30248,1.47073
302.06141,1.47785
301.82034,1.48762
301.57927,1.50689
301.33820,1.53736
301.09713,1.56315
300.85605,1.55811
300.61498,1.51066
300.37391,1.46611
300.13284,1.44943
299.89177,1.45208
299.65070,1.46087
299.40963,1.48099
299.16856,1.51152
298.92749,1.50249
298.68642,1.45625
298.44535,1.42758
298.20428,1.42165
297.96321,1.42520
297.72214,1.43090
297.48107,1.43935
297.24000,1.44721
296.99893,1.44391
296.75786,1.43127
296.51678,1.42139
296.27571,1.42307
296.03464,1.43812
295.79357,1.46384
295.55250,1.49439
295.31143,1.50917
295.07036,1.48305
294.82929,1.43442
294.58822,1.39680
294.34715,1.38301
294.10608,1.38703
293.86501,1.39537
293.62394,1.40162
293.38287,1.39894
293.14180,1.38109
292.90073,1.35779
292.65966,1.34408
292.41859,1.35150
292.17751,1.37417
291.93644,1.38529
291.69537,1.37092
291.45430,1.35253
291.21323,1.35228
290.97216,1.37220
290.73109,1.39553
290.49002,1.40042
290.24895,1.37846
290.00788,1.34378
289.76681,1.31844
289.52574,1.31486
289.28467,1.33079
289.04360,1.35423
288.80253,1.37307
288.56146,1.37202
288.32039,1.34680
288.07932,1.32325
287.83824,1.32830
287.59717,1.36134
287.35610,1.39586
287.11503,1.40368
286.87396,1.38485
286.63289,1.36335
286.39182,1.35233
286.15075,1.35076
285.90968,1.35603
285.66861,1.36237
285.42754,1.35971
285.18647,1.34469
284.94540,1.32706
284.70433,1.32011
284.46326,1.32741
284.22219,1.33941
283.98112,1.34205
283.74005,1.33364
283.49897,1.33035
283.25790,1.34509
283.01683,1.36587
282.77576,1.36912
282.53469,1.35315
282.29362,1.33709
282.05255,1.33261
281.81148,1.33361
281.57041,1.32699
281.32934,1.30984
281.08827,1.29221
280.84720,1.28399
280.60613,1.28620
280.36506,1.28999
280.12399,1.28667
279.88292,1.27919
279.64185,1.27964
279.40078,1.29544
279.15970,1.31724
278.91863,1.32505
278.67756,1.31655
278.43649,1.31021
278.19542,1.31651
277.95435,1.33191
277.71328,1.34325
277.47221,1.34322
277.23114,1.34202
276.99007,1.34565
276.74900,1.35128
276.50793,1.35431
276.26686,1.35128
276.02579,1.34445
275.78472,1.33452
275.54365,1.31864
275.30258,1.29621
275.06151,1.27319
274.82043,1.25923
274.57936,1.26019
274.33829,1.27352
274.09722,1.28911
273.85615,1.29957
273.61508,1.30715
273.37401,1.31273
273.13294,1.30849
272.89187,1.29353
272.65080,1.28121
272.40973,1.28283
272.16866,1.29643
271.92759,1.31289
271.68652,1.32744
271.44545,1.34055
271.20438,1.35097
270.96331,1.35669
270.72224,1.36004
270.48116,1.36135
270.24009,1.35744
269.99902,1.35155
269.75795,1.35285
269.51688,1.36518
269.27581,1.37999
269.03474,1.38352
268.79367,1.37460
268.55260,1.36372
268.31153,1.35724
268.07046,1.35584
267.82939,1.36233
267.58832,1.37706
267.34725,1.38881
267.10618,1.38846
266.86511,1.38874
266.62404,1.41066
266.38297,1.45395
266.14189,1.49336
265.90082,1.50932
265.65975,1.51401
265.41868,1.51538
265.17761,1.49785
264.93654,1.45804
264.69547,1.41856
264.45440,1.39972
264.21333,1.40135
263.97226,1.41061
263.73119,1.41690
263.49012,1.42126
263.24905,1.43270
263.00798,1.45401
262.76691,1.47662
262.52584,1.49627
262.28477,1.52492
262.04370,1.57331
261.80262,1.63392
261.56155,1.69238
261.32048,1.74115
261.07941,1.77093
260.83834,1.77175
260.59727,1.75459
260.35620,1.74709
260.11513,1.76546
259.87406,1.79802
259.63299,1.82530
259.39192,1.85582
259.15085,1.90740
258.90978,2.00506
258.66871,2.17261
258.42764,2.38495
258.18657,2.50316
257.94550,2.44475
257.70443,2.40790
257.46335,2.39869
257.22228,2.35056
256.98121,2.21686
256.74014,2.03871
256.49907,1.93553
256.25800,1.92968
256.01693,1.94740
255.77586,1.91073
255.53479,1.84097
255.29372,1.80549
255.05265,1.82577
254.81158,1.86907
254.57051,1.88112
254.32944,1.88263
254.08837,1.87603
253.84730,1.82933
253.60623,1.75654
253.36516,1.68765
253.12408,1.64856
252.88301,1.67395
252.64194,1.76730
252.40087,1.85170
252.15980,1.85954
251.91873,1.83661
251.67766,1.79979
251.43659,1.76927
251.19552,1.74186
250.95445,1.71296
250.71338,1.68970
250.47231,1.67570
250.23124,1.66595
249.99017,1.66341
249.74910,1.67780
249.50803,1.70609
249.26696,1.73230
249.02589,1.74468
248.78481,1.74703
248.54374,1.74532
248.30267,1.73214
248.06160,1.70502
247.82053,1.68171
247.57946,1.68546
247.33839,1.72299
247.09732,1.77636
246.85625,1.81667
246.61518,1.84172
246.37411,1.86680
246.13304,1.89321
245.89197,1.94857
245.65090,1.97071
245.40983,1.88679
245.16876,1.81390
244.92769,1.80112
244.68661,1.84268
244.44554,1.88792
244.20447,1.90390
243.96340,1.92322
243.72233,1.95618
243.48126,1.98936
243.24019,2.01522
242.99912,2.04530
242.75805,2.09884
242.51698,2.09319
242.27591,1.92812
242.03484,1.82707
241.79377,1.78932
241.55270,1.76152
241.31163,1.71076
241.07056,1.64255
240.82949,1.58329
240.58842,1.54053
240.34734,1.49769
240.10627,1.43774
239.86520,1.36679
239.62413,1.30843
239.38306,1.27719
239.14199,1.26839
238.90092,1.26573
238.65985,1.25531
238.41878,1.23508
238.17771,1.21008
237.93664,1.18367
237.69557,1.15835
237.45450,1.13844
237.21343,1.12661
236.97236,1.11934
236.73129,1.10912
236.49022,1.09267
236.24915,1.07505
236.00807,1.06412
235.76700,1.06173
235.52593,1.06095
235.28486,1.05564
235.04379,1.05002
234.80272,1.05161
234.56165,1.05917
234.32058,1.06321
234.07951,1.05696
233.83844,1.04577
233.59737,1.04252
233.35630,1.05263
233.11523,1.06395
232.87416,1.05838
232.63309,1.03728
232.39202,1.01783
232.15095,1.00677
231.90988,0.99358
231.66880,0.97000
231.42773,0.94674
231.18666,0.93853
230.94559,0.94624
230.70452,0.95660
230.46345,0.95493
230.22238,0.94303
229.98131,0.93659
229.74024,0.94625
229.49917,0.96779
229.25810,0.98485
229.01703,0.98479
228.77596,0.97564
228.53489,0.97126
228.29382,0.97129
228.05275,0.96597
227.81168,0.95143
227.57061,0.93790
227.32953,0.93830
227.08846,0.95095
226.84739,0.96149
226.60632,0.96044
226.36525,0.95378
226.12418,0.95128
225.88311,0.95148
225.64204,0.94696
225.40097,0.93940
225.15990,0.93651
224.91883,0.93687
224.67776,0.92917
224.43669,0.91093
224.19562,0.89777
223.95455,0.90245
223.71348,0.91840
223.47241,0.92866
223.23134,0.92955
222.99026,0.93317
222.74919,0.94248
222.50812,0.94438
222.26705,0.93794
222.02598,0.93986
221.78491,0.95258
221.54384,0.96035
221.30277,0.95980
221.06170,0.96841
220.82063,0.99120
220.57956,1.01381
220.33849,1.02592
220.09742,1.03334
219.85635,1.04043
219.61528,1.04142
219.37421,1.03693
219.13314,1.03436
218.89207,1.03283
218.65099,1.02992
218.40992,1.03247
218.16885,1.04276
217.92778,1.05071
217.68671,1.05516
217.44564,1.06693
217.20457,1.08657
216.96350,1.10264
216.72243,1.11236
216.48136,1.12829
216.24029,1.15880
215.99922,1.19221
215.75815,1.20406
215.51708,1.19167
215.27601,1.17997
215.03494,1.18411
214.79387,1.19768
214.55280,1.21168
214.31172,1.22359
214.07065,1.22798
213.82958,1.22237
213.58851,1.21940
213.34744,1.23577
213.10637,1.27605
212.86530,1.33077
212.62423,1.38055
212.38316,1.40390
212.14209,1.39607
211.90102,1.37044
211.65995,1.33729
211.41888,1.30850
211.17781,1.29401
210.93674,1.28831
210.69567,1.28028
210.45460,1.27245
210.21353,1.27871
209.97245,1.30341
209.73138,1.32631
209.49031,1.32494
209.24924,1.31046
209.00817,1.30448
208.76710,1.30753
208.52603,1.31036
208.28496,1.31038
208.04389,1.30967
207.80282,1.30516
207.56175,1.28808
207.32068,1.26123
207.07961,1.24051
206.83854,1.23585
206.59747,1.24066
206.35640,1.24549
206.11533,1.25120
205.87426,1.25559
205.63318,1.24436
205.39211,1.20669
205.15104,1.15139
204.90997,1.10118
204.66890,1.07296
204.42783,1.06751
204.18676,1.07643
203.94569,1.09464
203.70462,1.12168
203.46355,1.14975
203.22248,1.15804
202.98141,1.13179
202.74034,1.08652
202.49927,1.04595
202.25820,1.01731
202.01713,0.99788
201.77606,0.98765
201.53499,0.99127
201.29391,1.01138
201.05284,1.03480
200.81177,1.02868
200.57070,0.98975
200.32963,0.94821
200.08856,0.91726
199.84749,0.89750
199.60642,0.88645
199.36535,0.88129
199.12428,0.88000
198.88321,0.87758
198.64214,0.86670
198.40107,0.84766
198.16000,0.83041
197.91893,0.82475
197.67786,0.83423
197.43679,0.85463
197.19572,0.87179
196.95464,0.86725
196.71357,0.83755
196.47250,0.79933
196.23143,0.77048
195.99036,0.75847
195.74929,0.76156
195.50822,0.77238
195.26715,0.77784
195.02608,0.76607
194.78501,0.74319
194.54394,0.72579
194.30287,0.72339
194.06180,0.73498
193.82073,0.74844
193.57966,0.74713
193.33859,0.73077
193.09752,0.71539
192.85645,0.71158
192.61537,0.71827
192.37430,0.72706
192.13323,0.72772
191.89216,0.71524
191.65109,0.69496
191.41002,0.67879
191.16895,0.67626
190.92788,0.68661
190.68681,0.69649
190.44574,0.69298
190.20467,0.67948
189.96360,0.66789
189.72253,0.66381
189.48146,0.66519
189.24039,0.66632
188.99932,0.66208
188.75825,0.65472
188.51718,0.65203
188.27610,0.65751
188.03503,0.66546
187.79396,0.66523
187.55289,0.65410
187.31182,0.64148
187.07075,0.63719
186.82968,0.64045
186.58861,0.64077
186.34754,0.63372
186.10647,0.62753
185.86540,0.62954
185.62433,0.63731
185.38326,0.64128
185.14219,0.63692
184.90112,0.63110
184.66005,0.63257
184.41898,0.64210
184.17791,0.65146
183.93683,0.65239
183.69576,0.64781
183.45469,0.64785
183.21362,0.65729
182.97255,0.66846
182.73148,0.66707
182.49041,0.65301
182.24934,0.64328
182.00827,0.65045
181.76720,0.66895
181.52613,0.68048
181.28506,0.67815
181.04399,0.67391
180.80292,0.67674
180.56185,0.68135
180.32078,0.67900
180.07971,0.67196
179.83864,0.67049
179.59756,0.67728
179.35649,0.68431
179.11542,0.68954
178.87435,0.70374
178.63328,0.72938
178.39221,0.74750
178.15114,0.74639
177.91007,0.74547
177.66900,0.76026
177.42793,0.77685
177.18686,0.77579
176.94579,0.76808
176.70472,0.77079
176.46365,0.77996
176.22258,0.78719
175.98151,0.79677
175.74044,0.81205
175.49937,0.82823
175.25829,0.84229
175.01722,0.85572
174.77615,0.86643
174.53508,0.87449
174.29401,0.88893
174.05294,0.91254
173.81187,0.93354
173.57080,0.94851
173.32973,0.97055
173.08866,1.00227
172.84759,1.02712
172.60652,1.03359
172.36545,1.03143
172.12438,1.03428
171.88331,1.04406
171.64224,1.05403
171.40117,1.06157
171.16010,1.07095
170.91902,1.07987
170.67795,1.07491
170.43688,1.05318
170.19581,1.03096
169.95474,1.01794
169.71367,1.00986
169.47260,1.00058
169.23153,0.99029
168.99046,0.98276
168.74939,0.97795
168.50832,0.97136
168.26725,0.96145
168.02618,0.95206
167.78511,0.94602
167.54404,0.94248
167.30297,0.94045
167.06190,0.93994
166.82083,0.94099
166.57975,0.94502
166.33868,0.95446
166.09761,0.96854
165.85654,0.98193
165.61547,0.99057
165.37440,0.99865
165.13333,1.01234
164.89226,1.02583
164.65119,1.02783
164.41012,1.02147
164.16905,1.01884
163.92798,1.02374
163.68691,1.02919
163.44584,1.02714
163.20477,1.01885
162.96370,1.01461
162.72263,1.02268
162.48156,1.04060
162.24048,1.05955
161.99941,1.07595
161.75834,1.09275
161.51727,1.11323
161.27620,1.14000
161.03513,1.16886
160.79406,1.18047
160.55299,1.15269
160.31192,1.09674
160.07085,1.04235
159.82978,1.00665
159.58871,0.99352
159.34764,0.99528
159.10657,0.99728
158.86550,0.99126
158.62443,0.98180
158.38336,0.97758
158.14229,0.98291
157.90121,0.99750
157.66014,1.01542
157.41907,1.02573
157.17800,1.02321
156.93693,1.01421
156.69586,1.00379
156.45479,0.98777
156.21372,0.96317
155.97265,0.93633
155.73158,0.91710
155.49051,0.91080
155.24944,0.91711
155.00837,0.93244
154.76730,0.95051
154.52623,0.96056
154.28516,0.95212
154.04409,0.92829
153.80302,0.90299
153.56194,0.88452
153.32087,0.87034
153.07980,0.85494
152.83873,0.83881
152.59766,0.82922
152.35659,0.83280
152.11552,0.84564
151.87445,0.85057
151.63338,0.83284
151.39231,0.79812
151.15124,0.76048
150.91017,0.72805
150.66910,0.70443
150.42803,0.69262
150.18696,0.69349
149.94589,0.70207
149.70482,0.70703
149.46375,0.69779
149.22267,0.67515
148.98160,0.64895
148.74053,0.62789
148.49946,0.61673
148.25839,0.61669
148.01732,0.62382
147.77625,0.62839
147.53518,0.62205
147.29411,0.60825
147.05304,0.59863
146.81197,0.60050
146.57090,0.61290
146.32983,0.62943
146.08876,0.64076
145.84769,0.64027
145.60662,0.63162
145.36555,0.62473
145.12448,0.62722
144.88340,0.63978
144.64233,0.65484
144.40126,0.66288
144.16019,0.66327
143.91912,0.66260
143.67805,0.66383
143.43698,0.66723
143.19591,0.67386
142.95484,0.67911
142.71377,0.67408
142.47270,0.65800
142.23163,0.63953
141.99056,0.62694
141.74949,0.62000
141.50842,0.61225
141.26735,0.60112
141.02628,0.59002
140.78521,0.58154
140.54413,0.57453
140.30306,0.56699
140.06199,0.56095
139.82092,0.56250
139.57985,0.57412
139.33878,0.58922
139.09771,0.59758
138.85664,0.59662
138.61557,0.59322
138.37450,0.59461
138.13343,0.60218
137.89236,0.61188
137.65129,0.62015
137.41022,0.63042
137.16915,0.64835
136.92808,0.67154
136.68701,0.68927
136.44594,0.69560
136.20486,0.70042
135.96379,0.71947
135.72272,0.75495
135.48165,0.79119
135.24058,0.81633
134.99951,0.83756
134.75844,0.86304
134.51737,0.88795
134.27630,0.90620
134.03523,0.92922
133.79416,0.96950
133.55309,1.01508
133.31202,1.05103
133.07095,1.08047
132.82988,1.10422
132.58881,1.11903
132.34774,1.10887
132.10667,1.08139
131.86559,1.06609
131.62452,1.05949
131.38345,1.04474
131.14238,1.03232
130.90131,1.03283
130.66024,1.04234
130.41917,1.05775
130.17810,1.07320
129.93703,1.07569
129.69596,1.05923
129.45489,1.03028
129.21382,0.99830
128.97275,0.97026
128.73168,0.94903
128.49061,0.93058
128.24954,0.90657
128.00847,0.87293
127.76740,0.83378
127.52632,0.79794
127.28525,0.77199
127.04418,0.75389
126.80311,0.73577
126.56204,0.71489
126.32097,0.69418
126.07990,0.67497
125.83883,0.65698
125.59776,0.64075
125.35669,0.62684
125.11562,0.61450
124.87455,0.60194
124.63348,0.58803
124.39241,0.57439
124.15134,0.56353
123.91027,0.55515
123.66920,0.54738
123.42812,0.54094
123.18705,0.53774
122.94598,0.53582
122.70491,0.53084
122.46384,0.52313
122.22277,0.51758
121.98170,0.51663
121.74063,0.51818
121.49956,0.52074
121.25849,0.52562
121.01742,0.53300
120.77635,0.54094
120.53528,0.54954
120.29421,0.56132
120.05314,0.57675
119.81207,0.59311
119.57100,0.60850
119.32993,0.62463
119.08885,0.64394
118.84778,0.66574
118.60671,0.68804
118.36564,0.71125
118.12457,0.73558
117.88350,0.75763
117.64243,0.77385
117.40136,0.78300
117.16029,0.78523
116.91922,0.78379
116.67815,0.78399
116.43708,0.78737
116.19601,0.78945
115.95494,0.78422
115.71387,0.77126
115.47280,0.75847
115.23173,0.75498
114.99066,0.76236
114.74958,0.77478
114.50851,0.78432
114.26744,0.78518
114.02637,0.77849
113.78530,0.77292
113.54423,0.77581
113.30316,0.78630
113.06209,0.79724
112.82102,0.80205
112.57995,0.80078
112.33888,0.79970
112.09781,0.80646
111.85674,0.82473
111.61567,0.84756
111.37460,0.85623
111.13353,0.83989
110.89246,0.81173
110.65139,0.78841
110.41031,0.76974
110.16924,0.74682
109.92817,0.71834
109.68710,0.69154
109.44603,0.67280
109.20496,0.66410
108.96389,0.66436
108.72282,0.67027
108.48175,0.67675
108.24068,0.68005
107.99961,0.68073
107.75854,0.67839
107.51747,0.66517
107.27640,0.63620
107.03533,0.59948
106.79426,0.56257
106.55319,0.52779
106.31212,0.49646
106.07104,0.46946
105.82997,0.44728
105.58890,0.43158
105.34783,0.42433
105.10676,0.42477
104.86569,0.43021
104.62462,0.43942
104.38355,0.45174
104.14248,0.46206
103.90141,0.46075
103.66034,0.44405
103.41927,0.41873
103.17820,0.39160
102.93713,0.36604
102.69606,0.34771
102.45499,0.34324
102.21392,0.35383
101.97285,0.37519
101.73177,0.40106
101.49070,0.41992
101.24963,0.41594
101.00856,0.38707
100.76749,0.35004
100.52642,0.31974
100.28535,0.30100
100.04428,0.29527
99.80321,0.30491
99.56214,0.33014
99.32107,0.36246
99.08000,0.37762
98.83893,0.35732
98.59786,0.32288
98.35679,0.30000
98.11572,0.29774
97.87465,0.31542
97.63358,0.34258
97.39250,0.35741
97.15143,0.34498
96.91036,0.31940
96.66929,0.30444
96.42822,0.31247
96.18715,0.34190
95.94608,0.37278
95.70501,0.37460
95.46394,0.35142
95.22287,0.33467
94.98180,0.34040
94.74073,0.36615
94.49966,0.39091
94.25859,0.38802
94.01752,0.36699
93.77645,0.35819
93.53538,0.37700
93.29431,0.41279
93.05323,0.42617
92.81216,0.40062
92.57109,0.37377
92.33002,0.37416
92.08895,0.39747
91.84788,0.41054
91.60681,0.39385
91.36574,0.37736
91.12467,0.38881
90.88360,0.42303
90.64253,0.44235
90.40146,0.43211
90.16039,0.43942
89.91932,0.49614
89.67825,0.57650
89.43718,0.60645
89.19611,0.60947
88.95504,0.65640
88.71396,0.72616
88.47289,0.73746
88.23182,0.71854
87.99075,0.72690
87.74968,0.73270
87.50861,0.69840
87.26754,0.65963
87.02647,0.64113
86.78540,0.62236
86.54433,0.58643
86.30326,0.55056
86.06219,0.52460
85.82112,0.50246
85.58005,0.48241
85.33898,0.46607
85.09791,0.44930
84.85684,0.43074
84.61577,0.41172
84.37469,0.39326
84.13362,0.37894
83.89255,0.36832
83.65148,0.35597
83.41041,0.33966
83.16934,0.32247
82.92827,0.30716
82.68720,0.29568
82.44613,0.29014
82.20506,0.28777
81.96399,0.28203
81.72292,0.27205
81.48185,0.26417
81.24078,0.26272
80.99971,0.26478
80.75864,0.26291
80.51757,0.25393
80.27650,0.24255
80.03542,0.23424
79.79435,0.23073
79.55328,0.22979
79.31221,0.22842
79.07114,0.22577
78.83007,0.22166
78.58900,0.21581
78.34793,0.20981
78.10686,0.20613
77.86579,0.20390
77.62472,0.20023
77.38365,0.19492
77.14258,0.18931
76.90151,0.18414
76.66044,0.18159
76.41937,0.18486
76.17830,0.19351
75.93723,0.20232
75.69615,0.20662
75.45508,0.20681
75.21401,0.20480
74.97294,0.19881
74.73187,0.18804
74.49080,0.18027
74.24973,0.18722
74.00866,0.20979
73.76759,0.23134
73.52652,0.23388
73.28545,0.22132
73.04438,0.21330
72.80331,0.22105
72.56224,0.23546
72.32117,0.23503
72.08010,0.21568
71.83903,0.19968
71.59796,0.20706
71.35688,0.23884
71.11581,0.27326
70.87474,0.27834
70.63367,0.25525
70.39260,0.23602
70.15153,0.23805
69.91046,0.26032
69.66939,0.29653
69.42832,0.33667
69.18725,0.36169
68.94618,0.35608
68.70511,0.32892
68.46404,0.29882
68.22297,0.27891
67.98190,0.27759
67.74083,0.29480
67.49976,0.30937
67.25869,0.28762
67.01761,0.23344
66.77654,0.17282
66.53547,0.12288
66.29440,0.09157
66.05333,0.07834
65.81226,0.07853
65.57119,0.08953
65.33012,0.11144
65.08905,0.14293
64.84798,0.17936
64.60691,0.21520
64.36584,0.24669
64.12477,0.27072
63.88370,0.28313
63.64263,0.28221
63.40156,0.27263
63.16049,0.25998
62.91942,0.24589
62.67834,0.23080
62.43727,0.21551
62.19620,0.20005
61.95513,0.18390
61.71406,0.16683
61.47299,0.14989
61.23192,0.13561
60.99085,0.12645
60.74978,0.12390
60.50871,0.12822
60.26764,0.13742
60.02657,0.14725
59.78550,0.15400
59.54443,0.15785
59.30336,0.16279
59.06229,0.17284
58.82122,0.18882
58.58015,0.20857
58.33907,0.23162
58.09800,0.26045
57.85693,0.29628
57.61586,0.33826
57.37479,0.37639
57.13372,0.37001
56.89265,0.31378
56.65158,0.25187
56.41051,0.20098
56.16944,0.16206
55.92837,0.13154
55.68730,0.10566
55.44623,0.08408
55.20516,0.06831
54.96409,0.05874
54.72302,0.05534
54.48195,0.05815
54.24088,0.06503
53.99980,0.07371
53.75873,0.08729
53.51766,0.11212
53.27659,0.15049
53.03552,0.20002
52.79445,0.24910
52.55338,0.26519
52.31231,0.22905
52.07124,0.15988
51.83017,0.08318
51.58910,0.02200
51.34803,-0.01263
51.10696,-0.02333
50.86589,-0.01611
50.62482,0.00933
50.38375,0.06063
50.14268,0.14073
49.90161,0.19820
49.66053,0.13277
49.41946,0.01996
49.17839,-0.05284
48.93732,-0.06542
48.69625,-0.01722
48.45518,0.11281
48.21411,0.29740
47.97304,0.21197
47.73197,0.05321
47.49090,-0.01941
47.24983,0.00053
47.00876,0.13245
46.76769,0.24875
46.52662,0.07196
46.28555,-0.04161
46.04448,-0.03631
45.80341,0.07373
45.56234,0.19676
45.32126,0.10131
45.08019,0.00972
44.83912,0.03227
44.59805,0.14468
44.35698,0.14748
44.11591,0.05578
43.87484,0.06581
43.63377,0.15771
43.39270,0.18884
43.15163,0.13391
42.91056,0.11817
42.66949,0.15170
42.42842,0.18306
42.18735,0.20230
41.94628,0.21316
41.70521,0.19704
41.46414,0.16175
41.22307,0.13431
40.98199,0.12522
40.74092,0.13692
40.49985,0.15835
40.25878,0.16300
40.01771,0.14547
39.77664,0.12988
39.53557,0.13618
39.29450,0.16886
39.05343,0.20564
38.81236,0.21145
38.57129,0.20823
38.33022,0.22727
38.08915,0.26187
37.84808,0.27541
37.60701,0.23977
37.36594,0.18521
37.12487,0.15057
36.88380,0.14770
36.64272,0.16941
36.40165,0.20212
36.16058,0.22930
35.91951,0.23286
35.67844,0.21356
35.43737,0.19785
35.19630,0.20512
34.95523,0.23162
34.71416,0.25912
34.47309,0.26235
34.23202,0.23629
33.99095,0.20424
33.74988,0.18047
33.50881,0.17060
33.26774,0.18359
33.02667,0.20752
32.78560,0.20376
32.54453,0.17379
32.30345,0.15581
32.06238,0.16042
31.82131,0.15717
31.58024,0.12276
31.33917,0.08381
31.09810,0.06946
30.85703,0.09051
30.61596,0.13569
30.37489,0.18148
30.13382,0.20145
29.89275,0.17255
29.65168,0.11165
29.41061,0.04685
29.16954,0.00462
28.92847,-0.00458
28.68740,-0.00754
28.44633,-0.03122
28.20526,-0.05026
27.96418,-0.03059
27.72311,0.01972
27.48204,0.04656
27.24097,0.01564
26.99990,-0.03979
26.75883,-0.07024
26.51776,-0.06798
26.27669,-0.05522
26.03562,-0.04872
25.79455,-0.04233
25.55348,-0.03994
25.31241,-0.05149
25.07134,-0.06201
24.83027,-0.05248
24.58920,-0.02186
24.34813,0.01796
24.10706,0.05928
23.86599,0.08795
23.62491,0.06060
23.38384,0.02415
23.14277,0.02154
22.90170,0.02010
22.66063,-0.00901
22.41956,-0.05110
22.17849,-0.06458
21.93742,-0.05310
21.69635,-0.04962
21.45528,-0.06570
21.21421,-0.08560
20.97314,-0.09559
20.73207,-0.08145
20.49100,-0.04279
20.24993,-0.02408
20.00886,-0.03158
19.76779,-0.04622
19.52672,-0.06736
19.28564,-0.09136
19.04457,-0.11746
18.80350,-0.15482
18.56243,-0.16531
18.32136,-0.13126
18.08029,-0.13117
17.83922,-0.16403
17.59815,-0.16904
17.35708,-0.15378
17.11601,-0.15254
16.87494,-0.17372
16.63387,-0.19560
16.39280,-0.18191
16.15173,-0.13721
15.91066,-0.10296
15.66959,-0.11094
15.42852,-0.15726
15.18745,-0.18948
14.94637,-0.15959
14.70530,-0.13214
14.46423,-0.12720
14.22316,-0.12575
13.98209,-0.12089
13.74102,-0.09940
13.49995,-0.06467
13.25888,-0.04676
13.01781,-0.05447
12.77674,-0.07061
12.53567,-0.07203
12.29460,-0.05576
12.05353,-0.04356
11.81246,-0.05245
11.57139,-0.06473
11.33032,-0.05238
11.08925,-0.01253
10.84818,0.03239
10.60710,0.05556
10.36603,0.05863
10.12496,0.06604
9.88389,0.07847
9.64282,0.08043
9.40175,0.06877
9.16068,0.05388
8.91961,0.04737
8.67854,0.04978
8.43747,0.05315
8.19640,0.04193
7.95533,0.00420
7.71426,-0.01362
7.47319,-0.02030
7.23212,-0.02244
6.99105,-0.02455
6.74998,-0.03504
6.50891,-0.04572
6.26783,-0.05144
6.02676,-0.05861
5.78569,-0.06397
5.54462,-0.06284
5.30355,-0.05954
5.06248,-0.04875
4.82141,-0.03686
4.58034,-0.03035
4.33927,-0.03552
4.09820,-0.05573
3.85713,-0.07116
3.61606,-0.05630
3.37499,-0.01928
3.13392,0.01717
2.89285,0.03855
2.65178,0.05640
2.41071,0.07675
2.16964,0.07288
1.92856,0.02999
1.68749,-0.01506
1.44642,-0.04928
1.20535,-0.05027
0.96428,-0.02813
0.72321,-0.04238
0.48214,-0.07955
0.24107,-0.12764
-0.00000,-0.04991
