399.69498,1.61716
399.45391,1.63004
399.21284,1.62836
398.97177,1.60817
398.73070,1.58537
398.48963,1.58211
398.24856,1.60697
398.00749,1.64157
397.76642,1.64884
397.52535,1.61908
397.28428,1.58277
397.04321,1.56318
396.80214,1.55875
396.56107,1.56166
396.32000,1.56830
396.07892,1.57512
395.83785,1.57701
395.59678,1.57196
395.35571,1.56350
395.11464,1.55675
394.87357,1.55607
394.63250,1.56160
394.39143,1.56877
394.15036,1.57444
393.90929,1.57499
393.66822,1.56569
393.42715,1.55252
393.18608,1.54900
392.94501,1.56029
392.70394,1.57701
392.46287,1.58134
392.22180,1.56587
391.98073,1.54245
391.73965,1.52754
391.49858,1.53334
391.25751,1.55976
391.01644,1.58622
390.77537,1.58999
390.53430,1.57568
390.29323,1.56095
390.05216,1.54552
389.81109,1.51959
389.57002,1.49171
389.32895,1.47811
389.08788,1.48198
388.84681,1.49538
388.60574,1.50728
388.36467,1.50997
388.12360,1.50277
387.88253,1.49413
387.64146,1.49253
387.40038,1.48820
387.15931,1.46383
386.91824,1.42764
386.67717,1.40799
386.43610,1.41617
386.19503,1.43185
385.95396,1.42790
385.71289,1.40257
385.47182,1.37391
385.23075,1.35785
384.98968,1.35519
384.74861,1.35625
384.50754,1.35623
384.26647,1.35754
384.02540,1.36138
383.78433,1.36423
383.54326,1.35915
383.30219,1.34868
383.06111,1.34626
382.82004,1.35656
382.57897,1.36846
382.33790,1.37256
382.09683,1.37439
381.85576,1.37853
381.61469,1.37258
381.37362,1.34574
381.13255,1.31062
380.89148,1.28676
380.65041,1.28110
380.40934,1.29159
380.16827,1.31288
379.92720,1.33517
379.68613,1.34422
379.44506,1.33085
379.20399,1.30462
378.96292,1.29026
378.72184,1.30585
378.48077,1.34644
378.23970,1.38303
377.99863,1.38787
377.75756,1.36861
377.51649,1.35317
377.27542,1.35269
377.03435,1.35732
376.79328,1.35728
376.55221,1.35520
376.31114,1.35652
376.07007,1.36419
375.82900,1.38223
375.58793,1.41170
375.34686,1.44284
375.10579,1.45640
374.86472,1.44596
374.62365,1.43263
374.38257,1.43769
374.14150,1.45600
373.90043,1.46859
373.65936,1.47297
373.41829,1.48082
373.17722,1.49439
372.93615,1.49959
372.69508,1.47971
372.45401,1.44139
372.21294,1.40890
371.97187,1.39573
371.73080,1.39967
371.48973,1.41038
371.24866,1.41577
371.00759,1.40885
370.76652,1.39197
370.52545,1.37374
370.28437,1.36371
370.04330,1.36787
369.80223,1.38389
369.56116,1.40022
369.32009,1.40488
369.07902,1.39813
368.83795,1.39017
368.59688,1.38867
368.35581,1.39292
368.11474,1.39471
367.87367,1.38684
367.63260,1.37464
367.39153,1.37081
367.15046,1.37636
366.90939,1.37737
366.66832,1.36712
366.42725,1.35606
366.18618,1.35335
365.94510,1.35685
365.70403,1.36119
365.46296,1.36292
365.22189,1.35841
364.98082,1.34520
364.73975,1.32745
364.49868,1.31524
364.25761,1.31545
364.01654,1.32514
363.77547,1.33499
363.53440,1.33903
363.29333,1.33952
363.05226,1.34121
362.81119,1.34399
362.57012,1.34308
362.32905,1.33668
362.08798,1.32935
361.84691,1.32352
361.60583,1.31592
361.36476,1.30578
361.12369,1.29744
360.88262,1.29219
360.64155,1.28677
360.40048,1.28171
360.15941,1.28196
359.91834,1.28825
359.67727,1.29572
359.43620,1.30100
359.19513,1.30368
358.95406,1.30423
358.71299,1.30522
358.47192,1.30875
358.23085,1.31249
357.98978,1.31334
357.74871,1.31317
357.50764,1.31447
357.26656,1.31353
357.02549,1.30513
356.78442,1.29203
356.54335,1.28265
356.30228,1.28101
356.06121,1.28277
355.82014,1.28336
355.57907,1.28291
355.33800,1.28364
355.09693,1.28780
354.85586,1.29494
354.61479,1.30183
354.37372,1.30540
354.13265,1.30557
353.89158,1.30342
353.65051,1.29933
353.40944,1.29704
353.16837,1.30165
352.92729,1.31075
352.68622,1.31466
352.44515,1.30804
352.20408,1.29540
351.96301,1.28527
351.72194,1.28465
351.48087,1.29548
351.23980,1.31129
350.99873,1.31838
350.75766,1.30760
350.51659,1.28634
350.27552,1.27065
350.03445,1.26918
349.79338,1.27953
349.55231,1.29314
349.31124,1.30061
349.07017,1.29599
348.82910,1.28034
348.58802,1.26262
348.34695,1.25400
348.10588,1.25891
347.86481,1.27191
347.62374,1.28467
347.38267,1.29390
347.14160,1.30024
346.90053,1.30484
346.65946,1.30756
346.41839,1.30610
346.17732,1.29748
345.93625,1.28363
345.69518,1.27457
345.45411,1.28069
345.21304,1.30069
344.97197,1.32064
344.73090,1.32785
344.48983,1.32504
344.24875,1.32652
344.00768,1.34025
343.76661,1.35869
343.52554,1.37052
343.28447,1.37686
343.04340,1.38435
342.80233,1.38876
342.56126,1.38242
342.32019,1.37138
342.07912,1.36973
341.83805,1.38263
341.59698,1.40202
341.35591,1.41543
341.11484,1.41922
340.87377,1.41880
340.63270,1.41805
340.39163,1.41511
340.15056,1.40728
339.90948,1.39833
339.66841,1.39554
339.42734,1.40065
339.18627,1.41130
338.94520,1.42413
338.70413,1.43365
338.46306,1.43720
338.22199,1.43948
337.98092,1.44646
337.73985,1.45786
337.49878,1.46539
337.25771,1.45789
337.01664,1.43478
336.77557,1.41224
336.53450,1.40882
336.29343,1.42690
336.05236,1.44918
335.81129,1.45235
335.57021,1.43521
335.32914,1.42168
335.08807,1.42461
334.84700,1.42911
334.60593,1.41612
334.36486,1.39057
334.12379,1.37232
333.88272,1.37174
333.64165,1.38340
333.40058,1.39426
333.15951,1.39646
332.91844,1.39090
332.67737,1.37707
332.43630,1.35413
332.19523,1.32936
331.95416,1.31241
331.71309,1.30650
331.47202,1.31213
331.23094,1.32746
330.98987,1.34413
330.74880,1.35318
330.50773,1.35529
330.26666,1.35717
330.02559,1.35658
329.78452,1.34979
329.54345,1.34562
329.30238,1.34756
329.06131,1.34308
328.82024,1.32552
328.57917,1.30783
328.33810,1.30415
328.09703,1.31264
327.85596,1.32168
327.61489,1.32344
327.37382,1.32011
327.13275,1.32023
326.89167,1.32546
326.65060,1.32374
326.40953,1.30667
326.16846,1.28473
325.92739,1.27364
325.68632,1.27701
325.44525,1.28768
325.20418,1.30092
324.96311,1.31741
324.72204,1.33374
324.48097,1.34164
324.23990,1.33892
323.99883,1.33544
323.75776,1.33916
323.51669,1.34358
323.27562,1.33768
323.03455,1.32204
322.79348,1.31009
322.55240,1.31249
322.31133,1.32328
322.07026,1.32910
321.82919,1.33017
321.58812,1.33628
321.34705,1.34819
321.10598,1.35358
320.86491,1.35073
320.62384,1.35195
320.38277,1.35505
320.14170,1.34488
319.90063,1.32548
319.65956,1.31361
319.41849,1.31043
319.17742,1.30819
318.93635,1.30808
318.69528,1.31559
318.45421,1.32422
318.21313,1.32196
317.97206,1.31280
317.73099,1.31070
317.48992,1.32435
317.24885,1.35334
317.00778,1.38485
316.76671,1.39718
316.52564,1.37867
316.28457,1.34464
316.04350,1.31957
315.80243,1.31387
315.56136,1.32257
315.32029,1.33825
315.07922,1.36059
314.83815,1.39145
314.59708,1.42326
314.35601,1.43623
314.11494,1.41730
313.87386,1.38200
313.63279,1.35844
313.39172,1.35770
313.15065,1.37270
312.90958,1.39235
312.66851,1.41137
312.42744,1.42692
312.18637,1.43289
311.94530,1.42640
311.70423,1.41350
311.46316,1.40523
311.22209,1.40839
310.98102,1.41794
310.73995,1.42339
310.49888,1.42310
310.25781,1.42396
310.01674,1.42771
309.77567,1.42565
309.53459,1.41114
309.29352,1.39358
309.05245,1.38885
308.81138,1.40029
308.57031,1.41132
308.32924,1.40560
308.08817,1.38998
307.84710,1.37789
307.60603,1.37345
307.36496,1.37576
307.12389,1.38219
306.88282,1.38675
306.64175,1.38639
306.40068,1.38626
306.15961,1.39216
305.91854,1.40440
305.67747,1.42066
305.43640,1.44015
305.19532,1.45692
304.95425,1.45567
304.71318,1.43155
304.47211,1.39833
304.23104,1.37029
303.98997,1.35024
303.74890,1.33487
303.50783,1.32484
303.26676,1.32390
303.02569,1.33201
302.78462,1.34364
302.54355,1.35309
302.30248,1.35985
302.06141,1.36559
301.82034,1.36885
301.57927,1.36600
301.33820,1.35588
301.09713,1.34176
300.85605,1.32948
300.61498,1.32451
300.37391,1.32784
300.13284,1.33214
299.89177,1.32624
299.65070,1.30850
299.40963,1.29006
299.16856,1.28091
298.92749,1.28178
298.68642,1.28907
298.44535,1.29662
298.20428,1.29497
297.96321,1.28086
297.72214,1.26540
297.48107,1.26090
297.24000,1.26542
296.99893,1.26721
296.75786,1.26099
296.51678,1.25295
296.27571,1.24922
296.03464,1.24872
295.79357,1.24826
295.55250,1.24756
295.31143,1.24627
295.07036,1.24215
294.82929,1.23414
294.58822,1.22440
294.34715,1.21825
294.10608,1.21996
293.86501,1.22657
293.62394,1.22847
293.38287,1.21979
293.14180,1.20662
292.90073,1.20132
292.65966,1.20985
292.41859,1.22495
292.17751,1.23129
291.93644,1.22265
291.69537,1.20842
291.45430,1.20025
291.21323,1.19977
290.97216,1.20045
290.73109,1.19767
290.49002,1.19330
290.24895,1.19070
290.00788,1.19038
289.76681,1.19174
289.52574,1.19361
289.28467,1.19126
289.04360,1.18043
288.80253,1.16591
288.56146,1.15768
288.32039,1.15950
288.07932,1.16531
287.83824,1.16569
287.59717,1.15897
287.35610,1.15315
287.11503,1.15469
286.87396,1.16096
286.63289,1.16549
286.39182,1.16604
286.15075,1.16493
285.90968,1.16521
285.66861,1.16718
285.42754,1.16692
285.18647,1.16220
284.94540,1.15707
284.70433,1.15588
284.46326,1.15802
284.22219,1.16027
283.98112,1.16193
283.74005,1.16416
283.49897,1.16647
283.25790,1.16744
283.01683,1.16579
282.77576,1.16097
282.53469,1.15427
282.29362,1.14816
282.05255,1.14444
281.81148,1.14307
281.57041,1.14406
281.32934,1.14837
281.08827,1.15503
280.84720,1.15982
280.60613,1.15981
280.36506,1.15805
280.12399,1.15960
279.88292,1.16447
279.64185,1.16854
279.40078,1.17015
279.15970,1.17222
278.91863,1.17782
278.67756,1.18600
278.43649,1.19178
278.19542,1.19003
277.95435,1.18107
277.71328,1.17104
277.47221,1.16529
277.23114,1.16308
276.99007,1.16042
276.74900,1.15706
276.50793,1.15715
276.26686,1.16229
276.02579,1.16692
275.78472,1.16366
275.54365,1.15306
275.30258,1.14432
275.06151,1.14529
274.82043,1.15425
274.57936,1.16224
274.33829,1.16262
274.09722,1.15720
273.85615,1.15274
273.61508,1.15368
273.37401,1.15888
273.13294,1.16355
272.89187,1.16469
272.65080,1.16351
272.40973,1.16361
272.16866,1.16748
271.92759,1.17417
271.68652,1.18043
271.44545,1.18358
271.20438,1.18422
270.96331,1.18601
270.72224,1.19160
270.48116,1.19872
270.24009,1.20292
269.99902,1.20426
269.75795,1.20678
269.51688,1.21211
269.27581,1.21876
269.03474,1.22538
268.79367,1.23043
268.55260,1.23168
268.31153,1.22961
268.07046,1.22824
267.82939,1.23080
267.58832,1.23671
267.34725,1.24189
267.10618,1.24256
266.86511,1.24080
266.62404,1.24344
266.38297,1.25324
266.14189,1.26558
265.90082,1.27580
265.65975,1.28387
265.41868,1.29034
265.17761,1.29453
264.93654,1.29688
264.69547,1.29901
264.45440,1.30231
264.21333,1.30920
263.97226,1.32164
263.73119,1.33694
263.49012,1.35029
263.24905,1.36217
263.00798,1.37692
262.76691,1.39497
262.52584,1.41320
262.28477,1.43037
262.04370,1.44574
261.80262,1.45724
261.56155,1.46544
261.32048,1.47514
261.07941,1.49140
260.83834,1.51552
260.59727,1.54547
260.35620,1.57714
260.11513,1.60632
259.87406,1.63089
259.63299,1.64827
259.39192,1.65358
259.15085,1.64981
258.90978,1.65199
258.66871,1.67008
258.42764,1.70068
258.18657,1.73938
257.94550,1.77842
257.70443,1.80322
257.46335,1.81603
257.22228,1.83473
256.98121,1.86213
256.74014,1.86919
256.49907,1.83946
256.25800,1.80305
256.01693,1.78738
255.77586,1.79704
255.53479,1.82190
255.29372,1.84703
255.05265,1.85331
254.81158,1.82620
254.57051,1.77792
254.32944,1.73409
254.08837,1.71106
253.84730,1.70708
253.60623,1.70865
253.36516,1.70590
253.12408,1.69648
252.88301,1.68519
252.64194,1.67808
252.40087,1.67363
252.15980,1.66625
251.91873,1.65402
251.67766,1.64422
251.43659,1.64365
251.19552,1.64630
250.95445,1.64100
250.71338,1.62696
250.47231,1.61170
250.23124,1.60415
249.99017,1.61338
249.74910,1.63876
249.50803,1.65885
249.26696,1.65212
249.02589,1.62978
248.78481,1.61672
248.54374,1.61689
248.30267,1.61883
248.06160,1.61815
247.82053,1.62021
247.57946,1.62740
247.33839,1.63318
247.09732,1.63442
246.85625,1.63922
246.61518,1.65132
246.37411,1.66467
246.13304,1.67537
245.89197,1.68848
245.65090,1.71244
245.40983,1.74914
245.16876,1.78657
244.92769,1.80699
244.68661,1.81070
244.44554,1.81965
244.20447,1.85168
243.96340,1.89838
243.72233,1.93101
243.48126,1.94404
243.24019,1.96761
242.99912,2.00625
242.75805,1.99759
242.51698,1.92084
242.27591,1.82698
242.03484,1.73309
241.79377,1.64503
241.55270,1.56983
241.31163,1.50992
241.07056,1.46158
240.82949,1.41622
240.58842,1.36915
240.34734,1.32402
240.10627,1.28761
239.86520,1.26636
239.62413,1.25874
239.38306,1.25045
239.14199,1.22730
238.90092,1.19235
238.65985,1.15951
238.41878,1.13548
238.17771,1.11723
237.93664,1.10060
237.69557,1.08599
237.45450,1.07609
237.21343,1.07109
236.97236,1.06651
236.73129,1.05648
236.49022,1.04087
236.24915,1.02527
236.00807,1.01252
235.76700,1.00021
235.52593,0.98604
235.28486,0.97104
235.04379,0.95702
234.80272,0.94480
234.56165,0.93523
234.32058,0.92928
234.07951,0.92697
233.83844,0.92726
233.59737,0.92880
233.35630,0.92938
233.11523,0.92681
232.87416,0.92139
232.63309,0.91546
232.39202,0.91021
232.15095,0.90484
231.90988,0.89952
231.66880,0.89676
231.42773,0.89803
231.18666,0.90055
230.94559,0.89967
230.70452,0.89446
230.46345,0.88813
230.22238,0.88316
229.98131,0.87895
229.74024,0.87481
229.49917,0.87192
229.25810,0.87104
229.01703,0.87104
228.77596,0.87174
228.53489,0.87494
228.29382,0.87971
228.05275,0.88014
227.81168,0.87360
227.57061,0.86580
227.32953,0.86178
227.08846,0.86000
226.84739,0.85736
226.60632,0.85371
226.36525,0.84979
226.12418,0.84590
225.88311,0.84277
225.64204,0.84131
225.40097,0.84174
225.15990,0.84376
224.91883,0.84606
224.67776,0.84635
224.43669,0.84394
224.19562,0.84070
223.95455,0.83760
223.71348,0.83383
223.47241,0.83061
223.23134,0.83099
222.99026,0.83517
222.74919,0.84078
222.50812,0.84703
222.26705,0.85494
222.02598,0.86414
221.78491,0.87245
221.54384,0.87862
221.30277,0.88371
221.06170,0.88921
220.82063,0.89481
220.57956,0.89909
220.33849,0.90250
220.09742,0.90809
219.85635,0.91843
219.61528,0.93207
219.37421,0.94378
219.13314,0.94992
218.89207,0.95304
218.65099,0.95817
218.40992,0.96576
218.16885,0.97267
217.92778,0.97885
217.68671,0.98818
217.44564,1.00341
217.20457,1.02286
216.96350,1.04161
216.72243,1.05515
216.48136,1.06334
216.24029,1.07102
215.99922,1.08273
215.75815,1.09803
215.51708,1.11280
215.27601,1.12325
215.03494,1.12776
214.79387,1.12798
214.55280,1.12851
214.31172,1.13295
214.07065,1.14056
213.82958,1.14762
213.58851,1.15293
213.34744,1.16064
213.10637,1.17512
212.86530,1.19412
212.62423,1.20949
212.38316,1.21536
212.14209,1.21503
211.90102,1.21737
211.65995,1.22630
211.41888,1.23675
211.17781,1.24065
210.93674,1.23502
210.69567,1.22511
210.45460,1.21841
210.21353,1.21652
209.97245,1.21800
209.73138,1.22310
209.49031,1.23150
209.24924,1.24036
209.00817,1.24428
208.76710,1.23634
208.52603,1.21578
208.28496,1.19213
208.04389,1.17683
207.80282,1.17322
207.56175,1.17473
207.32068,1.17366
207.07961,1.16927
206.83854,1.16383
206.59747,1.15704
206.35640,1.14668
206.11533,1.13161
205.87426,1.11542
205.63318,1.10373
205.39211,1.09583
205.15104,1.08564
204.90997,1.07226
204.66890,1.06044
204.42783,1.05117
204.18676,1.04131
203.94569,1.03007
203.70462,1.01927
203.46355,1.00866
203.22248,0.99646
202.98141,0.98346
202.74034,0.97278
202.49927,0.96548
202.25820,0.95887
202.01713,0.94981
201.77606,0.93763
201.53499,0.92304
201.29391,0.90663
201.05284,0.88972
200.81177,0.87514
200.57070,0.86517
200.32963,0.85829
200.08856,0.84960
199.84749,0.83659
199.60642,0.82228
199.36535,0.81091
199.12428,0.80327
198.88321,0.79749
198.64214,0.79226
198.40107,0.78718
198.16000,0.78133
197.91893,0.77369
197.67786,0.76426
197.43679,0.75491
197.19572,0.74795
196.95464,0.74253
196.71357,0.73449
196.47250,0.72182
196.23143,0.70811
195.99036,0.69840
195.74929,0.69365
195.50822,0.69013
195.26715,0.68411
195.02608,0.67585
194.78501,0.66824
194.54394,0.66325
194.30287,0.66079
194.06180,0.65965
193.82073,0.65773
193.57966,0.65363
193.33859,0.64881
193.09752,0.64624
192.85645,0.64596
192.61537,0.64399
192.37430,0.63772
192.13323,0.63063
191.89216,0.62725
191.65109,0.62699
191.41002,0.62567
191.16895,0.62056
190.92788,0.61303
190.68681,0.60670
190.44574,0.60325
190.20467,0.60095
189.96360,0.59730
189.72253,0.59293
189.48146,0.59047
189.24039,0.59007
188.99932,0.58924
188.75825,0.58684
188.51718,0.58425
188.27610,0.58292
188.03503,0.58273
187.79396,0.58241
187.55289,0.58067
187.31182,0.57810
187.07075,0.57700
186.82968,0.57790
186.58861,0.57781
186.34754,0.57461
186.10647,0.57087
185.86540,0.57008
185.62433,0.57148
185.38326,0.57206
185.14219,0.57165
184.90112,0.57239
184.66005,0.57433
184.41898,0.57546
184.17791,0.57561
183.93683,0.57723
183.69576,0.58124
183.45469,0.58472
183.21362,0.58495
182.97255,0.58379
182.73148,0.58440
182.49041,0.58597
182.24934,0.58610
182.00827,0.58599
181.76720,0.58794
181.52613,0.59077
181.28506,0.59241
181.04399,0.59426
180.80292,0.59804
180.56185,0.60147
180.32078,0.60121
180.07971,0.59802
179.83864,0.59610
179.59756,0.59859
179.35649,0.60510
179.11542,0.61289
178.87435,0.61989
178.63328,0.62612
178.39221,0.63221
178.15114,0.63874
177.91007,0.64687
177.66900,0.65712
177.42793,0.66826
177.18686,0.67936
176.94579,0.69117
176.70472,0.70409
176.46365,0.71722
176.22258,0.72999
175.98151,0.74299
175.74044,0.75695
175.49937,0.77206
175.25829,0.78766
175.01722,0.80290
174.77615,0.81792
174.53508,0.83344
174.29401,0.84982
174.05294,0.86710
173.81187,0.88417
173.57080,0.89851
173.32973,0.90933
173.08866,0.91896
172.84759,0.92830
172.60652,0.93487
172.36545,0.93738
172.12438,0.93811
171.88331,0.93950
171.64224,0.94111
171.40117,0.94081
171.16010,0.93809
170.91902,0.93455
170.67795,0.93097
170.43688,0.92728
170.19581,0.92498
169.95474,0.92563
169.71367,0.92717
169.47260,0.92546
169.23153,0.91928
168.99046,0.91097
168.74939,0.90253
168.50832,0.89389
168.26725,0.88527
168.02618,0.87845
167.78511,0.87439
167.54404,0.87218
167.30297,0.87209
167.06190,0.87679
166.82083,0.88750
166.57975,0.90086
166.33868,0.91120
166.09761,0.91511
165.85654,0.91407
165.61547,0.91280
165.37440,0.91451
165.13333,0.91818
164.89226,0.92160
164.65119,0.92501
164.41012,0.92894
164.16905,0.93246
163.92798,0.93636
163.68691,0.94394
163.44584,0.95590
163.20477,0.96814
162.96370,0.97708
162.72263,0.98368
162.48156,0.98928
162.24048,0.99208
161.99941,0.99185
161.75834,0.99388
161.51727,1.00291
161.27620,1.01562
161.03513,1.02298
160.79406,1.02005
160.55299,1.01028
160.31192,1.00006
160.07085,0.99207
159.82978,0.98460
159.58871,0.97563
159.34764,0.96626
159.10657,0.96031
158.86550,0.96103
158.62443,0.96710
158.38336,0.97219
158.14229,0.96994
157.90121,0.95967
157.66014,0.94593
157.41907,0.93343
157.17800,0.92494
156.93693,0.92252
156.69586,0.92634
156.45479,0.93192
156.21372,0.93245
155.97265,0.92447
155.73158,0.90928
155.49051,0.89077
155.24944,0.87438
155.00837,0.86507
154.76730,0.86303
154.52623,0.86295
154.28516,0.85919
154.04409,0.85000
153.80302,0.83651
153.56194,0.82070
153.32087,0.80489
153.07980,0.79072
152.83873,0.77791
152.59766,0.76455
152.35659,0.74926
152.11552,0.73308
151.87445,0.71839
151.63338,0.70628
151.39231,0.69616
151.15124,0.68714
150.91017,0.67790
150.66910,0.66635
150.42803,0.65119
150.18696,0.63401
149.94589,0.61839
149.70482,0.60701
149.46375,0.60009
149.22267,0.59549
148.98160,0.59006
148.74053,0.58216
148.49946,0.57317
148.25839,0.56632
148.01732,0.56367
147.77625,0.56389
147.53518,0.56321
147.29411,0.55944
147.05304,0.55425
146.81197,0.55106
146.57090,0.55158
146.32983,0.55443
146.08876,0.55677
145.84769,0.55757
145.60662,0.55888
145.36555,0.56343
145.12448,0.57148
144.88340,0.58047
144.64233,0.58752
144.40126,0.59206
144.16019,0.59552
143.91912,0.59867
143.67805,0.59976
143.43698,0.59634
143.19591,0.58889
142.95484,0.58087
142.71377,0.57483
142.47270,0.57025
142.23163,0.56498
141.99056,0.55800
141.74949,0.55048
141.50842,0.54400
141.26735,0.53844
141.02628,0.53291
140.78521,0.52768
140.54413,0.52366
140.30306,0.52081
140.06199,0.51849
139.82092,0.51698
139.57985,0.51751
139.33878,0.52076
139.09771,0.52557
138.85664,0.52973
138.61557,0.53251
138.37450,0.53574
138.13343,0.54162
137.89236,0.55028
137.65129,0.56053
137.41022,0.57231
137.16915,0.58648
136.92808,0.60251
136.68701,0.61872
136.44594,0.63482
136.20486,0.65168
135.96379,0.66932
135.72272,0.68765
135.48165,0.70776
135.24058,0.73056
134.99951,0.75652
134.75844,0.78668
134.51737,0.82025
134.27630,0.85297
134.03523,0.88237
133.79416,0.91113
133.55309,0.94147
133.31202,0.97123
133.07095,0.99751
132.82988,1.01938
132.58881,1.03658
132.34774,1.05050
132.10667,1.06459
131.86559,1.07959
131.62452,1.09232
131.38345,1.10082
131.14238,1.10653
130.90131,1.10923
130.66024,1.10490
130.41917,1.09112
130.17810,1.06929
129.93703,1.04192
129.69596,1.01226
129.45489,0.98399
129.21382,0.95746
128.97275,0.92859
128.73168,0.89474
128.49061,0.85868
128.24954,0.82461
128.00847,0.79415
127.76740,0.76709
127.52632,0.74293
127.28525,0.72075
127.04418,0.69917
126.80311,0.67672
126.56204,0.65273
126.32097,0.62829
126.07990,0.60616
125.83883,0.58877
125.59776,0.57598
125.35669,0.56506
125.11562,0.55323
124.87455,0.53994
124.63348,0.52657
124.39241,0.51492
124.15134,0.50594
123.91027,0.49915
123.66920,0.49289
123.42812,0.48560
123.18705,0.47703
122.94598,0.46837
122.70491,0.46158
122.46384,0.45800
122.22277,0.45710
121.98170,0.45680
121.74063,0.45579
121.49956,0.45494
121.25849,0.45604
121.01742,0.45999
120.77635,0.46676
120.53528,0.47607
120.29421,0.48712
120.05314,0.49889
119.81207,0.51176
119.57100,0.52727
119.32993,0.54541
119.08885,0.56431
118.84778,0.58424
118.60671,0.60881
118.36564,0.63993
118.12457,0.67412
117.88350,0.70592
117.64243,0.73295
117.40136,0.75573
117.16029,0.77444
116.91922,0.78801
116.67815,0.79500
116.43708,0.79442
116.19601,0.78721
115.95494,0.77741
115.71387,0.76866
115.47280,0.75961
115.23173,0.74554
114.99066,0.72489
114.74958,0.70155
114.50851,0.68084
114.26744,0.66555
114.02637,0.65565
113.78530,0.64969
113.54423,0.64674
113.30316,0.64778
113.06209,0.65428
112.82102,0.66567
112.57995,0.67954
112.33888,0.69378
112.09781,0.70667
111.85674,0.71531
111.61567,0.71631
111.37460,0.70852
111.13353,0.69491
110.89246,0.68080
110.65139,0.66988
110.41031,0.66266
110.16924,0.65873
109.92817,0.65907
109.68710,0.66446
109.44603,0.67187
109.20496,0.67496
108.96389,0.66857
108.72282,0.65221
108.48175,0.62932
108.24068,0.60401
107.99961,0.57908
107.75854,0.55655
107.51747,0.53823
107.27640,0.52496
107.03533,0.51615
106.79426,0.50984
106.55319,0.50260
106.31212,0.49062
106.07104,0.47263
105.82997,0.45092
105.58890,0.42929
105.34783,0.41160
105.10676,0.40142
104.86569,0.40024
104.62462,0.40531
104.38355,0.40959
104.14248,0.40526
103.90141,0.38998
103.66034,0.36911
103.41927,0.35046
103.17820,0.33903
102.93713,0.33569
102.69606,0.33753
102.45499,0.33980
102.21392,0.33841
101.97285,0.33133
101.73177,0.31953
101.49070,0.30736
101.24963,0.29969
101.00856,0.29775
100.76749,0.29806
100.52642,0.29581
100.28535,0.28962
100.04428,0.28266
99.80321,0.27910
99.56214,0.28044
99.32107,0.28494
99.08000,0.28858
98.83893,0.28709
98.59786,0.27976
98.35679,0.27098
98.11572,0.26688
97.87465,0.27055
97.63358,0.27894
97.39250,0.28432
97.15143,0.28241
96.91036,0.27839
96.66929,0.27985
96.42822,0.28824
96.18715,0.29771
95.94608,0.30149
95.70501,0.30097
95.46394,0.30356
95.22287,0.31244
94.98180,0.32233
94.74073,0.32483
94.49966,0.31986
94.25859,0.31681
94.01752,0.32201
93.77645,0.33082
93.53538,0.33345
93.29431,0.32935
93.05323,0.32795
92.81216,0.33316
92.57109,0.33688
92.33002,0.33239
92.08895,0.32652
91.84788,0.32762
91.60681,0.33265
91.36574,0.33529
91.12467,0.34006
90.88360,0.35415
90.64253,0.37466
90.40146,0.39590
90.16039,0.42184
89.91932,0.45704
89.67825,0.49655
89.43718,0.53635
89.19611,0.57941
88.95504,0.62400
88.71396,0.66226
88.47289,0.69117
88.23182,0.70972
87.99075,0.71229
87.74968,0.69515
87.50861,0.66184
87.26754,0.62061
87.02647,0.57989
86.78540,0.54334
86.54433,0.50962
86.30326,0.47758
86.06219,0.44825
85.82112,0.42228
85.58005,0.39881
85.33898,0.37651
85.09791,0.35505
84.85684,0.33589
84.61577,0.32053
84.37469,0.30811
84.13362,0.29653
83.89255,0.28497
83.65148,0.27457
83.41041,0.26712
83.16934,0.26219
82.92827,0.25600
82.68720,0.24615
82.44613,0.23546
82.20506,0.22748
81.96399,0.22174
81.72292,0.21646
81.48185,0.21220
81.24078,0.21005
80.99971,0.20933
80.75864,0.20871
80.51757,0.20790
80.27650,0.20723
80.03542,0.20629
79.79435,0.20399
79.55328,0.20017
79.31221,0.19634
79.07114,0.19444
78.83007,0.19543
78.58900,0.19842
78.34793,0.20024
78.10686,0.19798
77.86579,0.19223
77.62472,0.18639
77.38365,0.18357
77.14258,0.18477
76.90151,0.18792
76.66044,0.18905
76.41937,0.18623
76.17830,0.18146
75.93723,0.17778
75.69615,0.17638
75.45508,0.17648
75.21401,0.17637
74.97294,0.17497
74.73187,0.17317
74.49080,0.17287
74.24973,0.17478
74.00866,0.17840
73.76759,0.18263
73.52652,0.18490
73.28545,0.18159
73.04438,0.17226
72.80331,0.16179
72.56224,0.15650
72.32117,0.15963
72.08010,0.17017
71.83903,0.18382
71.59796,0.19476
71.35688,0.19815
71.11581,0.19314
70.87474,0.18359
70.63367,0.17529
70.39260,0.17326
70.15153,0.18067
69.91046,0.19760
69.66939,0.22021
69.42832,0.24258
69.18725,0.25957
68.94618,0.26806
68.70511,0.26701
68.46404,0.25744
68.22297,0.24185
67.98190,0.22322
67.74083,0.20440
67.49976,0.18767
67.25869,0.17404
67.01761,0.16324
66.77654,0.15464
66.53547,0.14822
66.29440,0.14432
66.05333,0.14298
65.81226,0.14436
65.57119,0.14887
65.33012,0.15660
65.08905,0.16702
64.84798,0.17947
64.60691,0.19309
64.36584,0.20649
64.12477,0.21807
63.88370,0.22636
63.64263,0.22971
63.40156,0.22640
63.16049,0.21646
62.91942,0.20271
62.67834,0.18888
62.43727,0.17711
62.19620,0.16767
61.95513,0.15983
61.71406,0.15249
61.47299,0.14507
61.23192,0.13818
60.99085,0.13312
60.74978,0.13098
60.50871,0.13217
60.26764,0.13622
60.02657,0.14148
59.78550,0.14506
59.54443,0.14410
59.30336,0.13888
59.06229,0.13339
58.82122,0.13101
58.58015,0.13157
58.33907,0.13399
58.09800,0.13935
57.85693,0.14993
57.61586,0.16670
57.37479,0.18770
57.13372,0.20737
56.89265,0.21893
56.65158,0.21820
56.41051,0.20377
56.16944,0.17847
55.92837,0.15050
55.68730,0.12697
55.44623,0.10899
55.20516,0.09561
54.96409,0.08861
54.72302,0.09122
54.48195,0.10552
54.24088,0.13281
53.99980,0.17234
53.75873,0.21289
53.51766,0.22737
53.27659,0.20304
53.03552,0.16379
52.79445,0.13176
52.55338,0.11559
52.31231,0.12028
52.07124,0.14940
51.83017,0.19812
51.58910,0.23685
51.34803,0.22277
51.10696,0.17138
50.86589,0.12375
50.62482,0.09894
50.38375,0.10593
50.14268,0.14910
49.90161,0.21145
49.66053,0.23259
49.41946,0.18282
49.17839,0.12578
48.93732,0.10763
48.69625,0.13762
48.45518,0.19285
48.21411,0.19970
47.97304,0.14118
47.73197,0.09473
47.49090,0.10031
47.24983,0.15802
47.00876,0.19967
46.76769,0.15625
46.52662,0.11215
46.28555,0.11708
46.04448,0.14037
45.80341,0.12661
45.56234,0.09827
45.32126,0.10060
45.08019,0.12130
44.83912,0.12307
44.59805,0.11631
44.35698,0.12450
44.11591,0.13323
43.87484,0.12693
43.63377,0.12320
43.39270,0.13323
43.15163,0.14765
42.91056,0.15625
42.66949,0.15677
42.42842,0.15361
42.18735,0.15244
41.94628,0.15259
41.70521,0.15196
41.46414,0.15308
41.22307,0.15434
40.98199,0.14927
40.74092,0.13901
40.49985,0.13315
40.25878,0.13775
40.01771,0.14886
39.77664,0.15751
39.53557,0.16340
39.29450,0.17688
39.05343,0.19881
38.81236,0.21379
38.57129,0.21464
38.33022,0.21350
38.08915,0.22152
37.84808,0.23737
37.60701,0.25153
37.36594,0.25289
37.12487,0.24014
36.88380,0.22364
36.64272,0.21201
36.40165,0.20455
36.16058,0.19473
35.91951,0.18056
35.67844,0.16844
35.43737,0.16436
35.19630,0.16710
34.95523,0.17187
34.71416,0.17519
34.47309,0.17498
34.23202,0.17397
33.99095,0.18243
33.74988,0.20389
33.50881,0.22477
33.26774,0.22863
33.02667,0.21486
32.78560,0.19702
32.54453,0.18520
32.30345,0.17375
32.06238,0.14979
31.82131,0.11368
31.58024,0.08225
31.33917,0.07178
31.09810,0.08156
30.85703,0.09640
30.61596,0.10163
30.37489,0.09316
30.13382,0.07686
29.89275,0.06047
29.65168,0.04919
29.41061,0.04228
29.16954,0.03393
28.92847,0.02459
28.68740,0.02652
28.44633,0.04680
28.20526,0.06719
27.96418,0.05463
27.72311,0.00602
27.48204,-0.04558
27.24097,-0.07326
26.99990,-0.07609
26.75883,-0.06746
26.51776,-0.05666
26.27669,-0.04566
26.03562,-0.03800
25.79455,-0.04473
25.55348,-0.07143
25.31241,-0.10004
25.07134,-0.10883
24.83027,-0.10987
24.58920,-0.12587
24.34813,-0.15070
24.10706,-0.15881
23.86599,-0.14348
23.62491,-0.12752
23.38384,-0.12870
23.14277,-0.14187
22.90170,-0.15484
22.66063,-0.16906
22.41956,-0.18708
22.17849,-0.19503
21.93742,-0.18338
21.69635,-0.16686
21.45528,-0.16544
21.21421,-0.17503
20.97314,-0.17603
20.73207,-0.17456
20.49100,-0.19573
20.24993,-0.23923
20.00886,-0.26989
19.76779,-0.26208
19.52672,-0.24338
19.28564,-0.25902
19.04457,-0.31180
18.80350,-0.35540
18.56243,-0.35271
18.32136,-0.31828
18.08029,-0.29076
17.83922,-0.28785
17.59815,-0.30507
17.35708,-0.33339
17.11601,-0.35569
16.87494,-0.35915
16.63387,-0.35267
16.39280,-0.34676
16.15173,-0.34241
15.91066,-0.33797
15.66959,-0.33334
15.42852,-0.33087
15.18745,-0.33252
14.94637,-0.34380
14.70530,-0.37306
14.46423,-0.41503
14.22316,-0.45688
13.98209,-0.48649
13.74102,-0.48977
13.49995,-0.46676
13.25888,-0.43898
13.01781,-0.42114
12.77674,-0.40573
12.53567,-0.38257
12.29460,-0.36587
12.05353,-0.36923
11.81246,-0.38266
11.57139,-0.37934
11.33032,-0.34779
11.08925,-0.32235
10.84818,-0.31958
10.60710,-0.34259
10.36603,-0.37916
10.12496,-0.41816
9.88389,-0.44324
9.64282,-0.43649
9.40175,-0.40817
9.16068,-0.39281
8.91961,-0.41020
8.67854,-0.41768
8.43747,-0.39015
8.19640,-0.35436
7.95533,-0.31553
7.71426,-0.30190
7.47319,-0.32618
7.23212,-0.35406
6.99105,-0.35936
6.74998,-0.35661
6.50891,-0.37367
6.26783,-0.42029
6.02676,-0.47260
5.78569,-0.49900
5.54462,-0.51311
5.30355,-0.50969
5.06248,-0.49190
4.82141,-0.47337
4.58034,-0.48013
4.33927,-0.49167
4.09820,-0.46241
3.85713,-0.39674
3.61606,-0.35371
3.37499,-0.33360
3.13392,-0.32801
2.89285,-0.33817
2.65178,-0.34768
2.41071,-0.33789
2.16964,-0.31908
1.92856,-0.31942
1.68749,-0.32588
1.44642,-0.32155
1.20535,-0.30830
0.96428,-0.29575
0.72321,-0.32341
0.48214,-0.38022
0.24107,-0.33678
-0.00000,-0.04081
