399.69498,1.78516
399.45391,1.79362
399.21284,1.75899
398.97177,1.70956
398.73070,1.67797
398.48963,1.66913
398.24856,1.66648
398.00749,1.66838
397.76642,1.67682
397.52535,1.68216
397.28428,1.68321
397.04321,1.68388
396.80214,1.67674
396.56107,1.66061
396.32000,1.64001
396.07892,1.61747
395.83785,1.61564
395.59678,1.62898
395.35571,1.63898
395.11464,1.64679
394.87357,1.66963
394.63250,1.71062
394.39143,1.74857
394.15036,1.76357
393.90929,1.76003
393.66822,1.72844
393.42715,1.67434
393.18608,1.63683
392.94501,1.61973
392.70394,1.60979
392.46287,1.61392
392.22180,1.63148
391.98073,1.64112
391.73965,1.63246
391.49858,1.61439
391.25751,1.59576
391.01644,1.58023
390.77537,1.57530
390.53430,1.58983
390.29323,1.62480
390.05216,1.66292
389.81109,1.67904
389.57002,1.66691
389.32895,1.63348
389.08788,1.58779
388.84681,1.54787
388.60574,1.53112
388.36467,1.54196
388.12360,1.56204
387.88253,1.56816
387.64146,1.55698
387.40038,1.54187
387.15931,1.53410
386.91824,1.55147
386.67717,1.61288
386.43610,1.69128
386.19503,1.73170
385.95396,1.71289
385.71289,1.63650
385.47182,1.56597
385.23075,1.53773
384.98968,1.51773
384.74861,1.49744
384.50754,1.49059
384.26647,1.48632
384.02540,1.47847
383.78433,1.47669
383.54326,1.47720
383.30219,1.46095
383.06111,1.42734
382.82004,1.38698
382.57897,1.37742
382.33790,1.40883
382.09683,1.44102
381.85576,1.44531
381.61469,1.41395
381.37362,1.38926
381.13255,1.38198
380.89148,1.38765
380.65041,1.43455
380.40934,1.53500
380.16827,1.62610
379.92720,1.62257
379.68613,1.54394
379.44506,1.46824
379.20399,1.42816
378.96292,1.40746
378.72184,1.39697
378.48077,1.41480
378.23970,1.45952
377.99863,1.49032
377.75756,1.48372
377.51649,1.46666
377.27542,1.47527
377.03435,1.50922
376.79328,1.53244
376.55221,1.52572
376.31114,1.48164
376.07007,1.42963
375.82900,1.40380
375.58793,1.41829
375.34686,1.46946
375.10579,1.52819
374.86472,1.55669
374.62365,1.55222
374.38257,1.55584
374.14150,1.58383
373.90043,1.61524
373.65936,1.63018
373.41829,1.63392
373.17722,1.63002
372.93615,1.60894
372.69508,1.57791
372.45401,1.56653
372.21294,1.59415
371.97187,1.63707
371.73080,1.64119
371.48973,1.59104
371.24866,1.52622
371.00759,1.47896
370.76652,1.45172
370.52545,1.43593
370.28437,1.43563
370.04330,1.45519
369.80223,1.48563
369.56116,1.51971
369.32009,1.55552
369.07902,1.58284
368.83795,1.59327
368.59688,1.59674
368.35581,1.61060
368.11474,1.62373
367.87367,1.60327
367.63260,1.55024
367.39153,1.49965
367.15046,1.47037
366.90939,1.45172
366.66832,1.43329
366.42725,1.42531
366.18618,1.43486
365.94510,1.45342
365.70403,1.47540
365.46296,1.50348
365.22189,1.52866
364.98082,1.53102
364.73975,1.50956
364.49868,1.48175
364.25761,1.46197
364.01654,1.45879
363.77547,1.47116
363.53440,1.48414
363.29333,1.48797
363.05226,1.49193
362.81119,1.49593
362.57012,1.48537
362.32905,1.46280
362.08798,1.45235
361.84691,1.46548
361.60583,1.48167
361.36476,1.48000
361.12369,1.46682
360.88262,1.45139
360.64155,1.43964
360.40048,1.43429
360.15941,1.43186
359.91834,1.43070
359.67727,1.43697
359.43620,1.45628
359.19513,1.47793
358.95406,1.47753
358.71299,1.44908
358.47192,1.41195
358.23085,1.38413
357.98978,1.36946
357.74871,1.36360
357.50764,1.36094
357.26656,1.36089
357.02549,1.36665
356.78442,1.37822
356.54335,1.39744
356.30228,1.42691
356.06121,1.45857
355.82014,1.48118
355.57907,1.48330
355.33800,1.45389
355.09693,1.41098
354.85586,1.38454
354.61479,1.38641
354.37372,1.40377
354.13265,1.41611
353.89158,1.41685
353.65051,1.40959
353.40944,1.39804
353.16837,1.38960
352.92729,1.39014
352.68622,1.39353
352.44515,1.39305
352.20408,1.39351
351.96301,1.39932
351.72194,1.40682
351.48087,1.40958
351.23980,1.41247
350.99873,1.42677
350.75766,1.44866
350.51659,1.45758
350.27552,1.44223
350.03445,1.41939
349.79338,1.41419
349.55231,1.43143
349.31124,1.45083
349.07017,1.45264
348.82910,1.44762
348.58802,1.45863
348.34695,1.48080
348.10588,1.48981
347.86481,1.47936
347.62374,1.46143
347.38267,1.44492
347.14160,1.43093
346.90053,1.42047
346.65946,1.41407
346.41839,1.41348
346.17732,1.42197
345.93625,1.44105
345.69518,1.46911
345.45411,1.49545
345.21304,1.50182
344.97197,1.48614
344.73090,1.46745
344.48983,1.45874
344.24875,1.45379
344.00768,1.44992
343.76661,1.46415
343.52554,1.50355
343.28447,1.54385
343.04340,1.56307
342.80233,1.56675
342.56126,1.57744
342.32019,1.60600
342.07912,1.62384
341.83805,1.60307
341.59698,1.55448
341.35591,1.50749
341.11484,1.48313
340.87377,1.49008
340.63270,1.52013
340.39163,1.54866
340.15056,1.55906
339.90948,1.56295
339.66841,1.57659
339.42734,1.59444
339.18627,1.59510
338.94520,1.57341
338.70413,1.54100
338.46306,1.51593
338.22199,1.52454
337.98092,1.57145
337.73985,1.60601
337.49878,1.58692
337.25771,1.55711
337.01664,1.55436
336.77557,1.57764
336.53450,1.59884
336.29343,1.60632
336.05236,1.60934
335.81129,1.60017
335.57021,1.57558
335.32914,1.55547
335.08807,1.54021
334.84700,1.52508
334.60593,1.52986
334.36486,1.54719
334.12379,1.56853
333.88272,1.59858
333.64165,1.62465
333.40058,1.63418
333.15951,1.62677
332.91844,1.58443
332.67737,1.52156
332.43630,1.47496
332.19523,1.44381
331.95416,1.42808
331.71309,1.45760
331.47202,1.53597
331.23094,1.61820
330.98987,1.63180
330.74880,1.55584
330.50773,1.45610
330.26666,1.38693
330.02559,1.36114
329.78452,1.37849
329.54345,1.43420
329.30238,1.50631
329.06131,1.56113
328.82024,1.56435
328.57917,1.52752
328.33810,1.49330
328.09703,1.44260
327.85596,1.38470
327.61489,1.36426
327.37382,1.40202
327.13275,1.48621
326.89167,1.57057
326.65060,1.57022
326.40953,1.49764
326.16846,1.44589
325.92739,1.43258
325.68632,1.43829
325.44525,1.45386
325.20418,1.48666
324.96311,1.51892
324.72204,1.50352
324.48097,1.47822
324.23990,1.47061
323.99883,1.49750
323.75776,1.54937
323.51669,1.55764
323.27562,1.49849
323.03455,1.45832
322.79348,1.44605
322.55240,1.43615
322.31133,1.42429
322.07026,1.43269
321.82919,1.46882
321.58812,1.48472
321.34705,1.46595
321.10598,1.45723
320.86491,1.44639
320.62384,1.44397
320.38277,1.47059
320.14170,1.49938
319.90063,1.47283
319.65956,1.40108
319.41849,1.38262
319.17742,1.43609
318.93635,1.50364
318.69528,1.51067
318.45421,1.49076
318.21313,1.46195
317.97206,1.43764
317.73099,1.43090
317.48992,1.44250
317.24885,1.48120
317.00778,1.52997
316.76671,1.52779
316.52564,1.47133
316.28457,1.43169
316.04350,1.44562
315.80243,1.48493
315.56136,1.49501
315.32029,1.47661
315.07922,1.46471
314.83815,1.46854
314.59708,1.48700
314.35601,1.51737
314.11494,1.53078
313.87386,1.51913
313.63279,1.50596
313.39172,1.46437
313.15065,1.40313
312.90958,1.37825
312.66851,1.40596
312.42744,1.45452
312.18637,1.48008
311.94530,1.48177
311.70423,1.48103
311.46316,1.50111
311.22209,1.52385
310.98102,1.48917
310.73995,1.43849
310.49888,1.42056
310.25781,1.43463
310.01674,1.47003
309.77567,1.51833
309.53459,1.52396
309.29352,1.50594
309.05245,1.48711
308.81138,1.48180
308.57031,1.51894
308.32924,1.59618
308.08817,1.65118
307.84710,1.63318
307.60603,1.56921
307.36496,1.52208
307.12389,1.51845
306.88282,1.52038
306.64175,1.49966
306.40068,1.49476
306.15961,1.51232
305.91854,1.54691
305.67747,1.58007
305.43640,1.57936
305.19532,1.55232
304.95425,1.54003
304.71318,1.56017
304.47211,1.58377
304.23104,1.55403
303.98997,1.49540
303.74890,1.47777
303.50783,1.49780
303.26676,1.52157
303.02569,1.53297
302.78462,1.52778
302.54355,1.51026
302.30248,1.49364
302.06141,1.48178
301.82034,1.46969
301.57927,1.45491
301.33820,1.43919
301.09713,1.42263
300.85605,1.40147
300.61498,1.37637
300.37391,1.36301
300.13284,1.37878
299.89177,1.41280
299.65070,1.42832
299.40963,1.41116
299.16856,1.38925
298.92749,1.39981
298.68642,1.45093
298.44535,1.50450
298.20428,1.50523
297.96321,1.45939
297.72214,1.42506
297.48107,1.42765
297.24000,1.44340
296.99893,1.43450
296.75786,1.39972
296.51678,1.37175
296.27571,1.36745
296.03464,1.37194
295.79357,1.35944
295.55250,1.32995
295.31143,1.30988
295.07036,1.31295
294.82929,1.32798
294.58822,1.33928
294.34715,1.34895
294.10608,1.36338
293.86501,1.37319
293.62394,1.36755
293.38287,1.35532
293.14180,1.35160
292.90073,1.35458
292.65966,1.35236
292.41859,1.34227
292.17751,1.32994
291.93644,1.31755
291.69537,1.30382
291.45430,1.29018
291.21323,1.28032
290.97216,1.28013
290.73109,1.28937
290.49002,1.30086
290.24895,1.31237
290.00788,1.32241
289.76681,1.32241
289.52574,1.30914
289.28467,1.29391
289.04360,1.28761
288.80253,1.28931
288.56146,1.29259
288.32039,1.29001
288.07932,1.27846
287.83824,1.26565
287.59717,1.26209
287.35610,1.26420
287.11503,1.25864
286.87396,1.24592
286.63289,1.24020
286.39182,1.24596
286.15075,1.25078
285.90968,1.24386
285.66861,1.23183
285.42754,1.22704
285.18647,1.23204
284.94540,1.24247
284.70433,1.25445
284.46326,1.26343
284.22219,1.26444
283.98112,1.25919
283.74005,1.25307
283.49897,1.24754
283.25790,1.24368
283.01683,1.24335
282.77576,1.24304
282.53469,1.23825
282.29362,1.23467
282.05255,1.24207
281.81148,1.25733
281.57041,1.26538
281.32934,1.25876
281.08827,1.24652
280.84720,1.24086
280.60613,1.24301
280.36506,1.24442
280.12399,1.24079
279.88292,1.23979
279.64185,1.24873
279.40078,1.26035
279.15970,1.25883
278.91863,1.24042
278.67756,1.21881
278.43649,1.20976
278.19542,1.21619
277.95435,1.22786
277.71328,1.23735
277.47221,1.24892
277.23114,1.26499
276.99007,1.27636
276.74900,1.27403
276.50793,1.26353
276.26686,1.25597
276.02579,1.25375
275.78472,1.25095
275.54365,1.24250
275.30258,1.23416
275.06151,1.23588
274.82043,1.24606
274.57936,1.25396
274.33829,1.25668
274.09722,1.25981
273.85615,1.26225
273.61508,1.25959
273.37401,1.25682
273.13294,1.25968
272.89187,1.26283
272.65080,1.26086
272.40973,1.25972
272.16866,1.26547
271.92759,1.27333
271.68652,1.27655
271.44545,1.27688
271.20438,1.27701
270.96331,1.27282
270.72224,1.26361
270.48116,1.25786
270.24009,1.26185
269.99902,1.27229
269.75795,1.28055
269.51688,1.28026
269.27581,1.27281
269.03474,1.26587
268.79367,1.26580
268.55260,1.27428
268.31153,1.28991
268.07046,1.30807
267.82939,1.32015
267.58832,1.31975
267.34725,1.31112
267.10618,1.30512
266.86511,1.30834
266.62404,1.31981
266.38297,1.33427
266.14189,1.34719
265.90082,1.35887
265.65975,1.37209
265.41868,1.38451
265.17761,1.39039
264.93654,1.39118
264.69547,1.39368
264.45440,1.39876
264.21333,1.40133
263.97226,1.40210
263.73119,1.41069
263.49012,1.42709
263.24905,1.43819
263.00798,1.44327
262.76691,1.45523
262.52584,1.47758
262.28477,1.50378
262.04370,1.53010
261.80262,1.55536
261.56155,1.57270
261.32048,1.57391
261.07941,1.56123
260.83834,1.54742
260.59727,1.54806
260.35620,1.57135
260.11513,1.61062
259.87406,1.64849
259.63299,1.67281
259.39192,1.69422
259.15085,1.73374
258.90978,1.79701
258.66871,1.86084
258.42764,1.88536
258.18657,1.87581
257.94550,1.89596
257.70443,1.97349
257.46335,2.05988
257.22228,2.05837
256.98121,1.97711
256.74014,1.92556
256.49907,1.92959
256.25800,1.96058
256.01693,1.97987
255.77586,1.97036
255.53479,1.96291
255.29372,1.95138
255.05265,1.90266
254.81158,1.82565
254.57051,1.76529
254.32944,1.73966
254.08837,1.73557
253.84730,1.73482
253.60623,1.72734
253.36516,1.70888
253.12408,1.70170
252.88301,1.72681
252.64194,1.77533
252.40087,1.82664
252.15980,1.86319
251.91873,1.85886
251.67766,1.81342
251.43659,1.76908
251.19552,1.74752
250.95445,1.74895
250.71338,1.76034
250.47231,1.76433
250.23124,1.75530
249.99017,1.74534
249.74910,1.74026
249.50803,1.73234
249.26696,1.72283
249.02589,1.72363
248.78481,1.75100
248.54374,1.79611
248.30267,1.82079
248.06160,1.81459
247.82053,1.81352
247.57946,1.82575
247.33839,1.80758
247.09732,1.81366
246.85625,1.83910
246.61518,1.85232
246.37411,1.83851
246.13304,1.81369
245.89197,1.80466
245.65090,1.82322
245.40983,1.86372
245.16876,1.91210
244.92769,1.91927
244.68661,1.89762
244.44554,1.91704
244.20447,1.97904
243.96340,2.04041
243.72233,2.08895
243.48126,2.15607
243.24019,2.19728
242.99912,2.13173
242.75805,2.08085
242.51698,2.09447
242.27591,1.99271
242.03484,1.83911
241.79377,1.73493
241.55270,1.65305
241.31163,1.57395
241.07056,1.50525
240.82949,1.45047
240.58842,1.40331
240.34734,1.35688
240.10627,1.31387
239.86520,1.28734
239.62413,1.28442
239.38306,1.29231
239.14199,1.29447
238.90092,1.29499
238.65985,1.29709
238.41878,1.27925
238.17771,1.22926
237.93664,1.17026
237.69557,1.12528
237.45450,1.09460
237.21343,1.06898
236.97236,1.04778
236.73129,1.03793
236.49022,1.04082
236.24915,1.04668
236.00807,1.04477
235.76700,1.03474
235.52593,1.02199
235.28486,1.00794
235.04379,0.99301
234.80272,0.98067
234.56165,0.97380
234.32058,0.97252
234.07951,0.97522
233.83844,0.97835
233.59737,0.97711
233.35630,0.97040
233.11523,0.96174
232.87416,0.95279
232.63309,0.94231
232.39202,0.93186
232.15095,0.92537
231.90988,0.92353
231.66880,0.92293
231.42773,0.91944
231.18666,0.91237
230.94559,0.90832
230.70452,0.91387
230.46345,0.92221
230.22238,0.92079
229.98131,0.91136
229.74024,0.90368
229.49917,0.89920
229.25810,0.89525
229.01703,0.89542
228.77596,0.90248
228.53489,0.91176
228.29382,0.91781
228.05275,0.91926
227.81168,0.91577
227.57061,0.90762
227.32953,0.89755
227.08846,0.88873
226.84739,0.88264
226.60632,0.87887
226.36525,0.87584
226.12418,0.87184
225.88311,0.86560
225.64204,0.85893
225.40097,0.85751
225.15990,0.86411
224.91883,0.87248
224.67776,0.87448
224.43669,0.87103
224.19562,0.86902
223.95455,0.87155
223.71348,0.87621
223.47241,0.88039
223.23134,0.88424
222.99026,0.88869
222.74919,0.89364
222.50812,0.89814
222.26705,0.90120
222.02598,0.90433
221.78491,0.91226
221.54384,0.92694
221.30277,0.94339
221.06170,0.95425
220.82063,0.95663
220.57956,0.95172
220.33849,0.94150
220.09742,0.93169
219.85635,0.93229
219.61528,0.94869
219.37421,0.97552
219.13314,1.00111
218.89207,1.01984
218.65099,1.03425
218.40992,1.04019
218.16885,1.03021
217.92778,1.01406
217.68671,1.01132
217.44564,1.03104
217.20457,1.06514
216.96350,1.09737
216.72243,1.11363
216.48136,1.10850
216.24029,1.09557
215.99922,1.09167
215.75815,1.10336
215.51708,1.13288
215.27601,1.17679
215.03494,1.21706
214.79387,1.22622
214.55280,1.20535
214.31172,1.18554
214.07065,1.19344
213.82958,1.23388
213.58851,1.27456
213.34744,1.26993
213.10637,1.23814
212.86530,1.21624
212.62423,1.21060
212.38316,1.21766
212.14209,1.23686
211.90102,1.26218
211.65995,1.27687
211.41888,1.26943
211.17781,1.24844
210.93674,1.23064
210.69567,1.22978
210.45460,1.24736
210.21353,1.26049
209.97245,1.24533
209.73138,1.21867
209.49031,1.21244
209.24924,1.23629
209.00817,1.26852
208.76710,1.27402
208.52603,1.24871
208.28496,1.21824
208.04389,1.20270
207.80282,1.20963
207.56175,1.22866
207.32068,1.23133
207.07961,1.20576
206.83854,1.17765
206.59747,1.17296
206.35640,1.19085
206.11533,1.20546
205.87426,1.18917
205.63318,1.14750
205.39211,1.11201
205.15104,1.10572
204.90997,1.12569
204.66890,1.13781
204.42783,1.11282
204.18676,1.07535
203.94569,1.05703
203.70462,1.06044
203.46355,1.06716
203.22248,1.05584
202.98141,1.02841
202.74034,1.00237
202.49927,0.98656
202.25820,0.97794
202.01713,0.96658
201.77606,0.94741
201.53499,0.92948
201.29391,0.92403
201.05284,0.92667
200.81177,0.91919
200.57070,0.89523
200.32963,0.87127
200.08856,0.86227
199.84749,0.86389
199.60642,0.86056
199.36535,0.84747
199.12428,0.83598
198.88321,0.83387
198.64214,0.83427
198.40107,0.82610
198.16000,0.81060
197.91893,0.79719
197.67786,0.78830
197.43679,0.77717
197.19572,0.76073
196.95464,0.74674
196.71357,0.74225
196.47250,0.74373
196.23143,0.74110
195.99036,0.73120
195.74929,0.72116
195.50822,0.71714
195.26715,0.71707
195.02608,0.71474
194.78501,0.70938
194.54394,0.70571
194.30287,0.70442
194.06180,0.70009
193.82073,0.69085
193.57966,0.68328
193.33859,0.68098
193.09752,0.67776
192.85645,0.66894
192.61537,0.66150
192.37430,0.66227
192.13323,0.66457
191.89216,0.65889
191.65109,0.64922
191.41002,0.64464
191.16895,0.64360
190.92788,0.63792
190.68681,0.62865
190.44574,0.62389
190.20467,0.62436
189.96360,0.62358
189.72253,0.62017
189.48146,0.62016
189.24039,0.62471
188.99932,0.62627
188.75825,0.62097
188.51718,0.61591
188.27610,0.61750
188.03503,0.62248
187.79396,0.62417
187.55289,0.62125
187.31182,0.61645
187.07075,0.61165
186.82968,0.60700
186.58861,0.60220
186.34754,0.59789
186.10647,0.59457
185.86540,0.59115
185.62433,0.58820
185.38326,0.58924
185.14219,0.59394
184.90112,0.59634
184.66005,0.59564
184.41898,0.59812
184.17791,0.60414
183.93683,0.60787
183.69576,0.60978
183.45469,0.61330
183.21362,0.61424
182.97255,0.60944
182.73148,0.60596
182.49041,0.61032
182.24934,0.61933
182.00827,0.62657
181.76720,0.63022
181.52613,0.63158
181.28506,0.63146
181.04399,0.62916
180.80292,0.62365
180.56185,0.61590
180.32078,0.60855
180.07971,0.60321
179.83864,0.60005
179.59756,0.59998
179.35649,0.60570
179.11542,0.61951
178.87435,0.64006
178.63328,0.66191
178.39221,0.68020
178.15114,0.69464
177.91007,0.70605
177.66900,0.71244
177.42793,0.71362
177.18686,0.71445
176.94579,0.71953
176.70472,0.72772
176.46365,0.73520
176.22258,0.74304
175.98151,0.75618
175.74044,0.77469
175.49937,0.79336
175.25829,0.81048
175.01722,0.82818
174.77615,0.84540
174.53508,0.85934
174.29401,0.87062
174.05294,0.88135
173.81187,0.89440
173.57080,0.91418
173.32973,0.94097
173.08866,0.96575
172.84759,0.97876
172.60652,0.98280
172.36545,0.98626
172.12438,0.98755
171.88331,0.97982
171.64224,0.96739
171.40117,0.96046
171.16010,0.96110
170.91902,0.96430
170.67795,0.96705
170.43688,0.96950
170.19581,0.96858
169.95474,0.95967
169.71367,0.94464
169.47260,0.93020
169.23153,0.92086
168.99046,0.91678
168.74939,0.91571
168.50832,0.91692
168.26725,0.92208
168.02618,0.93163
167.78511,0.94196
167.54404,0.94409
167.30297,0.93040
167.06190,0.90841
166.82083,0.89425
166.57975,0.89360
166.33868,0.90004
166.09761,0.90931
165.85654,0.92579
165.61547,0.94956
165.37440,0.96489
165.13333,0.95686
164.89226,0.93526
164.65119,0.92021
164.41012,0.92134
164.16905,0.93986
163.92798,0.97511
163.68691,1.02128
163.44584,1.05543
163.20477,1.04634
162.96370,1.00479
162.72263,0.96931
162.48156,0.95896
162.24048,0.97427
161.99941,1.00736
161.75834,1.04037
161.51727,1.05104
161.27620,1.03999
161.03513,1.02540
160.79406,1.01720
160.55299,1.01741
160.31192,1.02399
160.07085,1.02831
159.82978,1.02028
159.58871,1.00207
159.34764,0.98636
159.10657,0.98153
158.86550,0.99000
158.62443,1.00924
158.38336,1.02245
158.14229,1.01035
157.90121,0.98340
157.66014,0.96341
157.41907,0.95909
157.17800,0.96802
156.93693,0.97839
156.69586,0.97441
156.45479,0.95359
156.21372,0.92939
155.97265,0.91546
155.73158,0.91480
155.49051,0.91680
155.24944,0.90941
155.00837,0.89610
154.76730,0.88739
154.52623,0.88843
154.28516,0.89443
154.04409,0.89097
153.80302,0.87250
153.56194,0.85094
153.32087,0.83651
153.07980,0.82770
152.83873,0.81487
152.59766,0.79254
152.35659,0.76838
152.11552,0.75137
151.87445,0.74250
151.63338,0.73696
151.39231,0.72726
151.15124,0.71206
150.91017,0.69800
150.66910,0.68925
150.42803,0.68209
150.18696,0.66942
149.94589,0.65230
149.70482,0.63865
149.46375,0.63086
149.22267,0.62380
148.98160,0.61338
148.74053,0.60249
148.49946,0.59623
148.25839,0.59485
148.01732,0.59339
147.77625,0.58771
147.53518,0.57989
147.29411,0.57501
147.05304,0.57397
146.81197,0.57296
146.57090,0.57103
146.32983,0.57231
146.08876,0.57810
145.84769,0.58269
145.60662,0.58184
145.36555,0.58102
145.12448,0.58766
144.88340,0.60082
144.64233,0.61404
144.40126,0.62377
144.16019,0.63004
143.91912,0.63244
143.67805,0.62996
143.43698,0.62287
143.19591,0.61299
142.95484,0.60221
142.71377,0.59158
142.47270,0.58207
142.23163,0.57457
141.99056,0.56753
141.74949,0.55783
141.50842,0.54602
141.26735,0.53643
141.02628,0.53126
140.78521,0.52838
140.54413,0.52520
140.30306,0.52201
140.06199,0.52090
139.82092,0.52272
139.57985,0.52667
139.33878,0.53236
139.09771,0.53876
138.85664,0.54243
138.61557,0.54192
138.37450,0.54169
138.13343,0.54607
137.89236,0.55441
137.65129,0.56644
137.41022,0.58337
137.16915,0.60153
136.92808,0.61593
136.68701,0.62995
136.44594,0.64912
136.20486,0.67110
135.96379,0.69187
135.72272,0.71435
135.48165,0.74080
135.24058,0.76488
134.99951,0.78114
134.75844,0.79477
134.51737,0.81365
134.27630,0.83785
134.03523,0.86380
133.79416,0.89153
133.55309,0.92152
133.31202,0.95149
133.07095,0.98096
132.82988,1.01268
132.58881,1.04751
132.34774,1.08142
132.10667,1.10739
131.86559,1.12089
131.62452,1.12675
131.38345,1.13616
131.14238,1.15301
130.90131,1.16556
130.66024,1.15781
130.41917,1.13118
130.17810,1.10291
129.93703,1.08202
129.69596,1.05802
129.45489,1.01831
129.21382,0.96909
128.97275,0.92386
128.73168,0.88508
128.49061,0.84903
128.24954,0.81608
128.00847,0.78760
127.76740,0.76097
127.52632,0.73486
127.28525,0.71220
127.04418,0.69268
126.80311,0.67038
126.56204,0.64371
126.32097,0.61906
126.07990,0.60129
125.83883,0.58820
125.59776,0.57619
125.35669,0.56521
125.11562,0.55553
124.87455,0.54501
124.63348,0.53344
124.39241,0.52414
124.15134,0.51876
123.91027,0.51447
123.66920,0.50731
123.42812,0.49627
123.18705,0.48384
122.94598,0.47416
122.70491,0.47004
122.46384,0.47013
122.22277,0.46955
121.98170,0.46533
121.74063,0.46006
121.49956,0.45738
121.25849,0.45660
121.01742,0.45518
120.77635,0.45401
120.53528,0.45715
120.29421,0.46728
120.05314,0.48434
119.81207,0.50847
119.57100,0.54154
119.32993,0.58360
119.08885,0.62833
118.84778,0.66457
118.60671,0.68509
118.36564,0.69190
118.12457,0.69091
117.88350,0.68848
117.64243,0.69226
117.40136,0.70715
117.16029,0.73056
116.91922,0.75636
116.67815,0.78246
116.43708,0.80873
116.19601,0.82965
115.95494,0.83699
115.71387,0.82966
115.47280,0.81312
115.23173,0.79050
114.99066,0.76295
114.74958,0.73478
114.50851,0.71170
114.26744,0.69800
114.02637,0.69636
113.78530,0.70501
113.54423,0.71390
113.30316,0.70912
113.06209,0.68720
112.82102,0.65942
112.57995,0.63799
112.33888,0.62754
112.09781,0.62857
111.85674,0.64183
111.61567,0.66638
111.37460,0.69497
111.13353,0.71399
110.89246,0.70994
110.65139,0.68267
110.41031,0.64745
110.16924,0.62166
109.92817,0.61797
109.68710,0.64380
109.44603,0.69818
109.20496,0.75537
108.96389,0.75232
108.72282,0.68277
108.48175,0.61149
108.24068,0.56714
107.99961,0.55272
107.75854,0.56457
107.51747,0.58968
107.27640,0.59644
107.03533,0.55987
106.79426,0.50690
106.55319,0.46934
106.31212,0.45520
106.07104,0.46107
105.82997,0.47326
105.58890,0.46637
105.34783,0.43253
105.10676,0.39647
104.86569,0.38202
104.62462,0.39345
104.38355,0.41408
104.14248,0.41646
103.90141,0.39280
103.66034,0.36341
103.41927,0.34735
103.17820,0.34873
102.93713,0.35695
102.69606,0.35259
102.45499,0.33228
102.21392,0.31571
101.97285,0.31776
101.73177,0.33212
101.49070,0.33682
101.24963,0.32235
101.00856,0.30480
100.76749,0.29994
100.52642,0.30805
100.28535,0.31537
100.04428,0.30783
99.80321,0.29217
99.56214,0.28493
99.32107,0.28871
99.08000,0.28916
98.83893,0.27617
98.59786,0.26259
98.35679,0.26266
98.11572,0.27079
97.87465,0.27180
97.63358,0.26649
97.39250,0.26847
97.15143,0.27813
96.91036,0.28010
96.66929,0.26923
96.42822,0.26277
96.18715,0.27440
95.94608,0.29554
95.70501,0.30731
95.46394,0.30828
95.22287,0.31203
94.98180,0.32210
94.74073,0.32829
94.49966,0.32652
94.25859,0.32668
94.01752,0.33422
93.77645,0.33858
93.53538,0.33025
93.29431,0.32133
93.05323,0.32325
92.81216,0.32577
92.57109,0.32052
92.33002,0.32161
92.08895,0.33498
91.84788,0.34360
91.60681,0.34219
91.36574,0.34720
91.12467,0.36118
90.88360,0.37154
90.64253,0.38041
90.40146,0.40088
90.16039,0.43157
89.91932,0.46480
89.67825,0.50391
89.43718,0.55013
89.19611,0.59232
88.95504,0.62393
88.71396,0.65309
88.47289,0.68484
88.23182,0.70922
87.99075,0.71678
87.74968,0.71078
87.50861,0.69545
87.26754,0.66893
87.02647,0.63082
86.78540,0.58685
86.54433,0.54473
86.30326,0.50819
86.06219,0.47630
85.82112,0.44504
85.58005,0.41206
85.33898,0.38044
85.09791,0.35407
84.85684,0.33174
84.61577,0.30896
84.37469,0.28488
84.13362,0.26519
83.89255,0.25541
83.65148,0.25293
83.41041,0.25025
83.16934,0.24452
82.92827,0.23752
82.68720,0.23025
82.44613,0.22475
82.20506,0.22528
81.96399,0.23114
81.72292,0.23465
81.48185,0.23050
81.24078,0.22273
80.99971,0.21830
80.75864,0.21845
80.51757,0.21994
80.27650,0.22061
80.03542,0.21934
79.79435,0.21485
79.55328,0.20859
79.31221,0.20449
79.07114,0.20403
78.83007,0.20619
78.58900,0.21026
78.34793,0.21346
78.10686,0.21005
77.86579,0.19779
77.62472,0.18198
77.38365,0.16976
77.14258,0.16363
76.90151,0.16258
76.66044,0.16602
76.41937,0.17272
76.17830,0.17821
75.93723,0.17770
75.69615,0.17122
75.45508,0.16342
75.21401,0.15778
74.97294,0.15374
74.73187,0.15045
74.49080,0.14938
74.24973,0.15163
74.00866,0.15571
73.76759,0.15956
73.52652,0.16307
73.28545,0.16764
73.04438,0.17427
72.80331,0.18124
72.56224,0.18354
72.32117,0.17722
72.08010,0.16460
71.83903,0.15234
71.59796,0.14489
71.35688,0.14302
71.11581,0.14691
70.87474,0.15692
70.63367,0.17226
70.39260,0.19062
70.15153,0.21004
69.91046,0.23173
69.66939,0.25969
69.42832,0.29275
69.18725,0.31736
68.94618,0.31724
68.70511,0.29301
68.46404,0.25987
68.22297,0.22923
67.98190,0.20359
67.74083,0.18413
67.49976,0.17207
67.25869,0.16291
67.01761,0.14871
66.77654,0.12873
66.53547,0.11124
66.29440,0.10273
66.05333,0.10267
65.81226,0.10860
65.57119,0.11954
65.33012,0.13439
65.08905,0.15181
64.84798,0.17124
64.60691,0.19136
64.36584,0.20838
64.12477,0.21794
63.88370,0.21779
63.64263,0.20821
63.40156,0.19396
63.16049,0.18432
62.91942,0.18701
62.67834,0.20191
62.43727,0.22067
62.19620,0.23262
61.95513,0.23026
61.71406,0.20856
61.47299,0.16744
61.23192,0.11669
60.99085,0.07094
60.74978,0.04088
60.50871,0.02746
60.26764,0.02317
60.02657,0.02108
59.78550,0.02213
59.54443,0.03321
59.30336,0.06118
59.06229,0.10920
58.82122,0.17745
58.58015,0.26724
58.33907,0.34009
58.09800,0.28595
57.85693,0.20125
57.61586,0.13583
57.37479,0.08659
57.13372,0.05372
56.89265,0.04445
56.65158,0.06646
56.41051,0.12390
56.16944,0.20959
55.92837,0.26156
55.68730,0.19989
55.44623,0.11322
55.20516,0.05320
54.96409,0.02666
54.72302,0.03829
54.48195,0.09383
54.24088,0.21942
53.99980,0.36803
53.75873,0.20115
53.51766,0.07054
53.27659,0.01938
53.03552,0.01947
52.79445,0.06828
52.55338,0.17858
52.31231,0.29649
52.07124,0.19043
51.83017,0.06916
51.58910,0.03107
51.34803,0.07557
51.10696,0.17132
50.86589,0.17232
50.62482,0.07964
50.38375,0.03066
50.14268,0.05593
49.90161,0.14646
49.66053,0.19182
49.41946,0.11097
49.17839,0.06442
48.93732,0.10094
48.69625,0.17535
48.45518,0.15692
48.21411,0.08508
47.97304,0.07292
47.73197,0.12354
47.49090,0.14294
47.24983,0.07511
47.00876,0.04594
46.76769,0.08093
46.52662,0.07546
46.28555,0.02857
46.04448,0.02789
45.80341,0.06247
45.56234,0.05838
45.32126,0.02217
45.08019,0.01765
44.83912,0.03330
44.59805,0.03031
44.35698,0.03310
44.11591,0.05693
43.87484,0.07099
43.63377,0.06364
43.39270,0.06169
43.15163,0.07074
42.91056,0.07278
42.66949,0.06180
42.42842,0.05201
42.18735,0.05173
41.94628,0.05029
41.70521,0.04311
41.46414,0.03952
41.22307,0.03705
40.98199,0.02737
40.74092,0.02142
40.49985,0.03585
40.25878,0.06387
40.01771,0.08475
39.77664,0.09670
39.53557,0.11094
39.29450,0.12773
39.05343,0.13124
38.81236,0.11325
38.57129,0.09234
38.33022,0.08366
38.08915,0.07990
37.84808,0.07382
37.60701,0.07428
37.36594,0.09121
37.12487,0.12107
36.88380,0.15022
36.64272,0.15674
36.40165,0.12713
36.16058,0.08517
35.91951,0.06599
35.67844,0.07886
35.43737,0.10528
35.19630,0.12368
34.95523,0.13523
34.71416,0.14707
34.47309,0.14756
34.23202,0.13105
33.99095,0.12649
33.74988,0.13214
33.50881,0.11717
33.26774,0.08224
33.02667,0.05673
32.78560,0.05723
32.54453,0.07975
32.30345,0.11044
32.06238,0.13313
31.82131,0.13211
31.58024,0.10283
31.33917,0.06396
31.09810,0.03895
30.85703,0.03158
30.61596,0.03652
30.37489,0.05483
30.13382,0.07681
29.89275,0.06778
29.65168,0.02179
29.41061,-0.00579
29.16954,0.01143
28.92847,0.04542
28.68740,0.07031
28.44633,0.07515
28.20526,0.05173
27.96418,0.01033
27.72311,-0.02246
27.48204,-0.02742
27.24097,-0.00073
26.99990,0.03203
26.75883,0.03323
26.51776,-0.00258
26.27669,-0.03711
26.03562,-0.05402
25.79455,-0.07370
25.55348,-0.09626
25.31241,-0.09063
25.07134,-0.04704
24.83027,0.00280
24.58920,0.03377
24.34813,0.04080
24.10706,0.01787
23.86599,-0.02211
23.62491,-0.02780
23.38384,0.01881
23.14277,0.05296
22.90170,0.03182
22.66063,-0.01499
22.41956,-0.04636
22.17849,-0.07462
21.93742,-0.12227
21.69635,-0.15746
21.45528,-0.13219
21.21421,-0.05895
20.97314,0.00467
20.73207,0.03600
20.49100,0.06286
20.24993,0.08958
20.00886,0.07143
19.76779,-0.00883
19.52672,-0.09778
19.28564,-0.13095
19.04457,-0.10536
18.80350,-0.06626
18.56243,-0.04129
18.32136,-0.03587
18.08029,-0.04297
17.83922,-0.03910
17.59815,-0.02073
17.35708,-0.00660
17.11601,-0.01175
16.87494,-0.03558
16.63387,-0.06181
16.39280,-0.07562
16.15173,-0.07776
15.91066,-0.07879
15.66959,-0.08088
15.42852,-0.07989
15.18745,-0.07661
14.94637,-0.07311
14.70530,-0.06907
14.46423,-0.07134
14.22316,-0.08619
13.98209,-0.11439
13.74102,-0.15292
13.49995,-0.18758
13.25888,-0.19244
13.01781,-0.16251
12.77674,-0.11891
12.53567,-0.07750
12.29460,-0.05886
12.05353,-0.08529
11.81246,-0.13275
11.57139,-0.14707
11.33032,-0.12445
11.08925,-0.08754
10.84818,-0.04978
10.60710,-0.01778
10.36603,-0.00715
10.12496,-0.02678
9.88389,-0.07627
9.64282,-0.14165
9.40175,-0.18836
9.16068,-0.18813
8.91961,-0.16448
8.67854,-0.14775
8.43747,-0.12539
8.19640,-0.10794
7.95533,-0.11180
7.71426,-0.12517
7.47319,-0.13149
7.23212,-0.15370
6.99105,-0.19991
6.74998,-0.22636
6.50891,-0.21609
6.26783,-0.19196
6.02676,-0.16795
5.78569,-0.13381
5.54462,-0.08885
5.30355,-0.05479
5.06248,-0.03624
4.82141,-0.02990
4.58034,-0.03433
4.33927,-0.05486
4.09820,-0.08878
3.85713,-0.10434
3.61606,-0.07971
3.37499,-0.04289
3.13392,-0.02394
2.89285,-0.03087
2.65178,-0.05335
2.41071,-0.07304
2.16964,-0.08771
1.92856,-0.10249
1.68749,-0.11147
1.44642,-0.10381
1.20535,-0.07830
0.96428,-0.03634
0.72321,0.02260
0.48214,0.10080
0.24107,0.16983
-0.00000,0.22560
