399.69498,1.86673
399.45391,1.90770
399.21284,1.95888
398.97177,2.02407
398.73070,2.07432
398.48963,2.08236
398.24856,2.06004
398.00749,2.04539
397.76642,2.06744
397.52535,2.12415
397.28428,2.18260
397.04321,2.21630
396.80214,2.18418
396.56107,2.11123
396.32000,2.01257
396.07892,2.00563
395.83785,2.07012
395.59678,2.05746
395.35571,2.01089
395.11464,1.97137
394.87357,1.96724
394.63250,2.01760
394.39143,2.08123
394.15036,2.15458
393.90929,2.22601
393.66822,2.18291
393.42715,2.12214
393.18608,2.04512
392.94501,1.95099
392.70394,1.91579
392.46287,1.96322
392.22180,2.04875
391.98073,2.06220
391.73965,2.00567
391.49858,1.98371
391.25751,2.03033
391.01644,2.10501
390.77537,2.16564
390.53430,2.16961
390.29323,2.10296
390.05216,2.05087
389.81109,2.03805
389.57002,2.06218
389.32895,2.13335
389.08788,2.12236
388.84681,2.09919
388.60574,2.18682
388.36467,2.29008
388.12360,2.20042
387.88253,2.06530
387.64146,2.05303
387.40038,2.11616
387.15931,2.08758
386.91824,2.01639
386.67717,1.99847
386.43610,2.03665
386.19503,2.08839
385.95396,2.12005
385.71289,2.14196
385.47182,2.24389
385.23075,2.27633
384.98968,2.13217
384.74861,1.97377
384.50754,1.84978
384.26647,1.79499
384.02540,1.78997
383.78433,1.82934
383.54326,1.90697
383.30219,1.93773
383.06111,1.97801
382.82004,2.11088
382.57897,1.96250
382.33790,2.01412
382.09683,2.11741
381.85576,2.03195
381.61469,2.03273
381.37362,2.13476
381.13255,2.12691
380.89148,2.06410
380.65041,2.13326
380.40934,2.28435
380.16827,2.47514
379.92720,2.78648
379.68613,2.33346
379.44506,2.08167
379.20399,2.05229
378.96292,2.04008
378.72184,2.05875
378.48077,1.99844
378.23970,2.06913
377.99863,2.27948
377.75756,2.26775
377.51649,2.04664
377.27542,1.92474
377.03435,2.00348
376.79328,2.29076
376.55221,2.05064
376.31114,1.83079
376.07007,1.81244
375.82900,1.93250
375.58793,2.13978
375.34686,2.25027
375.10579,2.15748
374.86472,2.00651
374.62365,1.89505
374.38257,1.85888
374.14150,1.87859
373.90043,1.94898
373.65936,2.09016
373.41829,2.24327
373.17722,2.29714
372.93615,2.17812
372.69508,2.03607
372.45401,1.99883
372.21294,2.02102
371.97187,2.02407
371.73080,1.97803
371.48973,1.91997
371.24866,1.92571
371.00759,1.97779
370.76652,1.96982
370.52545,1.88954
370.28437,1.82544
370.04330,1.79441
369.80223,1.78037
369.56116,1.78204
369.32009,1.79850
369.07902,1.81615
368.83795,1.82119
368.59688,1.79565
368.35581,1.74934
368.11474,1.70312
367.87367,1.65610
367.63260,1.60826
367.39153,1.56841
367.15046,1.54075
366.90939,1.53088
366.66832,1.55439
366.42725,1.62068
366.18618,1.70130
365.94510,1.72038
365.70403,1.66589
365.46296,1.61156
365.22189,1.59387
364.98082,1.60996
364.73975,1.63018
364.49868,1.62355
364.25761,1.60036
364.01654,1.59009
363.77547,1.60087
363.53440,1.61576
363.29333,1.61412
363.05226,1.59149
362.81119,1.56083
362.57012,1.53575
362.32905,1.51769
362.08798,1.50274
361.84691,1.48963
361.60583,1.48204
361.36476,1.48151
361.12369,1.47900
360.88262,1.46694
360.64155,1.45215
360.40048,1.44114
360.15941,1.43010
359.91834,1.41846
359.67727,1.41519
359.43620,1.43221
359.19513,1.47356
358.95406,1.51954
358.71299,1.53547
358.47192,1.51131
358.23085,1.47239
357.98978,1.44627
357.74871,1.44100
357.50764,1.45338
357.26656,1.47816
357.02549,1.50625
356.78442,1.52754
356.54335,1.54099
356.30228,1.54636
356.06121,1.53517
355.82014,1.50605
355.57907,1.47384
355.33800,1.45769
355.09693,1.46175
354.85586,1.47212
354.61479,1.47997
354.37372,1.48697
354.13265,1.49006
353.89158,1.49377
353.65051,1.50266
353.40944,1.50459
353.16837,1.48922
352.92729,1.46002
352.68622,1.42925
352.44515,1.41015
352.20408,1.40723
351.96301,1.41566
351.72194,1.42507
351.48087,1.42591
351.23980,1.42122
350.99873,1.42959
350.75766,1.46132
350.51659,1.49879
350.27552,1.50733
350.03445,1.47686
349.79338,1.43853
349.55231,1.42883
349.31124,1.45972
349.07017,1.51007
348.82910,1.53607
348.58802,1.51808
348.34695,1.48610
348.10588,1.47622
347.86481,1.49646
347.62374,1.52756
347.38267,1.53984
347.14160,1.52749
346.90053,1.51606
346.65946,1.52639
346.41839,1.55675
346.17732,1.59603
345.93625,1.63731
345.69518,1.67837
345.45411,1.71669
345.21304,1.73572
344.97197,1.71304
344.73090,1.66848
344.48983,1.63756
344.24875,1.63598
344.00768,1.64970
343.76661,1.66439
343.52554,1.68785
343.28447,1.73294
343.04340,1.79027
342.80233,1.82549
342.56126,1.80444
342.32019,1.73004
342.07912,1.65280
341.83805,1.60998
341.59698,1.59776
341.35591,1.59311
341.11484,1.58706
340.87377,1.59057
340.63270,1.61475
340.39163,1.65314
340.15056,1.68467
339.90948,1.70059
339.66841,1.71512
339.42734,1.75766
339.18627,1.86249
338.94520,2.06718
338.70413,2.38965
338.46306,2.59315
338.22199,2.38881
337.98092,2.10843
337.73985,2.01079
337.49878,2.02383
337.25771,2.03386
337.01664,2.01766
336.77557,2.00242
336.53450,2.00247
336.29343,2.00825
336.05236,2.02158
335.81129,2.06823
335.57021,2.12532
335.32914,2.07227
335.08807,1.94179
334.84700,1.88549
334.60593,1.89413
334.36486,1.89613
334.12379,1.82635
333.88272,1.75891
333.64165,1.74321
333.40058,1.77442
333.15951,1.83557
332.91844,1.90679
332.67737,1.94336
332.43630,1.90535
332.19523,1.81622
331.95416,1.72259
331.71309,1.67501
331.47202,1.68919
331.23094,1.74203
330.98987,1.80691
330.74880,1.83893
330.50773,1.78971
330.26666,1.69808
330.02559,1.61083
329.78452,1.55940
329.54345,1.56902
329.30238,1.64201
329.06131,1.73048
328.82024,1.75855
328.57917,1.71925
328.33810,1.67718
328.09703,1.67907
327.85596,1.72446
327.61489,1.78616
327.37382,1.81557
327.13275,1.78228
326.89167,1.74378
326.65060,1.76376
326.40953,1.84064
326.16846,1.90173
325.92739,1.85730
325.68632,1.74646
325.44525,1.67603
325.20418,1.67196
324.96311,1.70157
324.72204,1.73374
324.48097,1.75793
324.23990,1.77371
323.99883,1.79403
323.75776,1.83734
323.51669,1.91336
323.27562,1.98997
323.03455,1.98481
322.79348,1.91213
322.55240,1.88425
322.31133,1.90883
322.07026,1.87347
321.82919,1.88544
321.58812,2.02891
321.34705,2.11085
321.10598,2.10289
320.86491,2.06111
320.62384,2.08097
320.38277,2.19769
320.14170,2.29336
319.90063,2.31246
319.65956,2.08787
319.41849,1.92299
319.17742,1.87718
318.93635,1.92350
318.69528,2.03822
318.45421,2.08606
318.21313,2.03013
317.97206,2.00011
317.73099,1.91918
317.48992,1.87188
317.24885,1.93593
317.00778,2.03192
316.76671,1.99194
316.52564,1.87667
316.28457,1.84835
316.04350,1.92497
315.80243,1.90612
315.56136,1.87529
315.32029,1.84757
315.07922,1.79358
314.83815,1.85428
314.59708,2.04716
314.35601,2.26980
314.11494,2.38442
313.87386,2.53811
313.63279,2.38478
313.39172,2.29565
313.15065,2.22354
312.90958,2.15901
312.66851,1.99129
312.42744,1.89166
312.18637,1.86838
311.94530,1.89934
311.70423,1.99245
311.46316,2.10705
311.22209,2.15685
310.98102,2.08630
310.73995,1.97508
310.49888,1.93160
310.25781,1.97679
310.01674,2.07705
309.77567,2.16334
309.53459,2.17870
309.29352,2.17215
309.05245,2.33170
308.81138,2.49085
308.57031,2.21437
308.32924,2.06391
308.08817,1.96223
307.84710,1.87683
307.60603,1.85562
307.36496,1.87440
307.12389,1.90009
306.88282,1.94350
306.64175,1.95495
306.40068,1.88821
306.15961,1.80703
305.91854,1.74292
305.67747,1.69289
305.43640,1.65862
305.19532,1.61929
304.95425,1.56299
304.71318,1.52329
304.47211,1.52534
304.23104,1.55892
303.98997,1.58544
303.74890,1.56737
303.50783,1.51704
303.26676,1.47807
303.02569,1.47164
302.78462,1.48374
302.54355,1.48554
302.30248,1.46258
302.06141,1.42444
301.82034,1.39329
301.57927,1.38162
301.33820,1.38309
301.09713,1.38564
300.85605,1.38344
300.61498,1.37331
300.37391,1.35581
300.13284,1.33856
299.89177,1.32975
299.65070,1.33011
299.40963,1.33545
299.16856,1.34307
298.92749,1.34930
298.68642,1.34632
298.44535,1.32664
298.20428,1.29490
297.96321,1.26898
297.72214,1.26243
297.48107,1.27059
297.24000,1.27665
296.99893,1.27043
296.75786,1.25748
296.51678,1.24908
296.27571,1.24922
296.03464,1.25274
295.79357,1.25135
295.55250,1.24253
295.31143,1.23160
295.07036,1.22282
294.82929,1.21431
294.58822,1.20253
294.34715,1.18821
294.10608,1.17659
293.86501,1.17159
293.62394,1.17193
293.38287,1.17356
293.14180,1.17260
292.90073,1.16554
292.65966,1.15178
292.41859,1.13703
292.17751,1.12983
291.93644,1.13325
291.69537,1.14090
291.45430,1.14331
291.21323,1.13813
290.97216,1.13073
290.73109,1.12590
290.49002,1.12354
290.24895,1.12260
290.00788,1.12456
289.76681,1.12990
289.52574,1.13339
289.28467,1.12888
289.04360,1.11865
288.80253,1.11088
288.56146,1.10858
288.32039,1.10901
288.07932,1.11203
287.83824,1.11845
287.59717,1.12283
287.35610,1.11907
287.11503,1.10999
286.87396,1.10326
286.63289,1.10215
286.39182,1.10328
286.15075,1.10238
285.90968,1.09946
285.66861,1.09658
285.42754,1.09493
285.18647,1.09366
284.94540,1.09021
284.70433,1.08198
284.46326,1.07025
284.22219,1.06167
283.98112,1.06152
283.74005,1.06588
283.49897,1.06510
283.25790,1.05697
283.01683,1.04912
282.77576,1.04805
282.53469,1.05336
282.29362,1.06040
282.05255,1.06526
281.81148,1.06666
281.57041,1.06515
281.32934,1.06256
281.08827,1.06039
280.84720,1.05827
280.60613,1.05550
280.36506,1.05289
280.12399,1.05207
279.88292,1.05386
279.64185,1.05799
279.40078,1.06281
279.15970,1.06623
278.91863,1.06786
278.67756,1.06884
278.43649,1.06913
278.19542,1.06693
277.95435,1.06161
277.71328,1.05625
277.47221,1.05670
277.23114,1.06627
276.99007,1.08089
276.74900,1.09134
276.50793,1.09147
276.26686,1.08347
276.02579,1.07402
275.78472,1.06708
275.54365,1.06278
275.30258,1.06068
275.06151,1.06045
274.82043,1.06060
274.57936,1.05987
274.33829,1.05930
274.09722,1.05967
273.85615,1.05850
273.61508,1.05224
273.37401,1.04172
273.13294,1.03355
272.89187,1.03445
272.65080,1.04468
272.40973,1.05812
272.16866,1.06850
271.92759,1.07495
271.68652,1.07974
271.44545,1.08136
271.20438,1.07547
270.96331,1.06361
270.72224,1.05390
270.48116,1.05143
270.24009,1.05451
269.99902,1.06039
269.75795,1.06746
269.51688,1.07299
269.27581,1.07518
269.03474,1.07509
268.79367,1.07398
268.55260,1.07207
268.31153,1.07057
268.07046,1.07320
267.82939,1.08072
267.58832,1.08632
267.34725,1.08351
267.10618,1.07667
266.86511,1.07653
266.62404,1.08821
266.38297,1.10801
266.14189,1.12692
265.90082,1.13408
265.65975,1.12555
265.41868,1.11203
265.17761,1.10812
264.93654,1.11678
264.69547,1.12956
264.45440,1.13840
264.21333,1.14237
263.97226,1.14498
263.73119,1.15078
263.49012,1.16343
263.24905,1.18299
263.00798,1.20409
262.76691,1.21898
262.52584,1.22675
262.28477,1.23461
262.04370,1.24472
261.80262,1.25026
261.56155,1.24912
261.32048,1.25030
261.07941,1.26213
260.83834,1.28363
260.59727,1.30790
260.35620,1.32945
260.11513,1.34886
259.87406,1.36870
259.63299,1.38467
259.39192,1.38983
259.15085,1.38824
258.90978,1.39163
258.66871,1.40377
258.42764,1.41997
258.18657,1.43922
257.94550,1.46400
257.70443,1.48876
257.46335,1.50000
257.22228,1.49470
256.98121,1.49441
256.74014,1.52300
256.49907,1.57815
256.25800,1.63803
256.01693,1.69031
255.77586,1.73575
255.53479,1.77168
255.29372,1.79098
255.05265,1.79164
254.81158,1.78659
254.57051,1.78892
254.32944,1.81466
254.08837,1.88907
253.84730,2.01513
253.60623,2.13955
253.36516,2.20366
253.12408,2.21291
252.88301,2.13783
252.64194,2.06076
252.40087,2.04709
252.15980,2.12292
251.91873,2.22760
251.67766,2.22382
251.43659,2.19226
251.19552,2.17292
250.95445,2.20142
250.71338,2.32465
250.47231,2.53431
250.23124,2.61068
249.99017,2.49639
249.74910,2.54667
249.50803,2.55581
249.26696,2.40354
249.02589,2.38789
248.78481,2.38702
248.54374,2.34341
248.30267,2.25041
248.06160,2.22282
247.82053,2.28800
247.57946,2.27647
247.33839,2.23894
247.09732,2.27831
246.85625,2.38874
246.61518,2.43125
246.37411,2.32963
246.13304,2.22249
245.89197,2.20806
245.65090,2.21330
245.40983,2.12216
245.16876,1.99022
244.92769,1.90532
244.68661,1.87682
244.44554,1.87429
244.20447,1.86195
243.96340,1.82311
243.72233,1.75558
243.48126,1.66772
243.24019,1.57811
242.99912,1.50160
242.75805,1.44184
242.51698,1.39436
242.27591,1.35593
242.03484,1.32825
241.79377,1.30697
241.55270,1.27797
241.31163,1.23418
241.07056,1.18844
240.82949,1.15787
240.58842,1.14361
240.34734,1.13159
240.10627,1.10942
239.86520,1.07908
239.62413,1.05096
239.38306,1.03129
239.14199,1.01760
238.90092,1.00361
238.65985,0.98662
238.41878,0.96841
238.17771,0.95063
237.93664,0.93336
237.69557,0.91699
237.45450,0.90287
237.21343,0.89147
236.97236,0.88144
236.73129,0.87041
236.49022,0.85742
236.24915,0.84491
236.00807,0.83666
235.76700,0.83375
235.52593,0.83310
235.28486,0.83040
235.04379,0.82460
234.80272,0.81751
234.56165,0.81059
234.32058,0.80456
234.07951,0.80022
233.83844,0.79746
233.59737,0.79481
233.35630,0.79125
233.11523,0.78803
232.87416,0.78694
232.63309,0.78668
232.39202,0.78365
232.15095,0.77758
231.90988,0.77258
231.66880,0.77100
231.42773,0.76978
231.18666,0.76451
230.94559,0.75493
230.70452,0.74373
230.46345,0.73331
230.22238,0.72653
229.98131,0.72660
229.74024,0.73330
229.49917,0.74178
229.25810,0.74712
229.01703,0.74786
228.77596,0.74471
228.53489,0.74014
228.29382,0.73771
228.05275,0.73771
227.81168,0.73638
227.57061,0.73185
227.32953,0.72624
227.08846,0.72135
226.84739,0.71743
226.60632,0.71494
226.36525,0.71419
226.12418,0.71508
225.88311,0.71779
225.64204,0.72142
225.40097,0.72302
225.15990,0.72073
224.91883,0.71726
224.67776,0.71704
224.43669,0.72125
224.19562,0.72725
223.95455,0.73184
223.71348,0.73415
223.47241,0.73556
223.23134,0.73750
222.99026,0.74005
222.74919,0.74245
222.50812,0.74404
222.26705,0.74459
222.02598,0.74485
221.78491,0.74678
221.54384,0.75163
221.30277,0.75774
221.06170,0.76253
220.82063,0.76653
220.57956,0.77273
220.33849,0.78228
220.09742,0.79333
219.85635,0.80270
219.61528,0.80818
219.37421,0.81020
219.13314,0.81127
218.89207,0.81373
218.65099,0.81887
218.40992,0.82750
218.16885,0.83973
217.92778,0.85434
217.68671,0.86929
217.44564,0.88277
217.20457,0.89413
216.96350,0.90422
216.72243,0.91379
216.48136,0.92172
216.24029,0.92674
215.99922,0.93048
215.75815,0.93632
215.51708,0.94531
215.27601,0.95578
215.03494,0.96649
214.79387,0.97654
214.55280,0.98293
214.31172,0.98339
214.07065,0.98151
213.82958,0.98424
213.58851,0.99389
213.34744,1.00587
213.10637,1.01473
212.86530,1.01993
212.62423,1.02496
212.38316,1.03264
212.14209,1.04176
211.90102,1.04848
211.65995,1.05117
211.41888,1.05139
211.17781,1.04922
210.93674,1.04282
210.69567,1.03546
210.45460,1.03547
210.21353,1.04549
209.97245,1.05702
209.73138,1.05922
209.49031,1.05082
209.24924,1.03955
209.00817,1.03222
208.76710,1.02995
208.52603,1.02993
208.28496,1.02918
208.04389,1.02821
207.80282,1.02915
207.56175,1.02956
207.32068,1.02337
207.07961,1.00932
206.83854,0.99279
206.59747,0.97866
206.35640,0.96775
206.11533,0.95975
205.87426,0.95486
205.63318,0.95233
205.39211,0.94963
205.15104,0.94319
204.90997,0.93127
204.66890,0.91667
204.42783,0.90366
204.18676,0.89223
203.94569,0.88006
203.70462,0.86942
203.46355,0.86515
203.22248,0.86643
202.98141,0.86676
202.74034,0.86161
202.49927,0.85121
202.25820,0.83664
202.01713,0.81909
201.77606,0.80178
201.53499,0.78783
201.29391,0.77680
201.05284,0.76625
200.81177,0.75607
200.57070,0.74762
200.32963,0.73959
200.08856,0.72949
199.84749,0.71869
199.60642,0.71112
199.36535,0.70691
199.12428,0.70156
198.88321,0.69212
198.64214,0.68109
198.40107,0.67261
198.16000,0.66707
197.91893,0.66146
197.67786,0.65373
197.43679,0.64497
197.19572,0.63735
196.95464,0.63179
196.71357,0.62784
196.47250,0.62458
196.23143,0.62114
195.99036,0.61634
195.74929,0.60896
195.50822,0.59922
195.26715,0.58934
195.02608,0.58173
194.78501,0.57657
194.54394,0.57159
194.30287,0.56512
194.06180,0.55892
193.82073,0.55614
193.57966,0.55672
193.33859,0.55701
193.09752,0.55422
192.85645,0.54928
192.61537,0.54398
192.37430,0.53829
192.13323,0.53172
191.89216,0.52554
191.65109,0.52197
191.41002,0.52138
191.16895,0.52163
190.92788,0.52091
190.68681,0.51996
190.44574,0.52003
190.20467,0.51995
189.96360,0.51725
189.72253,0.51166
189.48146,0.50552
189.24039,0.50117
188.99932,0.49930
188.75825,0.49913
188.51718,0.49903
188.27610,0.49754
188.03503,0.49519
187.79396,0.49413
187.55289,0.49494
187.31182,0.49525
187.07075,0.49276
186.82968,0.48833
186.58861,0.48484
186.34754,0.48400
186.10647,0.48495
185.86540,0.48551
185.62433,0.48451
185.38326,0.48323
185.14219,0.48327
184.90112,0.48384
184.66005,0.48329
184.41898,0.48227
184.17791,0.48243
183.93683,0.48323
183.69576,0.48294
183.45469,0.48169
183.21362,0.48110
182.97255,0.48220
182.73148,0.48515
182.49041,0.48941
182.24934,0.49341
182.00827,0.49545
181.76720,0.49526
181.52613,0.49414
181.28506,0.49369
181.04399,0.49426
180.80292,0.49487
180.56185,0.49512
180.32078,0.49612
180.07971,0.49856
179.83864,0.50130
179.59756,0.50341
179.35649,0.50569
179.11542,0.50946
178.87435,0.51523
178.63328,0.52281
178.39221,0.53133
178.15114,0.53961
177.91007,0.54760
177.66900,0.55639
177.42793,0.56650
177.18686,0.57743
176.94579,0.58884
176.70472,0.60116
176.46365,0.61448
176.22258,0.62752
175.98151,0.63831
175.74044,0.64641
175.49937,0.65389
175.25829,0.66384
175.01722,0.67820
174.77615,0.69683
174.53508,0.71789
174.29401,0.73851
174.05294,0.75595
173.81187,0.76918
173.57080,0.77922
173.32973,0.78693
173.08866,0.79135
172.84759,0.79261
172.60652,0.79444
172.36545,0.80032
172.12438,0.80913
171.88331,0.81683
171.64224,0.82043
171.40117,0.81926
171.16010,0.81461
170.91902,0.80798
170.67795,0.79994
170.43688,0.79241
170.19581,0.78913
169.95474,0.79042
169.71367,0.79110
169.47260,0.78673
169.23153,0.77893
168.99046,0.77181
168.74939,0.76629
168.50832,0.76126
168.26725,0.75685
168.02618,0.75363
167.78511,0.75153
167.54404,0.75074
167.30297,0.75077
167.06190,0.74915
166.82083,0.74500
166.57975,0.74266
166.33868,0.74699
166.09761,0.75660
165.85654,0.76589
165.61547,0.77246
165.37440,0.77880
165.13333,0.78680
164.89226,0.79396
164.65119,0.79633
164.41012,0.79481
164.16905,0.79531
163.92798,0.80241
163.68691,0.81513
163.44584,0.82865
163.20477,0.83917
162.96370,0.84661
162.72263,0.85240
162.48156,0.85672
162.24048,0.85915
161.99941,0.86047
161.75834,0.86165
161.51727,0.86186
161.27620,0.86040
161.03513,0.85972
160.79406,0.86296
160.55299,0.86923
160.31192,0.87409
160.07085,0.87409
159.82978,0.86887
159.58871,0.86009
159.34764,0.85029
159.10657,0.84203
158.86550,0.83644
158.62443,0.83295
158.38336,0.83108
158.14229,0.83069
157.90121,0.82943
157.66014,0.82336
157.41907,0.81220
157.17800,0.80090
156.93693,0.79458
156.69586,0.79406
156.45479,0.79641
156.21372,0.79779
155.97265,0.79574
155.73158,0.79017
155.49051,0.78307
155.24944,0.77670
155.00837,0.77068
154.76730,0.76220
154.52623,0.75025
154.28516,0.73801
154.04409,0.72855
153.80302,0.72001
153.56194,0.70830
153.32087,0.69352
153.07980,0.67990
152.83873,0.67002
152.59766,0.66219
152.35659,0.65296
152.11552,0.64085
151.87445,0.62706
151.63338,0.61306
151.39231,0.59900
151.15124,0.58494
150.91017,0.57184
150.66910,0.55959
150.42803,0.54660
150.18696,0.53288
149.94589,0.52093
149.70482,0.51230
149.46375,0.50560
149.22267,0.49847
148.98160,0.49029
148.74053,0.48270
148.49946,0.47778
148.25839,0.47613
148.01732,0.47637
147.77625,0.47618
147.53518,0.47429
147.29411,0.47140
147.05304,0.46884
146.81197,0.46714
146.57090,0.46674
146.32983,0.46891
146.08876,0.47393
145.84769,0.47962
145.60662,0.48355
145.36555,0.48564
145.12448,0.48739
144.88340,0.48995
144.64233,0.49345
144.40126,0.49733
144.16019,0.50105
143.91912,0.50428
143.67805,0.50630
143.43698,0.50563
143.19591,0.50125
142.95484,0.49417
142.71377,0.48655
142.47270,0.47940
142.23163,0.47230
141.99056,0.46505
141.74949,0.45774
141.50842,0.44955
141.26735,0.44015
141.02628,0.43173
140.78521,0.42695
140.54413,0.42563
140.30306,0.42541
140.06199,0.42482
139.82092,0.42395
139.57985,0.42346
139.33878,0.42395
139.09771,0.42571
138.85664,0.42866
138.61557,0.43285
138.37450,0.43848
138.13343,0.44554
137.89236,0.45377
137.65129,0.46302
137.41022,0.47361
137.16915,0.48579
136.92808,0.49906
136.68701,0.51280
136.44594,0.52742
136.20486,0.54375
135.96379,0.56152
135.72272,0.58012
135.48165,0.60035
135.24058,0.62390
134.99951,0.65113
134.75844,0.68038
134.51737,0.70899
134.27630,0.73496
134.03523,0.75823
133.79416,0.78032
133.55309,0.80240
133.31202,0.82392
133.07095,0.84324
132.82988,0.86047
132.58881,0.87901
132.34774,0.90179
132.10667,0.92563
131.86559,0.94197
131.62452,0.94542
131.38345,0.93925
131.14238,0.92905
130.90131,0.91585
130.66024,0.89889
130.41917,0.88057
130.17810,0.86506
129.93703,0.85426
129.69596,0.84575
129.45489,0.83392
129.21382,0.81444
128.97275,0.78781
128.73168,0.75658
128.49061,0.72232
128.24954,0.68771
128.00847,0.65730
127.76740,0.63363
127.52632,0.61508
127.28525,0.59784
127.04418,0.57869
126.80311,0.55657
126.56204,0.53337
126.32097,0.51205
126.07990,0.49443
125.83883,0.48120
125.59776,0.47235
125.35669,0.46615
125.11562,0.45910
124.87455,0.44851
124.63348,0.43482
124.39241,0.42033
124.15134,0.40605
123.91027,0.39177
123.66920,0.37949
123.42812,0.37313
123.18705,0.37291
122.94598,0.37363
122.70491,0.37067
122.46384,0.36537
122.22277,0.36187
121.98170,0.36125
121.74063,0.36140
121.49956,0.36083
121.25849,0.35993
121.01742,0.35972
120.77635,0.36184
120.53528,0.36831
120.29421,0.37957
120.05314,0.39321
119.81207,0.40578
119.57100,0.41601
119.32993,0.42649
119.08885,0.44181
118.84778,0.46407
118.60671,0.49112
118.36564,0.51943
118.12457,0.54677
117.88350,0.57165
117.64243,0.59323
117.40136,0.61242
117.16029,0.62950
116.91922,0.64159
116.67815,0.64586
116.43708,0.64381
116.19601,0.63977
115.95494,0.63669
115.71387,0.63422
115.47280,0.62934
115.23173,0.61907
114.99066,0.60356
114.74958,0.58627
114.50851,0.57076
114.26744,0.55831
114.02637,0.54953
113.78530,0.54604
113.54423,0.54753
113.30316,0.54900
113.06209,0.54501
112.82102,0.53655
112.57995,0.53001
112.33888,0.52960
112.09781,0.53416
111.85674,0.54085
111.61567,0.54828
111.37460,0.55598
111.13353,0.56285
110.89246,0.56731
110.65139,0.56892
110.41031,0.56885
110.16924,0.56794
109.92817,0.56438
109.68710,0.55552
109.44603,0.54213
109.20496,0.52784
108.96389,0.51380
108.72282,0.49751
108.48175,0.47817
108.24068,0.45972
107.99961,0.44654
107.75854,0.43774
107.51747,0.42784
107.27640,0.41326
107.03533,0.39605
106.79426,0.38070
106.55319,0.36895
106.31212,0.35905
106.07104,0.34934
105.82997,0.34050
105.58890,0.33349
105.34783,0.32687
105.10676,0.31817
104.86569,0.30775
104.62462,0.29873
104.38355,0.29267
104.14248,0.28774
103.90141,0.28223
103.66034,0.27727
103.41927,0.27436
103.17820,0.27170
102.93713,0.26551
102.69606,0.25471
102.45499,0.24241
102.21392,0.23275
101.97285,0.22731
101.73177,0.22451
101.49070,0.22165
101.24963,0.21775
101.00856,0.21448
100.76749,0.21381
100.52642,0.21497
100.28535,0.21460
100.04428,0.21037
99.80321,0.20362
99.56214,0.19745
99.32107,0.19330
99.08000,0.19101
98.83893,0.19068
98.59786,0.19213
98.35679,0.19345
98.11572,0.19282
97.87465,0.19078
97.63358,0.18930
97.39250,0.18938
97.15143,0.19089
96.91036,0.19338
96.66929,0.19665
96.42822,0.20114
96.18715,0.20716
95.94608,0.21366
95.70501,0.21923
95.46394,0.22408
95.22287,0.22926
94.98180,0.23459
94.74073,0.23889
94.49966,0.24175
94.25859,0.24383
94.01752,0.24599
93.77645,0.24818
93.53538,0.24904
93.29431,0.24766
93.05323,0.24542
92.81216,0.24393
92.57109,0.24224
92.33002,0.23885
92.08895,0.23517
91.84788,0.23434
91.60681,0.23772
91.36574,0.24505
91.12467,0.25668
90.88360,0.27307
90.64253,0.29313
90.40146,0.31542
90.16039,0.34113
89.91932,0.37335
89.67825,0.41330
89.43718,0.45908
89.19611,0.50656
88.95504,0.54938
88.71396,0.58013
88.47289,0.59500
88.23182,0.59462
87.99075,0.58009
87.74968,0.55390
87.50861,0.52247
87.26754,0.49166
87.02647,0.46152
86.78540,0.42914
86.54433,0.39475
86.30326,0.36252
86.06219,0.33629
85.82112,0.31629
85.58005,0.29949
85.33898,0.28264
85.09791,0.26507
84.85684,0.24833
84.61577,0.23379
84.37469,0.22114
84.13362,0.20922
83.89255,0.19746
83.65148,0.18619
83.41041,0.17631
83.16934,0.16837
82.92827,0.16183
82.68720,0.15596
82.44613,0.15120
82.20506,0.14788
81.96399,0.14475
81.72292,0.14055
81.48185,0.13646
81.24078,0.13485
80.99971,0.13593
80.75864,0.13729
80.51757,0.13694
80.27650,0.13521
80.03542,0.13310
79.79435,0.13048
79.55328,0.12706
79.31221,0.12408
79.07114,0.12268
78.83007,0.12159
78.58900,0.11876
78.34793,0.11402
78.10686,0.10864
77.86579,0.10378
77.62472,0.10027
77.38365,0.09853
77.14258,0.09803
76.90151,0.09752
76.66044,0.09595
76.41937,0.09304
76.17830,0.08990
75.93723,0.08862
75.69615,0.08988
75.45508,0.09182
75.21401,0.09266
74.97294,0.09321
74.73187,0.09482
74.49080,0.09660
74.24973,0.09682
74.00866,0.09572
73.76759,0.09428
73.52652,0.09171
73.28545,0.08758
73.04438,0.08423
72.80331,0.08354
72.56224,0.08394
72.32117,0.08411
72.08010,0.08595
71.83903,0.09034
71.59796,0.09443
71.35688,0.09574
71.11581,0.09530
70.87474,0.09584
70.63367,0.09948
70.39260,0.10693
70.15153,0.11748
69.91046,0.13021
69.66939,0.14404
69.42832,0.15597
69.18725,0.16239
68.94618,0.16285
68.70511,0.15940
68.46404,0.15332
68.22297,0.14496
67.98190,0.13459
67.74083,0.12242
67.49976,0.10984
67.25869,0.09959
67.01761,0.09280
66.77654,0.08771
66.53547,0.08237
66.29440,0.07715
66.05333,0.07380
65.81226,0.07329
65.57119,0.07529
65.33012,0.07905
65.08905,0.08375
64.84798,0.08844
64.60691,0.09279
64.36584,0.09761
64.12477,0.10344
63.88370,0.10916
63.64263,0.11264
63.40156,0.11237
63.16049,0.10833
62.91942,0.10171
62.67834,0.09418
62.43727,0.08706
62.19620,0.08056
61.95513,0.07415
61.71406,0.06765
61.47299,0.06153
61.23192,0.05583
60.99085,0.05045
60.74978,0.04699
60.50871,0.04808
60.26764,0.05395
60.02657,0.06131
59.78550,0.06671
59.54443,0.06978
59.30336,0.07203
59.06229,0.07390
58.82122,0.07491
58.58015,0.07516
58.33907,0.07505
58.09800,0.07483
57.85693,0.07500
57.61586,0.07519
57.37479,0.07339
57.13372,0.06864
56.89265,0.06338
56.65158,0.06052
56.41051,0.06014
56.16944,0.06040
55.92837,0.06031
55.68730,0.06069
55.44623,0.06301
55.20516,0.06740
54.96409,0.07207
54.72302,0.07483
54.48195,0.07516
54.24088,0.07409
53.99980,0.07214
53.75873,0.06860
53.51766,0.06355
53.27659,0.05915
53.03552,0.05766
52.79445,0.05895
52.55338,0.06096
52.31231,0.06139
52.07124,0.05884
51.83017,0.05393
51.58910,0.04921
51.34803,0.04644
51.10696,0.04477
50.86589,0.04281
50.62482,0.04085
50.38375,0.04052
50.14268,0.04317
49.90161,0.04864
49.66053,0.05475
49.41946,0.05838
49.17839,0.05807
48.93732,0.05534
48.69625,0.05278
48.45518,0.05159
48.21411,0.05062
47.97304,0.04691
47.73197,0.03827
47.49090,0.02686
47.24983,0.01868
47.00876,0.01763
46.76769,0.02130
46.52662,0.02475
46.28555,0.02576
46.04448,0.02555
45.80341,0.02708
45.56234,0.03327
45.32126,0.04388
45.08019,0.05293
44.83912,0.05339
44.59805,0.04569
44.35698,0.03706
44.11591,0.03124
43.87484,0.02512
43.63377,0.01730
43.39270,0.01213
43.15163,0.01354
42.91056,0.02087
42.66949,0.03038
42.42842,0.03699
42.18735,0.03727
41.94628,0.03400
41.70521,0.03269
41.46414,0.03253
41.22307,0.02888
40.98199,0.02371
40.74092,0.02448
40.49985,0.03265
40.25878,0.04153
40.01771,0.04579
39.77664,0.04689
39.53557,0.04806
39.29450,0.04973
39.05343,0.05153
38.81236,0.05519
38.57129,0.06246
38.33022,0.07127
38.08915,0.07697
37.84808,0.07784
37.60701,0.07495
37.36594,0.06782
37.12487,0.05754
36.88380,0.05167
36.64272,0.05636
36.40165,0.06706
36.16058,0.07550
35.91951,0.08229
35.67844,0.08986
35.43737,0.08973
35.19630,0.07497
34.95523,0.05871
34.71416,0.06242
34.47309,0.08796
34.23202,0.11462
33.99095,0.11887
33.74988,0.09631
33.50881,0.06854
33.26774,0.06166
33.02667,0.08325
32.78560,0.11816
32.54453,0.13782
32.30345,0.12659
32.06238,0.09606
31.82131,0.06776
31.58024,0.05496
31.33917,0.05582
31.09810,0.05577
30.85703,0.04141
30.61596,0.01357
30.37489,-0.01062
30.13382,-0.01232
29.89275,0.00537
29.65168,0.02131
29.41061,0.01769
29.16954,-0.00214
28.92847,-0.01997
28.68740,-0.03015
28.44633,-0.03322
28.20526,-0.00988
27.96418,0.05130
27.72311,0.12415
27.48204,0.18567
27.24097,0.21581
26.99990,0.19108
26.75883,0.12197
26.51776,0.04826
26.27669,-0.00174
26.03562,-0.03365
25.79455,-0.06531
25.55348,-0.08446
25.31241,-0.07519
25.07134,-0.03829
24.83027,0.04153
24.58920,0.13688
24.34813,0.19592
24.10706,0.20558
23.86599,0.17890
23.62491,0.15192
23.38384,0.16310
23.14277,0.19518
22.90170,0.13669
22.66063,-0.03836
22.41956,-0.03989
22.17849,0.06934
21.93742,0.11488
21.69635,0.08165
21.45528,0.11083
21.21421,0.15116
20.97314,0.15856
20.73207,0.16543
20.49100,0.20624
20.24993,0.21727
20.00886,0.17445
19.76779,0.13568
19.52672,0.13678
19.28564,0.12709
19.04457,0.08893
18.80350,0.11623
18.56243,0.09748
18.32136,0.00456
18.08029,0.12677
17.83922,0.29847
17.59815,0.27513
17.35708,0.12468
17.11601,0.03352
16.87494,0.04994
16.63387,0.11468
16.39280,0.18243
16.15173,0.26256
15.91066,0.38065
15.66959,0.46527
15.42852,0.44542
15.18745,0.34044
14.94637,0.22978
14.70530,0.15617
14.46423,0.04031
14.22316,-0.04823
13.98209,0.09159
13.74102,0.40259
13.49995,0.66986
13.25888,0.52121
13.01781,0.31155
12.77674,0.15707
12.53567,0.19207
12.29460,0.17676
12.05353,0.22574
11.81246,0.34694
11.57139,0.18449
11.33032,0.08705
11.08925,0.12443
10.84818,0.20597
10.60710,-0.03273
10.36603,-0.07589
10.12496,-0.11114
9.88389,-0.20695
9.64282,-0.32916
9.40175,-0.21888
9.16068,-0.03953
8.91961,0.00618
8.67854,0.03882
8.43747,0.06346
8.19640,0.07215
7.95533,0.03622
7.71426,-0.01422
7.47319,-0.01578
7.23212,0.01080
6.99105,-0.02036
6.74998,0.01550
6.50891,0.10866
6.26783,0.07017
6.02676,-0.05708
5.78569,0.19233
5.54462,0.41571
5.30355,0.24199
5.06248,0.15184
4.82141,0.15014
4.58034,0.00054
4.33927,-0.36113
4.09820,-0.41828
3.85713,-0.19757
3.61606,-0.09443
3.37499,-0.02654
3.13392,-0.01658
2.89285,-0.17427
2.65178,-0.17831
2.41071,0.08424
2.16964,0.06247
1.92856,-0.16945
1.68749,-0.17239
1.44642,-0.16342
1.20535,-0.27182
0.96428,-0.39944
0.72321,-0.37220
0.48214,-0.22957
0.24107,-0.11050
-0.00000,-0.15942
