399.69498,1.50653
399.45391,1.50825
399.21284,1.51339
398.97177,1.51238
398.73070,1.50565
398.48963,1.50314
398.24856,1.51062
398.00749,1.52488
397.76642,1.53638
397.52535,1.53487
397.28428,1.51944
397.04321,1.50359
396.80214,1.50246
396.56107,1.51758
396.32000,1.53521
396.07892,1.53800
395.83785,1.52333
395.59678,1.50530
395.35571,1.49774
395.11464,1.50138
394.87357,1.50588
394.63250,1.50356
394.39143,1.49726
394.15036,1.49199
393.90929,1.49093
393.66822,1.49668
393.42715,1.50537
393.18608,1.51146
392.94501,1.51789
392.70394,1.52205
392.46287,1.50974
392.22180,1.48290
391.98073,1.46421
391.73965,1.47031
391.49858,1.49534
391.25751,1.51634
391.01644,1.51752
390.77537,1.50604
390.53430,1.49688
390.29323,1.49184
390.05216,1.48374
389.81109,1.47516
389.57002,1.47691
389.32895,1.49185
389.08788,1.50786
388.84681,1.50782
388.60574,1.49119
388.36467,1.47367
388.12360,1.46384
387.88253,1.45586
387.64146,1.44591
387.40038,1.44012
387.15931,1.43942
386.91824,1.43269
386.67717,1.41261
386.43610,1.38804
386.19503,1.37320
385.95396,1.37261
385.71289,1.37860
385.47182,1.38268
385.23075,1.38647
384.98968,1.39605
384.74861,1.40971
384.50754,1.41681
384.26647,1.40965
384.02540,1.38775
383.78433,1.35672
383.54326,1.32936
383.30219,1.31876
383.06111,1.32667
382.82004,1.34205
382.57897,1.34906
382.33790,1.34048
382.09683,1.32223
381.85576,1.30055
381.61469,1.28383
381.37362,1.27794
381.13255,1.27689
380.89148,1.27488
380.65041,1.27476
380.40934,1.27724
380.16827,1.27840
379.92720,1.27885
379.68613,1.28210
379.44506,1.28680
379.20399,1.28930
378.96292,1.29005
378.72184,1.29472
378.48077,1.30741
378.23970,1.32332
377.99863,1.33362
377.75756,1.33104
377.51649,1.31918
377.27542,1.30931
377.03435,1.30571
376.79328,1.30404
376.55221,1.30164
376.31114,1.30476
376.07007,1.31604
375.82900,1.32561
375.58793,1.32688
375.34686,1.33040
375.10579,1.34874
374.86472,1.37670
374.62365,1.39679
374.38257,1.40290
374.14150,1.40594
373.90043,1.41362
373.65936,1.42369
373.41829,1.43526
373.17722,1.44945
372.93615,1.46102
372.69508,1.46016
372.45401,1.44306
372.21294,1.41840
371.97187,1.40027
371.73080,1.39560
371.48973,1.39878
371.24866,1.39798
371.00759,1.38986
370.76652,1.38180
370.52545,1.37863
370.28437,1.37668
370.04330,1.37398
369.80223,1.37615
369.56116,1.38374
369.32009,1.38491
369.07902,1.37360
368.83795,1.36147
368.59688,1.36007
368.35581,1.36632
368.11474,1.36892
367.87367,1.36236
367.63260,1.34969
367.39153,1.33575
367.15046,1.32369
366.90939,1.31558
366.66832,1.31382
366.42725,1.32007
366.18618,1.33168
365.94510,1.34184
365.70403,1.34681
365.46296,1.34860
365.22189,1.35007
364.98082,1.35101
364.73975,1.34952
364.49868,1.34305
364.25761,1.33204
364.01654,1.32346
363.77547,1.32114
363.53440,1.32232
363.29333,1.32367
363.05226,1.32083
362.81119,1.31014
362.57012,1.29434
362.32905,1.28251
362.08798,1.28285
361.84691,1.29318
361.60583,1.30242
361.36476,1.30365
361.12369,1.30004
360.88262,1.29735
360.64155,1.29590
360.40048,1.29169
360.15941,1.28314
359.91834,1.27406
359.67727,1.26879
359.43620,1.26768
359.19513,1.26932
358.95406,1.27248
358.71299,1.27303
358.47192,1.26672
358.23085,1.25676
357.98978,1.24969
357.74871,1.24702
357.50764,1.24617
357.26656,1.24652
357.02549,1.24999
356.78442,1.25661
356.54335,1.26421
356.30228,1.27141
356.06121,1.27659
355.82014,1.27653
355.57907,1.27149
355.33800,1.26667
355.09693,1.26399
354.85586,1.26016
354.61479,1.25521
354.37372,1.25317
354.13265,1.25526
353.89158,1.26010
353.65051,1.26576
353.40944,1.26860
353.16837,1.26619
352.92729,1.26070
352.68622,1.25550
352.44515,1.25166
352.20408,1.25045
351.96301,1.25380
351.72194,1.25877
351.48087,1.25984
351.23980,1.25888
350.99873,1.26288
350.75766,1.27159
350.51659,1.27662
350.27552,1.27433
350.03445,1.27085
349.79338,1.27105
349.55231,1.27086
349.31124,1.26526
349.07017,1.25901
348.82910,1.26118
348.58802,1.27314
348.34695,1.28735
348.10588,1.29506
347.86481,1.29268
347.62374,1.28290
347.38267,1.27332
347.14160,1.27249
346.90053,1.28213
346.65946,1.29257
346.41839,1.29188
346.17732,1.28215
345.93625,1.27826
345.69518,1.28946
345.45411,1.30805
345.21304,1.31637
344.97197,1.30725
344.73090,1.29287
344.48983,1.28837
344.24875,1.29518
344.00768,1.30400
343.76661,1.30861
343.52554,1.31200
343.28447,1.31886
343.04340,1.32642
342.80233,1.32935
342.56126,1.32759
342.32019,1.32249
342.07912,1.31421
341.83805,1.30735
341.59698,1.31034
341.35591,1.32355
341.11484,1.33546
340.87377,1.33747
340.63270,1.33564
340.39163,1.34206
340.15056,1.35906
339.90948,1.37620
339.66841,1.38046
339.42734,1.36914
339.18627,1.35232
338.94520,1.34247
338.70413,1.34412
338.46306,1.35048
338.22199,1.35154
337.98092,1.34711
337.73985,1.34686
337.49878,1.35979
337.25771,1.38327
337.01664,1.40044
336.77557,1.39927
336.53450,1.38882
336.29343,1.38091
336.05236,1.37868
335.81129,1.38367
335.57021,1.39254
335.32914,1.39583
335.08807,1.38801
334.84700,1.37552
334.60593,1.36846
334.36486,1.36528
334.12379,1.35853
333.88272,1.35044
333.64165,1.34771
333.40058,1.34934
333.15951,1.34816
332.91844,1.34034
332.67737,1.32722
332.43630,1.31211
332.19523,1.29904
331.95416,1.29032
331.71309,1.28687
331.47202,1.29056
331.23094,1.30009
330.98987,1.30844
330.74880,1.31229
330.50773,1.31506
330.26666,1.31708
330.02559,1.31334
329.78452,1.29939
329.54345,1.27945
329.30238,1.26288
329.06131,1.25410
328.82024,1.25211
328.57917,1.25307
328.33810,1.25259
328.09703,1.25002
327.85596,1.25047
327.61489,1.25991
327.37382,1.27656
327.13275,1.29076
326.89167,1.29654
326.65060,1.30062
326.40953,1.31083
326.16846,1.32038
325.92739,1.31731
325.68632,1.30287
325.44525,1.28561
325.20418,1.26904
324.96311,1.25769
324.72204,1.25789
324.48097,1.26786
324.23990,1.27973
323.99883,1.29112
323.75776,1.30366
323.51669,1.31570
323.27562,1.32113
323.03455,1.31691
322.79348,1.30980
322.55240,1.30675
322.31133,1.30249
322.07026,1.29101
321.82919,1.28069
321.58812,1.28268
321.34705,1.29432
321.10598,1.30399
320.86491,1.30350
320.62384,1.29329
320.38277,1.28414
320.14170,1.29035
319.90063,1.31551
319.65956,1.34560
319.41849,1.35966
319.17742,1.35144
318.93635,1.32967
318.69528,1.30573
318.45421,1.28965
318.21313,1.28351
317.97206,1.28033
317.73099,1.28050
317.48992,1.29329
317.24885,1.31816
317.00778,1.33599
316.76671,1.32976
316.52564,1.31038
316.28457,1.30205
316.04350,1.31095
315.80243,1.32431
315.56136,1.33121
315.32029,1.32975
315.07922,1.32178
314.83815,1.31278
314.59708,1.31011
314.35601,1.31886
314.11494,1.34217
313.87386,1.37561
313.63279,1.39934
313.39172,1.39384
313.15065,1.36477
312.90958,1.33562
312.66851,1.32493
312.42744,1.33682
312.18637,1.36368
311.94530,1.38917
311.70423,1.39609
311.46316,1.38127
311.22209,1.35909
310.98102,1.34655
310.73995,1.34960
310.49888,1.36025
310.25781,1.36621
310.01674,1.36612
309.77567,1.36924
309.53459,1.37735
309.29352,1.38002
309.05245,1.37534
308.81138,1.37506
308.57031,1.38267
308.32924,1.38569
308.08817,1.37673
307.84710,1.36426
307.60603,1.35725
307.36496,1.35542
307.12389,1.35608
306.88282,1.36052
306.64175,1.36928
306.40068,1.37665
306.15961,1.37511
305.91854,1.36641
305.67747,1.36387
305.43640,1.37870
305.19532,1.40447
304.95425,1.42009
304.71318,1.41354
304.47211,1.39670
304.23104,1.38956
303.98997,1.39141
303.74890,1.38421
303.50783,1.36227
303.26676,1.34015
303.02569,1.33319
302.78462,1.34334
302.54355,1.35874
302.30248,1.36178
302.06141,1.34543
301.82034,1.32424
301.57927,1.31818
301.33820,1.32850
301.09713,1.33745
300.85605,1.33049
300.61498,1.31053
300.37391,1.28917
300.13284,1.27544
299.89177,1.27157
299.65070,1.27284
299.40963,1.27226
299.16856,1.26704
298.92749,1.26024
298.68642,1.25681
298.44535,1.25914
298.20428,1.26306
297.96321,1.25853
297.72214,1.24303
297.48107,1.22967
297.24000,1.23090
296.99893,1.24186
296.75786,1.24619
296.51678,1.23561
296.27571,1.21818
296.03464,1.20773
295.79357,1.21080
295.55250,1.22246
295.31143,1.23157
295.07036,1.23217
294.82929,1.22771
294.58822,1.22269
294.34715,1.21667
294.10608,1.20863
293.86501,1.20040
293.62394,1.19309
293.38287,1.18544
293.14180,1.17739
292.90073,1.17225
292.65966,1.17258
292.41859,1.17512
292.17751,1.17398
291.93644,1.16903
291.69537,1.16685
291.45430,1.17270
291.21323,1.18337
290.97216,1.18897
290.73109,1.18382
290.49002,1.17371
290.24895,1.16787
290.00788,1.16678
289.76681,1.16368
289.52574,1.15731
289.28467,1.15506
289.04360,1.16060
288.80253,1.16634
288.56146,1.16236
288.32039,1.14944
288.07932,1.13704
287.83824,1.13188
287.59717,1.13365
287.35610,1.13675
287.11503,1.13550
286.87396,1.12991
286.63289,1.12457
286.39182,1.12315
286.15075,1.12556
285.90968,1.12954
285.66861,1.13266
285.42754,1.13378
285.18647,1.13384
284.94540,1.13432
284.70433,1.13496
284.46326,1.13476
284.22219,1.13467
283.98112,1.13694
283.74005,1.14087
283.49897,1.14240
283.25790,1.14059
283.01683,1.14016
282.77576,1.14352
282.53469,1.14532
282.29362,1.13966
282.05255,1.12946
281.81148,1.12248
281.57041,1.12146
281.32934,1.12323
281.08827,1.12541
280.84720,1.12997
280.60613,1.13847
280.36506,1.14667
280.12399,1.14828
279.88292,1.14306
279.64185,1.13674
279.40078,1.13390
279.15970,1.13510
278.91863,1.13842
278.67756,1.14058
278.43649,1.13907
278.19542,1.13523
277.95435,1.13266
277.71328,1.13250
277.47221,1.13347
277.23114,1.13490
276.99007,1.13695
276.74900,1.13878
276.50793,1.13904
276.26686,1.13704
276.02579,1.13228
275.78472,1.12535
275.54365,1.11945
275.30258,1.11766
275.06151,1.11945
274.82043,1.12249
274.57936,1.12593
274.33829,1.12911
274.09722,1.13038
273.85615,1.12953
273.61508,1.12784
273.37401,1.12616
273.13294,1.12548
272.89187,1.12716
272.65080,1.13245
272.40973,1.14139
272.16866,1.15065
271.92759,1.15504
271.68652,1.15330
271.44545,1.14903
271.20438,1.14606
270.96331,1.14667
270.72224,1.15261
270.48116,1.16340
270.24009,1.17498
269.99902,1.18317
269.75795,1.18709
269.51688,1.18730
269.27581,1.18541
269.03474,1.18538
268.79367,1.18972
268.55260,1.19496
268.31153,1.19572
268.07046,1.19235
267.82939,1.18941
267.58832,1.18968
267.34725,1.19445
267.10618,1.20453
266.86511,1.21732
266.62404,1.22770
266.38297,1.23340
266.14189,1.23603
265.90082,1.23718
265.65975,1.23763
265.41868,1.23913
265.17761,1.24455
264.93654,1.25572
264.69547,1.27028
264.45440,1.28280
264.21333,1.29301
263.97226,1.30738
263.73119,1.32822
263.49012,1.34814
263.24905,1.36054
263.00798,1.36804
262.76691,1.37708
262.52584,1.39104
262.28477,1.40836
262.04370,1.42532
261.80262,1.44108
261.56155,1.45699
261.32048,1.47209
261.07941,1.48398
260.83834,1.49449
260.59727,1.51033
260.35620,1.54050
260.11513,1.59344
259.87406,1.66944
259.63299,1.74906
259.39192,1.79421
259.15085,1.78605
258.90978,1.75127
258.66871,1.72855
258.42764,1.73332
258.18657,1.75524
257.94550,1.78019
257.70443,1.80489
257.46335,1.82412
257.22228,1.82257
256.98121,1.79482
256.74014,1.76111
256.49907,1.74753
256.25800,1.76163
256.01693,1.78635
255.77586,1.78856
255.53479,1.75280
255.29372,1.70537
255.05265,1.67498
254.81158,1.66708
254.57051,1.67176
254.32944,1.67500
254.08837,1.67437
253.84730,1.67563
253.60623,1.67539
253.36516,1.66291
253.12408,1.63509
252.88301,1.60448
252.64194,1.58846
252.40087,1.59456
252.15980,1.61552
251.91873,1.63454
251.67766,1.63938
251.43659,1.62799
251.19552,1.60387
250.95445,1.57422
250.71338,1.54850
250.47231,1.53310
250.23124,1.52905
249.99017,1.53244
249.74910,1.53656
249.50803,1.53709
249.26696,1.53681
249.02589,1.54337
248.78481,1.56145
248.54374,1.58646
248.30267,1.60677
248.06160,1.61379
247.82053,1.60642
247.57946,1.59256
247.33839,1.58375
247.09732,1.58306
246.85625,1.58544
246.61518,1.58574
246.37411,1.58422
246.13304,1.58497
245.89197,1.59278
245.65090,1.61123
245.40983,1.63902
245.16876,1.67158
244.92769,1.70392
244.68661,1.72751
244.44554,1.73305
244.20447,1.72399
243.96340,1.72405
243.72233,1.76088
243.48126,1.84640
243.24019,1.96711
242.99912,2.05954
242.75805,2.01495
242.51698,1.89468
242.27591,1.81736
242.03484,1.77172
241.79377,1.71399
241.55270,1.62919
241.31163,1.53996
241.07056,1.47112
240.82949,1.42668
240.58842,1.39466
240.34734,1.36156
240.10627,1.32447
239.86520,1.28849
239.62413,1.25637
239.38306,1.22618
239.14199,1.19593
238.90092,1.16616
238.65985,1.13846
238.41878,1.11327
238.17771,1.08971
237.93664,1.06745
237.69557,1.04795
237.45450,1.03264
237.21343,1.02050
236.97236,1.01044
236.73129,1.00384
236.49022,1.00070
236.24915,0.99691
236.00807,0.98897
235.76700,0.97855
235.52593,0.96911
235.28486,0.96036
235.04379,0.94982
234.80272,0.93820
234.56165,0.92845
234.32058,0.92106
234.07951,0.91418
233.83844,0.90762
233.59737,0.90298
233.35630,0.89976
233.11523,0.89573
232.87416,0.89199
232.63309,0.89213
232.39202,0.89590
232.15095,0.89875
231.90988,0.89813
231.66880,0.89519
231.42773,0.89015
231.18666,0.88214
230.94559,0.87294
230.70452,0.86523
230.46345,0.85952
230.22238,0.85614
229.98131,0.85704
229.74024,0.86244
229.49917,0.86805
229.25810,0.86921
229.01703,0.86576
228.77596,0.86044
228.53489,0.85469
228.29382,0.84845
228.05275,0.84230
227.81168,0.83752
227.57061,0.83489
227.32953,0.83422
227.08846,0.83392
226.84739,0.83168
226.60632,0.82757
226.36525,0.82519
226.12418,0.82677
225.88311,0.82933
225.64204,0.82881
225.40097,0.82490
225.15990,0.81927
224.91883,0.81307
224.67776,0.80789
224.43669,0.80607
224.19562,0.80929
223.95455,0.81789
223.71348,0.83043
223.47241,0.84285
223.23134,0.85079
222.99026,0.85319
222.74919,0.85214
222.50812,0.85033
222.26705,0.85010
222.02598,0.85234
221.78491,0.85591
221.54384,0.85973
221.30277,0.86488
221.06170,0.87279
220.82063,0.88240
220.57956,0.89095
220.33849,0.89683
220.09742,0.90049
219.85635,0.90418
219.61528,0.91047
219.37421,0.91927
219.13314,0.92811
218.89207,0.93643
218.65099,0.94684
218.40992,0.96032
218.16885,0.97422
217.92778,0.98576
217.68671,0.99494
217.44564,1.00393
217.20457,1.01406
216.96350,1.02428
216.72243,1.03414
216.48136,1.04649
216.24029,1.06369
215.99922,1.08310
215.75815,1.09987
215.51708,1.11253
215.27601,1.12328
215.03494,1.13471
214.79387,1.14724
214.55280,1.15816
214.31172,1.16460
214.07065,1.16843
213.82958,1.17514
213.58851,1.18710
213.34744,1.19967
213.10637,1.20688
212.86530,1.21044
212.62423,1.21605
212.38316,1.22200
212.14209,1.22168
211.90102,1.21595
211.65995,1.21389
211.41888,1.22236
211.17781,1.23772
210.93674,1.24749
210.69567,1.24270
210.45460,1.22853
210.21353,1.21758
209.97245,1.21714
209.73138,1.22732
209.49031,1.24425
209.24924,1.26053
209.00817,1.26642
208.76710,1.25625
208.52603,1.23425
208.28496,1.21172
208.04389,1.19851
207.80282,1.19678
207.56175,1.20070
207.32068,1.20221
207.07961,1.19713
206.83854,1.18502
206.59747,1.16701
206.35640,1.14633
206.11533,1.12996
205.87426,1.12410
205.63318,1.12556
205.39211,1.12182
205.15104,1.10519
204.90997,1.08220
204.66890,1.06470
204.42783,1.05725
204.18676,1.05348
203.94569,1.04383
203.70462,1.02659
203.46355,1.00885
203.22248,0.99787
202.98141,0.99412
202.74034,0.99101
202.49927,0.98010
202.25820,0.95954
202.01713,0.93664
201.77606,0.91935
201.53499,0.90837
201.29391,0.89835
201.05284,0.88410
200.81177,0.86599
200.57070,0.84934
200.32963,0.83837
200.08856,0.83224
199.84749,0.82582
199.60642,0.81472
199.36535,0.80084
199.12428,0.78938
198.88321,0.78201
198.64214,0.77678
198.40107,0.77175
198.16000,0.76598
197.91893,0.75875
197.67786,0.75057
197.43679,0.74352
197.19572,0.73820
196.95464,0.73228
196.71357,0.72330
196.47250,0.71198
196.23143,0.70155
195.99036,0.69407
195.74929,0.68835
195.50822,0.68168
195.26715,0.67332
195.02608,0.66544
194.78501,0.66017
194.54394,0.65685
194.30287,0.65218
194.06180,0.64353
193.82073,0.63298
193.57966,0.62604
193.33859,0.62501
193.09752,0.62537
192.85645,0.62095
192.61537,0.61243
192.37430,0.60558
192.13323,0.60269
191.89216,0.60050
191.65109,0.59591
191.41002,0.59060
191.16895,0.58853
190.92788,0.59046
190.68681,0.59255
190.44574,0.59098
190.20467,0.58665
189.96360,0.58306
189.72253,0.58143
189.48146,0.58058
189.24039,0.57946
188.99932,0.57738
188.75825,0.57379
188.51718,0.56959
188.27610,0.56672
188.03503,0.56541
187.79396,0.56352
187.55289,0.56001
187.31182,0.55761
187.07075,0.55928
186.82968,0.56313
186.58861,0.56419
186.34754,0.56136
186.10647,0.55771
185.86540,0.55483
185.62433,0.55268
185.38326,0.55281
185.14219,0.55623
184.90112,0.56039
184.66005,0.56192
184.41898,0.56048
184.17791,0.55764
183.93683,0.55485
183.69576,0.55387
183.45469,0.55632
183.21362,0.56103
182.97255,0.56438
182.73148,0.56472
182.49041,0.56410
182.24934,0.56424
182.00827,0.56472
181.76720,0.56609
181.52613,0.56957
181.28506,0.57328
181.04399,0.57431
180.80292,0.57379
180.56185,0.57427
180.32078,0.57506
180.07971,0.57510
179.83864,0.57613
179.59756,0.57968
179.35649,0.58518
179.11542,0.59227
178.87435,0.60135
178.63328,0.61124
178.39221,0.61979
178.15114,0.62705
177.91007,0.63528
177.66900,0.64611
177.42793,0.65867
177.18686,0.67074
176.94579,0.68143
176.70472,0.69181
176.46365,0.70280
176.22258,0.71422
175.98151,0.72649
175.74044,0.74063
175.49937,0.75626
175.25829,0.77219
175.01722,0.78951
174.77615,0.81081
174.53508,0.83592
174.29401,0.86112
174.05294,0.88256
173.81187,0.89846
173.57080,0.90929
173.32973,0.91711
173.08866,0.92346
172.84759,0.92876
172.60652,0.93407
172.36545,0.93975
172.12438,0.94253
171.88331,0.93922
171.64224,0.93229
171.40117,0.92745
171.16010,0.92764
170.91902,0.93129
170.67795,0.93452
170.43688,0.93455
170.19581,0.93111
169.95474,0.92432
169.71367,0.91400
169.47260,0.90283
169.23153,0.89577
168.99046,0.89522
168.74939,0.89910
168.50832,0.90375
168.26725,0.90666
168.02618,0.90644
167.78511,0.90270
167.54404,0.89644
167.30297,0.88903
167.06190,0.88153
166.82083,0.87628
166.57975,0.87670
166.33868,0.88345
166.09761,0.89289
165.85654,0.90119
165.61547,0.90801
165.37440,0.91377
165.13333,0.91614
164.89226,0.91379
164.65119,0.91103
164.41012,0.91422
164.16905,0.92458
163.92798,0.93749
163.68691,0.94896
163.44584,0.96018
163.20477,0.97343
162.96370,0.98570
162.72263,0.99166
162.48156,0.99164
162.24048,0.99041
161.99941,0.99126
161.75834,0.99575
161.51727,1.00389
161.27620,1.01180
161.03513,1.01370
160.79406,1.00873
160.55299,1.00270
160.31192,1.00132
160.07085,1.00385
159.82978,1.00521
159.58871,1.00281
159.34764,0.99787
159.10657,0.99159
158.86550,0.98405
158.62443,0.97669
158.38336,0.97242
158.14229,0.97241
157.90121,0.97400
157.66014,0.97171
157.41907,0.96187
157.17800,0.94711
156.93693,0.93394
156.69586,0.92707
156.45479,0.92718
156.21372,0.93148
155.97265,0.93440
155.73158,0.92980
155.49051,0.91589
155.24944,0.89705
155.00837,0.87986
154.76730,0.86915
154.52623,0.86518
154.28516,0.86205
154.04409,0.85211
153.80302,0.83393
153.56194,0.81292
153.32087,0.79444
153.07980,0.77996
152.83873,0.76788
152.59766,0.75520
152.35659,0.74032
152.11552,0.72567
151.87445,0.71469
151.63338,0.70643
151.39231,0.69662
151.15124,0.68316
150.91017,0.66803
150.66910,0.65380
150.42803,0.64136
150.18696,0.63088
149.94589,0.62198
149.70482,0.61312
149.46375,0.60297
149.22267,0.59203
148.98160,0.58226
148.74053,0.57531
148.49946,0.57086
148.25839,0.56640
148.01732,0.55957
147.77625,0.55108
147.53518,0.54415
147.29411,0.54107
147.05304,0.54137
146.81197,0.54286
146.57090,0.54411
146.32983,0.54583
146.08876,0.54953
145.84769,0.55468
145.60662,0.55839
145.36555,0.55942
145.12448,0.56064
144.88340,0.56520
144.64233,0.57191
144.40126,0.57664
144.16019,0.57787
143.91912,0.57820
143.67805,0.57992
143.43698,0.58218
143.19591,0.58284
142.95484,0.58048
142.71377,0.57440
142.47270,0.56500
142.23163,0.55414
141.99056,0.54390
141.74949,0.53519
141.50842,0.52769
141.26735,0.52092
141.02628,0.51510
140.78521,0.51031
140.54413,0.50550
140.30306,0.50009
140.06199,0.49592
139.82092,0.49555
139.57985,0.49897
139.33878,0.50418
139.09771,0.51030
138.85664,0.51753
138.61557,0.52470
138.37450,0.53007
138.13343,0.53448
137.89236,0.54091
137.65129,0.55031
137.41022,0.56056
137.16915,0.57088
136.92808,0.58379
136.68701,0.60096
136.44594,0.62056
136.20486,0.64019
135.96379,0.65979
135.72272,0.68120
135.48165,0.70642
135.24058,0.73505
134.99951,0.76355
134.75844,0.78950
134.51737,0.81495
134.27630,0.84291
134.03523,0.87344
133.79416,0.90413
133.55309,0.93154
133.31202,0.95402
133.07095,0.97598
132.82988,1.00505
132.58881,1.04215
132.34774,1.07893
132.10667,1.10809
131.86559,1.12943
131.62452,1.14187
131.38345,1.14028
131.14238,1.12703
130.90131,1.11364
130.66024,1.10677
130.41917,1.10131
130.17810,1.08801
129.93703,1.06485
129.69596,1.03793
129.45489,1.01190
129.21382,0.98370
128.97275,0.94748
128.73168,0.90385
128.49061,0.86012
128.24954,0.82234
128.00847,0.79093
127.76740,0.76310
127.52632,0.73637
127.28525,0.70956
127.04418,0.68278
126.80311,0.65759
126.56204,0.63613
126.32097,0.61921
126.07990,0.60558
125.83883,0.59330
125.59776,0.58112
125.35669,0.56840
125.11562,0.55459
124.87455,0.53936
124.63348,0.52321
124.39241,0.50788
124.15134,0.49551
123.91027,0.48660
123.66920,0.47945
123.42812,0.47211
123.18705,0.46422
122.94598,0.45665
122.70491,0.45045
122.46384,0.44687
122.22277,0.44696
121.98170,0.45012
121.74063,0.45337
121.49956,0.45447
121.25849,0.45523
121.01742,0.45909
120.77635,0.46624
120.53528,0.47377
120.29421,0.48021
120.05314,0.48685
119.81207,0.49517
119.57100,0.50576
119.32993,0.51963
119.08885,0.53830
118.84778,0.56275
118.60671,0.59236
118.36564,0.62496
118.12457,0.65854
117.88350,0.69209
117.64243,0.72384
117.40136,0.74986
117.16029,0.76620
116.91922,0.77282
116.67815,0.77503
116.43708,0.77749
116.19601,0.77750
115.95494,0.76887
115.71387,0.75114
115.47280,0.73105
115.23173,0.71594
114.99066,0.70791
114.74958,0.70353
114.50851,0.69894
114.26744,0.69489
114.02637,0.69400
113.78530,0.69409
113.54423,0.68924
113.30316,0.67747
113.06209,0.66343
112.82102,0.65367
112.57995,0.65123
112.33888,0.65507
112.09781,0.66369
111.85674,0.67748
111.61567,0.69628
111.37460,0.71597
111.13353,0.72902
110.89246,0.72999
110.65139,0.72015
110.41031,0.70487
110.16924,0.68885
109.92817,0.67584
109.68710,0.66926
109.44603,0.67020
109.20496,0.67512
108.96389,0.67485
108.72282,0.65991
108.48175,0.63066
108.24068,0.59684
107.99961,0.56776
107.75854,0.54735
107.51747,0.53471
107.27640,0.52554
107.03533,0.51454
106.79426,0.49975
106.55319,0.48322
106.31212,0.46678
106.07104,0.45078
105.82997,0.43691
105.58890,0.42813
105.34783,0.42419
105.10676,0.41986
104.86569,0.40963
104.62462,0.39326
104.38355,0.37589
104.14248,0.36379
103.90141,0.35987
103.66034,0.36111
103.41927,0.35960
103.17820,0.34859
102.93713,0.33020
102.69606,0.31402
102.45499,0.30760
102.21392,0.31063
101.97285,0.31564
101.73177,0.31451
101.49070,0.30585
101.24963,0.29503
101.00856,0.28775
100.76749,0.28591
100.52642,0.28731
100.28535,0.28747
100.04428,0.28321
99.80321,0.27605
99.56214,0.27121
99.32107,0.27204
99.08000,0.27566
98.83893,0.27530
98.59786,0.26835
98.35679,0.26025
98.11572,0.25848
97.87465,0.26441
97.63358,0.27074
97.39250,0.26869
97.15143,0.26008
96.91036,0.25558
96.66929,0.26061
96.42822,0.26957
96.18715,0.27431
95.94608,0.27572
95.70501,0.28155
95.46394,0.29368
95.22287,0.30411
94.98180,0.30677
94.74073,0.30752
94.49966,0.31337
94.25859,0.32141
94.01752,0.32530
93.77645,0.32542
93.53538,0.32557
93.29431,0.32542
93.05323,0.32323
92.81216,0.32144
92.57109,0.32251
92.33002,0.32297
92.08895,0.31959
91.84788,0.31750
91.60681,0.32247
91.36574,0.33101
91.12467,0.33825
90.88360,0.34890
90.64253,0.36895
90.40146,0.39589
90.16039,0.42516
89.91932,0.45709
89.67825,0.49230
89.43718,0.53094
89.19611,0.57500
88.95504,0.62144
88.71396,0.66055
88.47289,0.68825
88.23182,0.70455
87.99075,0.70278
87.74968,0.67891
87.50861,0.64145
87.26754,0.60148
87.02647,0.56433
86.78540,0.53144
86.54433,0.50233
86.30326,0.47503
86.06219,0.44777
85.82112,0.42014
85.58005,0.39280
85.33898,0.36720
85.09791,0.34492
84.85684,0.32603
84.61577,0.30905
84.37469,0.29314
84.13362,0.27879
83.89255,0.26625
83.65148,0.25542
83.41041,0.24696
83.16934,0.24137
82.92827,0.23743
82.68720,0.23313
82.44613,0.22778
82.20506,0.22229
81.96399,0.21793
81.72292,0.21481
81.48185,0.21193
81.24078,0.20894
80.99971,0.20664
80.75864,0.20542
80.51757,0.20466
80.27650,0.20397
80.03542,0.20317
79.79435,0.20166
79.55328,0.19902
79.31221,0.19563
79.07114,0.19221
78.83007,0.18940
78.58900,0.18730
78.34793,0.18541
78.10686,0.18331
77.86579,0.18084
77.62472,0.17735
77.38365,0.17228
77.14258,0.16655
76.90151,0.16204
76.66044,0.15953
76.41937,0.15836
76.17830,0.15821
75.93723,0.15989
75.69615,0.16333
75.45508,0.16550
75.21401,0.16291
74.97294,0.15645
74.73187,0.15115
74.49080,0.15052
74.24973,0.15342
74.00866,0.15645
73.76759,0.15754
73.52652,0.15667
73.28545,0.15520
73.04438,0.15532
72.80331,0.15870
72.56224,0.16470
72.32117,0.17079
72.08010,0.17491
71.83903,0.17678
71.59796,0.17653
71.35688,0.17342
71.11581,0.16703
70.87474,0.15957
70.63367,0.15574
70.39260,0.15998
70.15153,0.17382
69.91046,0.19549
69.66939,0.22090
69.42832,0.24418
69.18725,0.25918
68.94618,0.26301
68.70511,0.25685
68.46404,0.24277
68.22297,0.22336
67.98190,0.20299
67.74083,0.18519
67.49976,0.17010
67.25869,0.15664
67.01761,0.14544
66.77654,0.13790
66.53547,0.13366
66.29440,0.13074
66.05333,0.12796
65.81226,0.12607
65.57119,0.12695
65.33012,0.13250
65.08905,0.14371
64.84798,0.15962
64.60691,0.17730
64.36584,0.19358
64.12477,0.20628
63.88370,0.21396
63.64263,0.21604
63.40156,0.21296
63.16049,0.20551
62.91942,0.19477
62.67834,0.18181
62.43727,0.16697
62.19620,0.15084
61.95513,0.13525
61.71406,0.12209
61.47299,0.11231
61.23192,0.10651
60.99085,0.10515
60.74978,0.10844
60.50871,0.11669
60.26764,0.12929
60.02657,0.14359
59.78550,0.15716
59.54443,0.17007
59.30336,0.18235
59.06229,0.19000
58.82122,0.18737
58.58015,0.17365
58.33907,0.15402
58.09800,0.13430
57.85693,0.11768
57.61586,0.10628
57.37479,0.10292
57.13372,0.10986
56.89265,0.12651
56.65158,0.14981
56.41051,0.17535
56.16944,0.19359
55.92837,0.19026
55.68730,0.16448
55.44623,0.13199
55.20516,0.10678
54.96409,0.09487
54.72302,0.09764
54.48195,0.11527
54.24088,0.14683
53.99980,0.18386
53.75873,0.20151
53.51766,0.17895
53.27659,0.13710
53.03552,0.10751
52.79445,0.10344
52.55338,0.12487
52.31231,0.16391
52.07124,0.19636
51.83017,0.18844
51.58910,0.15042
51.34803,0.12038
51.10696,0.11600
50.86589,0.13878
50.62482,0.17710
50.38375,0.19140
50.14268,0.15216
49.90161,0.10171
49.66053,0.08433
49.41946,0.11337
49.17839,0.17211
48.93732,0.19585
48.69625,0.15221
48.45518,0.11679
48.21411,0.13340
47.97304,0.18174
47.73197,0.18741
47.49090,0.13712
47.24983,0.10679
47.00876,0.12319
46.76769,0.14550
46.52662,0.13120
46.28555,0.11306
46.04448,0.11569
45.80341,0.11785
45.56234,0.10749
45.32126,0.10576
45.08019,0.11563
44.83912,0.11654
44.59805,0.11265
44.35698,0.11970
44.11591,0.12564
43.87484,0.11732
43.63377,0.11196
43.39270,0.12334
43.15163,0.14485
42.91056,0.16598
42.66949,0.17950
42.42842,0.18049
42.18735,0.17227
41.94628,0.16114
41.70521,0.14777
41.46414,0.13273
41.22307,0.12266
40.98199,0.12308
40.74092,0.13266
40.49985,0.14575
40.25878,0.15887
40.01771,0.17057
39.77664,0.17520
39.53557,0.16968
39.29450,0.16179
39.05343,0.16235
38.81236,0.17505
38.57129,0.19667
38.33022,0.22015
38.08915,0.23820
37.84808,0.24718
37.60701,0.24632
37.36594,0.23839
37.12487,0.23196
36.88380,0.23288
36.64272,0.23470
36.40165,0.22806
36.16058,0.21423
35.91951,0.20316
35.67844,0.20069
35.43737,0.19994
35.19630,0.19067
34.95523,0.17863
34.71416,0.18018
34.47309,0.19727
34.23202,0.21439
33.99095,0.21909
33.74988,0.21148
33.50881,0.19676
33.26774,0.17966
33.02667,0.16600
32.78560,0.16213
32.54453,0.16858
32.30345,0.17813
32.06238,0.18294
31.82131,0.17817
31.58024,0.16006
31.33917,0.13294
31.09810,0.11235
30.85703,0.10847
30.61596,0.11613
30.37489,0.12283
30.13382,0.11644
29.89275,0.09185
29.65168,0.05577
29.41061,0.02088
29.16954,0.00018
28.92847,-0.00118
28.68740,0.00551
28.44633,0.00454
28.20526,-0.00433
27.96418,-0.00856
27.72311,-0.00076
27.48204,0.01166
27.24097,0.01344
26.99990,-0.00465
26.75883,-0.03920
26.51776,-0.08006
26.27669,-0.11229
26.03562,-0.12087
25.79455,-0.10628
25.55348,-0.08353
25.31241,-0.06634
25.07134,-0.05906
24.83027,-0.06280
24.58920,-0.07747
24.34813,-0.09549
24.10706,-0.10017
23.86599,-0.08319
23.62491,-0.06095
23.38384,-0.06066
23.14277,-0.09435
22.90170,-0.14630
22.66063,-0.18736
22.41956,-0.20590
22.17849,-0.21176
21.93742,-0.21502
21.69635,-0.21840
21.45528,-0.22210
21.21421,-0.22813
20.97314,-0.23896
20.73207,-0.24714
20.49100,-0.24298
20.24993,-0.23368
20.00886,-0.23569
19.76779,-0.25561
19.52672,-0.27998
19.28564,-0.28360
19.04457,-0.26083
18.80350,-0.23059
18.56243,-0.21770
18.32136,-0.23265
18.08029,-0.25943
17.83922,-0.27019
17.59815,-0.26400
17.35708,-0.25746
17.11601,-0.24675
16.87494,-0.21862
16.63387,-0.18876
16.39280,-0.18239
16.15173,-0.20833
15.91066,-0.25625
15.66959,-0.30243
15.42852,-0.32740
15.18745,-0.32823
14.94637,-0.31785
14.70530,-0.31586
14.46423,-0.31443
14.22316,-0.28895
13.98209,-0.27566
13.74102,-0.28461
13.49995,-0.31028
13.25888,-0.34621
13.01781,-0.38918
12.77674,-0.40567
12.53567,-0.37294
12.29460,-0.33820
12.05353,-0.31292
11.81246,-0.28704
11.57139,-0.26132
11.33032,-0.24635
11.08925,-0.24572
10.84818,-0.25381
10.60710,-0.26493
10.36603,-0.27172
10.12496,-0.27236
9.88389,-0.27619
9.64282,-0.28600
9.40175,-0.29469
9.16068,-0.29656
8.91961,-0.29158
8.67854,-0.28606
8.43747,-0.28282
8.19640,-0.28232
7.95533,-0.28317
7.71426,-0.28006
7.47319,-0.26513
7.23212,-0.26779
6.99105,-0.28831
6.74998,-0.31719
6.50891,-0.33798
6.26783,-0.31741
6.02676,-0.28673
5.78569,-0.26445
5.54462,-0.25699
5.30355,-0.26510
5.06248,-0.28129
4.82141,-0.29211
4.58034,-0.28599
4.33927,-0.26829
4.09820,-0.24937
3.85713,-0.24288
3.61606,-0.24552
3.37499,-0.24032
3.13392,-0.25890
2.89285,-0.30549
2.65178,-0.33861
2.41071,-0.33681
2.16964,-0.34294
1.92856,-0.33775
1.68749,-0.31445
1.44642,-0.29425
1.20535,-0.29047
0.96428,-0.29620
0.72321,-0.29748
0.48214,-0.29276
0.24107,-0.27325
-0.00000,-0.16700
