399.69498,1.97644
399.45391,2.03396
399.21284,2.09832
398.97177,2.16262
398.73070,2.23202
398.48963,2.27684
398.24856,2.22994
398.00749,2.13041
397.76642,2.06050
397.52535,2.03445
397.28428,2.04558
397.04321,2.08309
396.80214,2.12218
396.56107,2.12583
396.32000,2.07433
396.07892,2.02002
395.83785,1.99261
395.59678,1.97914
395.35571,1.97682
395.11464,1.98278
394.87357,1.97526
394.63250,1.97411
394.39143,1.99148
394.15036,2.03704
393.90929,2.16564
393.66822,2.38051
393.42715,2.45090
393.18608,2.32882
392.94501,2.34183
392.70394,2.28099
392.46287,2.15196
392.22180,2.13587
391.98073,2.21460
391.73965,2.33129
391.49858,2.40953
391.25751,2.38257
391.01644,2.29875
390.77537,2.23642
390.53430,2.25125
390.29323,2.35363
390.05216,2.36733
389.81109,2.35169
389.57002,2.28446
389.32895,2.28514
389.08788,2.22960
388.84681,2.08117
388.60574,2.04551
388.36467,2.10952
388.12360,2.10989
387.88253,2.01807
387.64146,1.92161
387.40038,1.83764
387.15931,1.77547
386.91824,1.77534
386.67717,1.89806
386.43610,2.20286
386.19503,2.55535
385.95396,2.57308
385.71289,2.55280
385.47182,2.37907
385.23075,2.24511
384.98968,2.18171
384.74861,2.07848
384.50754,2.07067
384.26647,2.20888
384.02540,2.55180
383.78433,2.77695
383.54326,2.30263
383.30219,2.11227
383.06111,2.10901
382.82004,2.11071
382.57897,2.09744
382.33790,1.97695
382.09683,1.77632
381.85576,1.70715
381.61469,1.76349
381.37362,1.92014
381.13255,2.14893
380.89148,2.28618
380.65041,2.22027
380.40934,2.17594
380.16827,2.26055
379.92720,2.20152
379.68613,2.00815
379.44506,1.86182
379.20399,1.88441
378.96292,2.04905
378.72184,2.03892
378.48077,2.01835
378.23970,2.03083
377.99863,2.04046
377.75756,1.96290
377.51649,1.83457
377.27542,1.77474
377.03435,1.82225
376.79328,1.94407
376.55221,2.03847
376.31114,2.06658
376.07007,2.10952
375.82900,2.10126
375.58793,2.15574
375.34686,2.27102
375.10579,2.34934
374.86472,2.41201
374.62365,2.39725
374.38257,2.23123
374.14150,2.13601
373.90043,2.04717
373.65936,1.94993
373.41829,1.94094
373.17722,2.00413
372.93615,2.03059
372.69508,1.96267
372.45401,1.86467
372.21294,1.81900
371.97187,1.81392
371.73080,1.82578
371.48973,1.86920
371.24866,1.92353
371.00759,1.93488
370.76652,1.88772
370.52545,1.82489
370.28437,1.78737
370.04330,1.76062
369.80223,1.70462
369.56116,1.63476
369.32009,1.60006
369.07902,1.62094
368.83795,1.67517
368.59688,1.72031
368.35581,1.73690
368.11474,1.73196
367.87367,1.70531
367.63260,1.65616
367.39153,1.61552
367.15046,1.62128
366.90939,1.66930
366.66832,1.70049
366.42725,1.66983
366.18618,1.61779
365.94510,1.59668
365.70403,1.60850
365.46296,1.62022
365.22189,1.61254
364.98082,1.60331
364.73975,1.60848
364.49868,1.61389
364.25761,1.60648
364.01654,1.58772
363.77547,1.56587
363.53440,1.54692
363.29333,1.52559
363.05226,1.49755
362.81119,1.47689
362.57012,1.48171
362.32905,1.50795
362.08798,1.53145
361.84691,1.53337
361.60583,1.52353
361.36476,1.52462
361.12369,1.53973
360.88262,1.55526
360.64155,1.56108
360.40048,1.55815
360.15941,1.55374
359.91834,1.55899
359.67727,1.57947
359.43620,1.60020
359.19513,1.60029
358.95406,1.57575
358.71299,1.53864
358.47192,1.50993
358.23085,1.49931
357.98978,1.50798
357.74871,1.53301
357.50764,1.55503
357.26656,1.55338
357.02549,1.53928
356.78442,1.54117
356.54335,1.56591
356.30228,1.58887
356.06121,1.57826
355.82014,1.53265
355.57907,1.48450
355.33800,1.46400
355.09693,1.47314
354.85586,1.49027
354.61479,1.49433
354.37372,1.48300
354.13265,1.46531
353.89158,1.44697
353.65051,1.43298
353.40944,1.43211
353.16837,1.44802
352.92729,1.47272
352.68622,1.49837
352.44515,1.52314
352.20408,1.53962
351.96301,1.54083
351.72194,1.53562
351.48087,1.53538
351.23980,1.53995
350.99873,1.54775
350.75766,1.55863
350.51659,1.56485
350.27552,1.55539
350.03445,1.52981
349.79338,1.49984
349.55231,1.48007
349.31124,1.48152
349.07017,1.50314
348.82910,1.52671
348.58802,1.53157
348.34695,1.52327
348.10588,1.52556
347.86481,1.54232
347.62374,1.54884
347.38267,1.53050
347.14160,1.50898
346.90053,1.50837
346.65946,1.52769
346.41839,1.55158
346.17732,1.56615
345.93625,1.56786
345.69518,1.56215
345.45411,1.55080
345.21304,1.53282
344.97197,1.51349
344.73090,1.50903
344.48983,1.53041
344.24875,1.56738
344.00768,1.60397
343.76661,1.63272
343.52554,1.64794
343.28447,1.64996
343.04340,1.64852
342.80233,1.65370
342.56126,1.67149
342.32019,1.70054
342.07912,1.72615
341.83805,1.72598
341.59698,1.70510
341.35591,1.70022
341.11484,1.72405
340.87377,1.76290
340.63270,1.80858
340.39163,1.84322
340.15056,1.84218
339.90948,1.82799
339.66841,1.83923
339.42734,1.89003
339.18627,1.95651
338.94520,1.99776
338.70413,2.00265
338.46306,1.98195
338.22199,1.95607
337.98092,1.95955
337.73985,2.00107
337.49878,2.02468
337.25771,1.97699
337.01664,1.90468
336.77557,1.86937
336.53450,1.87251
336.29343,1.89535
336.05236,1.90249
335.81129,1.84440
335.57021,1.77126
335.32914,1.74474
335.08807,1.76172
334.84700,1.79612
334.60593,1.81745
334.36486,1.83414
334.12379,1.87957
333.88272,1.95386
333.64165,2.00023
333.40058,1.96435
333.15951,1.89792
332.91844,1.86964
332.67737,1.86747
332.43630,1.84319
332.19523,1.78797
331.95416,1.73609
331.71309,1.71161
331.47202,1.70403
331.23094,1.69365
330.98987,1.68760
330.74880,1.70435
330.50773,1.74396
330.26666,1.78846
330.02559,1.81129
329.78452,1.80843
329.54345,1.80308
329.30238,1.81104
329.06131,1.80752
328.82024,1.76642
328.57917,1.70961
328.33810,1.66213
328.09703,1.63404
327.85596,1.63024
327.61489,1.65019
327.37382,1.68241
327.13275,1.71660
326.89167,1.75483
326.65060,1.80910
326.40953,1.88480
326.16846,1.94681
325.92739,1.94293
325.68632,1.87186
325.44525,1.78455
325.20418,1.75419
324.96311,1.78729
324.72204,1.86619
324.48097,1.97272
324.23990,1.94467
323.99883,1.78134
323.75776,1.67508
323.51669,1.65891
323.27562,1.70534
323.03455,1.78004
322.79348,1.87685
322.55240,1.99640
322.31133,2.10705
322.07026,2.20514
321.82919,2.28598
321.58812,2.31093
321.34705,2.19411
321.10598,2.05817
320.86491,1.97465
320.62384,1.95685
320.38277,2.00542
320.14170,2.08136
319.90063,2.17098
319.65956,2.18365
319.41849,2.01115
319.17742,1.87931
318.93635,1.83417
318.69528,1.83880
318.45421,1.87876
318.21313,1.96451
317.97206,2.09961
317.73099,2.20370
317.48992,2.15913
317.24885,2.05060
317.00778,1.97942
316.76671,1.93549
316.52564,1.93384
316.28457,2.01276
316.04350,2.17780
315.80243,2.36300
315.56136,2.29104
315.32029,2.18632
315.07922,2.11222
314.83815,2.05491
314.59708,2.13992
314.35601,2.21766
314.11494,2.05802
313.87386,2.03075
313.63279,2.06648
313.39172,2.05721
313.15065,2.09036
312.90958,2.17848
312.66851,2.35293
312.42744,2.53836
312.18637,2.37411
311.94530,2.30283
311.70423,2.30751
311.46316,2.20304
311.22209,2.22622
310.98102,2.32498
310.73995,2.19017
310.49888,2.04945
310.25781,2.03431
310.01674,2.09607
309.77567,2.15971
309.53459,2.14427
309.29352,2.06670
309.05245,2.01052
308.81138,1.98913
308.57031,1.98870
308.32924,1.97576
308.08817,1.91649
307.84710,1.83583
307.60603,1.78636
307.36496,1.78839
307.12389,1.82302
306.88282,1.84841
306.64175,1.83545
306.40068,1.78754
306.15961,1.73751
305.91854,1.70637
305.67747,1.68083
305.43640,1.64337
305.19532,1.59865
304.95425,1.56047
304.71318,1.53459
304.47211,1.52230
304.23104,1.52467
303.98997,1.53695
303.74890,1.54168
303.50783,1.52745
303.26676,1.50347
303.02569,1.48694
302.78462,1.48689
302.54355,1.49504
302.30248,1.49230
302.06141,1.47277
301.82034,1.45191
301.57927,1.44239
301.33820,1.44301
301.09713,1.44254
300.85605,1.42901
300.61498,1.39933
300.37391,1.36033
300.13284,1.32203
299.89177,1.29476
299.65070,1.28810
299.40963,1.30141
299.16856,1.31872
298.92749,1.32320
298.68642,1.31624
298.44535,1.31095
298.20428,1.31128
297.96321,1.31063
297.72214,1.30239
297.48107,1.28874
297.24000,1.27733
296.99893,1.26999
296.75786,1.26229
296.51678,1.25224
296.27571,1.24261
296.03464,1.23576
295.79357,1.23252
295.55250,1.23375
295.31143,1.23787
295.07036,1.24037
294.82929,1.23877
294.58822,1.23305
294.34715,1.22171
294.10608,1.20510
293.86501,1.18903
293.62394,1.17918
293.38287,1.17529
293.14180,1.17341
292.90073,1.17032
292.65966,1.16420
292.41859,1.15533
292.17751,1.14769
291.93644,1.14606
291.69537,1.15077
291.45430,1.15639
291.21323,1.15763
290.97216,1.15637
290.73109,1.15782
290.49002,1.16116
290.24895,1.16006
290.00788,1.15111
289.76681,1.13811
289.52574,1.12801
289.28467,1.12405
289.04360,1.12417
288.80253,1.12499
288.56146,1.12404
288.32039,1.11847
288.07932,1.10657
287.83824,1.09160
287.59717,1.08119
287.35610,1.08057
287.11503,1.08649
286.87396,1.08955
286.63289,1.08444
286.39182,1.07567
286.15075,1.07154
285.90968,1.07560
285.66861,1.08542
285.42754,1.09692
285.18647,1.10525
284.94540,1.10400
284.70433,1.09164
284.46326,1.07687
284.22219,1.06999
283.98112,1.07231
283.74005,1.07841
283.49897,1.08380
283.25790,1.08690
283.01683,1.08715
282.77576,1.08513
282.53469,1.08305
282.29362,1.08332
282.05255,1.08695
281.81148,1.09224
281.57041,1.09586
281.32934,1.09665
281.08827,1.09674
280.84720,1.09698
280.60613,1.09441
280.36506,1.08741
280.12399,1.07985
279.88292,1.07565
279.64185,1.07386
279.40078,1.07320
279.15970,1.07578
278.91863,1.08153
278.67756,1.08505
278.43649,1.08300
278.19542,1.07904
277.95435,1.07662
277.71328,1.07371
277.47221,1.06787
277.23114,1.06074
276.99007,1.05590
276.74900,1.05525
276.50793,1.05755
276.26686,1.05929
276.02579,1.05822
275.78472,1.05628
275.54365,1.05671
275.30258,1.05945
275.06151,1.06243
274.82043,1.06536
274.57936,1.06901
274.33829,1.07200
274.09722,1.07223
273.85615,1.07066
273.61508,1.07010
273.37401,1.07082
273.13294,1.07018
272.89187,1.06564
272.65080,1.05807
272.40973,1.05146
272.16866,1.04863
271.92759,1.04886
271.68652,1.04975
271.44545,1.05019
271.20438,1.05091
270.96331,1.05303
270.72224,1.05771
270.48116,1.06629
270.24009,1.07847
269.99902,1.09042
269.75795,1.09783
269.51688,1.10026
269.27581,1.09910
269.03474,1.09441
268.79367,1.08711
268.55260,1.08094
268.31153,1.08040
268.07046,1.08631
267.82939,1.09601
267.58832,1.10701
267.34725,1.11594
267.10618,1.11804
266.86511,1.11255
266.62404,1.10638
266.38297,1.10840
266.14189,1.11994
265.90082,1.13328
265.65975,1.14041
265.41868,1.14113
265.17761,1.14096
264.93654,1.14458
264.69547,1.15230
264.45440,1.16010
264.21333,1.16480
263.97226,1.16937
263.73119,1.17838
263.49012,1.18975
263.24905,1.19730
263.00798,1.20126
262.76691,1.20855
262.52584,1.22307
262.28477,1.24188
262.04370,1.25957
261.80262,1.27276
261.56155,1.28073
261.32048,1.28419
261.07941,1.28530
260.83834,1.28925
260.59727,1.30312
260.35620,1.32848
260.11513,1.35591
259.87406,1.37472
259.63299,1.38511
259.39192,1.39175
259.15085,1.39499
258.90978,1.39687
258.66871,1.40678
258.42764,1.43295
258.18657,1.47167
257.94550,1.50932
257.70443,1.53739
257.46335,1.56277
257.22228,1.59209
256.98121,1.61714
256.74014,1.63237
256.49907,1.64432
256.25800,1.65949
256.01693,1.67672
255.77586,1.69419
255.53479,1.71654
255.29372,1.74666
255.05265,1.77656
254.81158,1.79958
254.57051,1.82580
254.32944,1.87026
254.08837,1.93656
253.84730,2.02667
253.60623,2.14414
253.36516,2.26316
253.12408,2.33752
252.88301,2.33176
252.64194,2.26565
252.40087,2.21943
252.15980,2.23304
251.91873,2.20083
251.67766,2.20168
251.43659,2.25466
251.19552,2.20397
250.95445,2.22404
250.71338,2.32288
250.47231,2.36266
250.23124,2.33782
249.99017,2.31683
249.74910,2.33972
249.50803,2.42542
249.26696,2.49677
249.02589,2.41106
248.78481,2.34253
248.54374,2.40415
248.30267,2.54342
248.06160,2.54991
247.82053,2.39847
247.57946,2.26921
247.33839,2.23948
247.09732,2.17956
246.85625,2.12196
246.61518,2.10241
246.37411,2.10310
246.13304,2.08826
245.89197,2.08790
245.65090,2.11297
245.40983,2.12972
245.16876,2.12924
244.92769,2.09839
244.68661,2.05660
244.44554,2.01155
244.20447,1.93566
243.96340,1.83659
243.72233,1.74212
243.48126,1.66682
243.24019,1.61295
242.99912,1.57118
242.75805,1.52766
242.51698,1.47594
242.27591,1.41738
242.03484,1.36180
241.79377,1.31980
241.55270,1.29083
241.31163,1.26410
241.07056,1.23202
240.82949,1.19786
240.58842,1.16764
240.34734,1.14132
240.10627,1.11557
239.86520,1.09007
239.62413,1.06732
239.38306,1.04811
239.14199,1.03081
238.90092,1.01442
238.65985,0.99923
238.41878,0.98414
238.17771,0.96658
237.93664,0.94657
237.69557,0.92773
237.45450,0.91300
237.21343,0.90251
236.97236,0.89548
236.73129,0.89108
236.49022,0.88664
236.24915,0.87772
236.00807,0.86255
235.76700,0.84516
235.52593,0.83173
235.28486,0.82462
235.04379,0.82077
234.80272,0.81656
234.56165,0.81272
234.32058,0.81195
234.07951,0.81299
233.83844,0.81091
233.59737,0.80424
233.35630,0.79761
233.11523,0.79501
232.87416,0.79472
232.63309,0.79265
232.39202,0.78767
232.15095,0.78168
231.90988,0.77623
231.66880,0.77094
231.42773,0.76502
231.18666,0.75967
230.94559,0.75724
230.70452,0.75762
230.46345,0.75737
230.22238,0.75429
229.98131,0.75088
229.74024,0.75036
229.49917,0.75160
229.25810,0.75151
229.01703,0.74984
228.77596,0.74895
228.53489,0.75029
228.29382,0.75241
228.05275,0.75191
227.81168,0.74694
227.57061,0.74004
227.32953,0.73576
227.08846,0.73547
226.84739,0.73645
226.60632,0.73574
226.36525,0.73319
226.12418,0.73100
225.88311,0.73184
225.64204,0.73687
225.40097,0.74388
225.15990,0.74802
224.91883,0.74641
224.67776,0.74107
224.43669,0.73575
224.19562,0.73208
223.95455,0.73009
223.71348,0.72988
223.47241,0.73128
223.23134,0.73317
222.99026,0.73490
222.74919,0.73733
222.50812,0.74149
222.26705,0.74685
222.02598,0.75202
221.78491,0.75649
221.54384,0.76026
221.30277,0.76314
221.06170,0.76560
220.82063,0.76908
220.57956,0.77467
220.33849,0.78196
220.09742,0.78962
219.85635,0.79626
219.61528,0.80162
219.37421,0.80653
219.13314,0.81194
218.89207,0.81840
218.65099,0.82635
218.40992,0.83642
218.16885,0.84858
217.92778,0.86156
217.68671,0.87426
217.44564,0.88677
217.20457,0.89830
216.96350,0.90651
216.72243,0.91093
216.48136,0.91499
216.24029,0.92259
215.99922,0.93372
215.75815,0.94395
215.51708,0.94927
215.27601,0.95076
215.03494,0.95293
214.79387,0.95935
214.55280,0.97088
214.31172,0.98504
214.07065,0.99675
213.82958,1.00365
213.58851,1.01017
213.34744,1.02100
213.10637,1.03306
212.86530,1.03893
212.62423,1.03679
212.38316,1.03232
212.14209,1.03115
211.90102,1.03303
211.65995,1.03375
211.41888,1.03131
211.17781,1.02861
210.93674,1.02911
210.69567,1.03207
210.45460,1.03402
210.21353,1.03294
209.97245,1.02933
209.73138,1.02582
209.49031,1.02646
209.24924,1.03332
209.00817,1.04209
208.76710,1.04477
208.52603,1.03984
208.28496,1.03314
208.04389,1.02693
207.80282,1.01763
207.56175,1.00512
207.32068,0.99522
207.07961,0.99175
206.83854,0.99189
206.59747,0.99022
206.35640,0.98447
206.11533,0.97659
205.87426,0.96982
205.63318,0.96528
205.39211,0.96101
205.15104,0.95466
204.90997,0.94559
204.66890,0.93403
204.42783,0.92163
204.18676,0.91209
203.94569,0.90686
203.70462,0.90159
203.46355,0.89099
203.22248,0.87561
202.98141,0.85969
202.74034,0.84545
202.49927,0.83313
202.25820,0.82320
202.01713,0.81529
201.77606,0.80777
201.53499,0.79929
201.29391,0.78973
201.05284,0.78014
200.81177,0.77189
200.57070,0.76464
200.32963,0.75565
200.08856,0.74288
199.84749,0.72826
199.60642,0.71617
199.36535,0.70867
199.12428,0.70316
198.88321,0.69577
198.64214,0.68631
198.40107,0.67786
198.16000,0.67201
197.91893,0.66705
197.67786,0.66110
197.43679,0.65457
197.19572,0.64841
196.95464,0.64215
196.71357,0.63498
196.47250,0.62711
196.23143,0.61921
195.99036,0.61186
195.74929,0.60610
195.50822,0.60248
195.26715,0.59962
195.02608,0.59570
194.78501,0.59091
194.54394,0.58662
194.30287,0.58293
194.06180,0.57836
193.82073,0.57158
193.57966,0.56295
193.33859,0.55436
193.09752,0.54792
192.85645,0.54433
192.61537,0.54188
192.37430,0.53784
192.13323,0.53169
191.89216,0.52626
191.65109,0.52429
191.41002,0.52495
191.16895,0.52494
190.92788,0.52230
190.68681,0.51801
190.44574,0.51397
190.20467,0.51043
189.96360,0.50628
189.72253,0.50170
189.48146,0.49868
189.24039,0.49822
188.99932,0.49879
188.75825,0.49854
188.51718,0.49753
188.27610,0.49700
188.03503,0.49731
187.79396,0.49735
187.55289,0.49588
187.31182,0.49285
187.07075,0.48905
186.82968,0.48519
186.58861,0.48206
186.34754,0.48056
186.10647,0.48072
185.86540,0.48168
185.62433,0.48281
185.38326,0.48410
185.14219,0.48556
184.90112,0.48738
184.66005,0.48984
184.41898,0.49247
184.17791,0.49398
183.93683,0.49349
183.69576,0.49119
183.45469,0.48826
183.21362,0.48623
182.97255,0.48594
182.73148,0.48706
182.49041,0.48858
182.24934,0.48968
182.00827,0.48987
181.76720,0.48931
181.52613,0.48923
181.28506,0.49118
181.04399,0.49521
180.80292,0.49943
180.56185,0.50163
180.32078,0.50150
180.07971,0.50091
179.83864,0.50228
179.59756,0.50654
179.35649,0.51271
179.11542,0.51919
178.87435,0.52490
178.63328,0.52922
178.39221,0.53216
178.15114,0.53520
177.91007,0.54103
177.66900,0.55161
177.42793,0.56641
177.18686,0.58254
176.94579,0.59675
176.70472,0.60781
176.46365,0.61675
176.22258,0.62480
175.98151,0.63233
175.74044,0.64060
175.49937,0.65219
175.25829,0.66825
175.01722,0.68671
174.77615,0.70404
174.53508,0.71881
174.29401,0.73300
174.05294,0.74943
173.81187,0.76783
173.57080,0.78473
173.32973,0.79731
173.08866,0.80557
172.84759,0.81056
172.60652,0.81321
172.36545,0.81518
172.12438,0.81756
171.88331,0.81924
171.64224,0.81836
171.40117,0.81515
171.16010,0.81142
170.91902,0.80804
170.67795,0.80516
170.43688,0.80356
170.19581,0.80370
169.95474,0.80414
169.71367,0.80203
169.47260,0.79588
169.23153,0.78821
168.99046,0.78375
168.74939,0.78415
168.50832,0.78595
168.26725,0.78433
168.02618,0.77782
167.78511,0.76913
167.54404,0.76213
167.30297,0.75850
167.06190,0.75766
166.82083,0.75945
166.57975,0.76407
166.33868,0.76938
166.09761,0.77164
165.85654,0.77042
165.61547,0.76961
165.37440,0.77312
165.13333,0.78226
164.89226,0.79603
164.65119,0.81156
164.41012,0.82517
164.16905,0.83477
163.92798,0.84088
163.68691,0.84566
163.44584,0.85095
163.20477,0.85669
162.96370,0.86155
162.72263,0.86471
162.48156,0.86626
162.24048,0.86674
161.99941,0.86750
161.75834,0.86919
161.51727,0.86957
161.27620,0.86633
161.03513,0.86136
160.79406,0.85908
160.55299,0.86094
160.31192,0.86333
160.07085,0.86094
159.82978,0.85306
159.58871,0.84531
159.34764,0.84297
159.10657,0.84510
158.86550,0.84760
158.62443,0.84852
158.38336,0.84716
158.14229,0.84197
157.90121,0.83225
157.66014,0.82020
157.41907,0.80980
157.17800,0.80416
156.93693,0.80336
156.69586,0.80452
156.45479,0.80471
156.21372,0.80316
155.97265,0.79957
155.73158,0.79267
155.49051,0.78173
155.24944,0.76805
155.00837,0.75475
154.76730,0.74514
154.52623,0.73988
154.28516,0.73577
154.04409,0.72876
153.80302,0.71806
153.56194,0.70566
153.32087,0.69263
153.07980,0.67857
152.83873,0.66379
152.59766,0.64970
152.35659,0.63715
152.11552,0.62561
151.87445,0.61407
151.63338,0.60222
151.39231,0.59088
151.15124,0.58088
150.91017,0.57148
150.66910,0.56123
150.42803,0.54998
150.18696,0.53875
149.94589,0.52796
149.70482,0.51778
149.46375,0.50894
149.22267,0.50158
148.98160,0.49454
148.74053,0.48712
148.49946,0.48001
148.25839,0.47413
148.01732,0.46994
147.77625,0.46776
147.53518,0.46711
147.29411,0.46612
147.05304,0.46373
146.81197,0.46207
146.57090,0.46398
146.32983,0.46879
146.08876,0.47319
145.84769,0.47584
145.60662,0.47852
145.36555,0.48282
145.12448,0.48832
144.88340,0.49352
144.64233,0.49737
144.40126,0.49981
144.16019,0.50143
143.91912,0.50273
143.67805,0.50347
143.43698,0.50277
143.19591,0.50027
142.95484,0.49640
142.71377,0.49107
142.47270,0.48339
142.23163,0.47373
141.99056,0.46417
141.74949,0.45601
141.50842,0.44891
141.26735,0.44247
141.02628,0.43681
140.78521,0.43173
140.54413,0.42686
140.30306,0.42258
140.06199,0.41979
139.82092,0.41942
139.57985,0.42190
139.33878,0.42635
139.09771,0.43088
138.85664,0.43455
138.61557,0.43818
138.37450,0.44268
138.13343,0.44798
137.89236,0.45431
137.65129,0.46272
137.41022,0.47344
137.16915,0.48530
136.92808,0.49803
136.68701,0.51344
136.44594,0.53295
136.20486,0.55514
135.96379,0.57659
135.72272,0.59474
135.48165,0.61026
135.24058,0.62707
134.99951,0.64900
134.75844,0.67592
134.51737,0.70416
134.27630,0.73051
134.03523,0.75469
133.79416,0.77778
133.55309,0.80014
133.31202,0.82199
133.07095,0.84544
132.82988,0.87330
132.58881,0.90365
132.34774,0.92789
132.10667,0.93824
131.86559,0.93607
131.62452,0.92944
131.38345,0.92454
131.14238,0.92169
130.90131,0.91759
130.66024,0.90980
130.41917,0.89907
130.17810,0.88667
129.93703,0.87114
129.69596,0.85011
129.45489,0.82431
129.21382,0.79679
128.97275,0.76967
128.73168,0.74351
128.49061,0.71808
128.24954,0.69273
128.00847,0.66693
127.76740,0.64101
127.52632,0.61583
127.28525,0.59264
127.04418,0.57323
126.80311,0.55801
126.56204,0.54470
126.32097,0.53089
126.07990,0.51637
125.83883,0.50159
125.59776,0.48635
125.35669,0.47128
125.11562,0.45748
124.87455,0.44469
124.63348,0.43217
124.39241,0.42053
124.15134,0.41053
123.91027,0.40119
123.66920,0.39128
123.42812,0.38153
123.18705,0.37359
122.94598,0.36786
122.70491,0.36380
122.46384,0.36124
122.22277,0.35994
121.98170,0.35875
121.74063,0.35698
121.49956,0.35601
121.25849,0.35802
121.01742,0.36336
120.77635,0.37014
120.53528,0.37671
120.29421,0.38373
120.05314,0.39310
119.81207,0.40542
119.57100,0.41972
119.32993,0.43554
119.08885,0.45401
118.84778,0.47598
118.60671,0.50017
118.36564,0.52405
118.12457,0.54602
117.88350,0.56597
117.64243,0.58467
117.40136,0.60308
117.16029,0.62089
116.91922,0.63511
116.67815,0.64253
116.43708,0.64362
116.19601,0.64122
115.95494,0.63665
115.71387,0.62985
115.47280,0.62142
115.23173,0.61237
114.99066,0.60297
114.74958,0.59274
114.50851,0.58156
114.26744,0.57039
114.02637,0.56049
113.78530,0.55271
113.54423,0.54764
113.30316,0.54501
113.06209,0.54341
112.82102,0.54201
112.57995,0.54184
112.33888,0.54372
112.09781,0.54662
111.85674,0.54964
111.61567,0.55325
111.37460,0.55719
111.13353,0.55969
110.89246,0.55940
110.65139,0.55670
110.41031,0.55337
110.16924,0.55129
109.92817,0.55012
109.68710,0.54734
109.44603,0.54158
109.20496,0.53322
108.96389,0.52151
108.72282,0.50480
108.48175,0.48439
108.24068,0.46432
107.99961,0.44748
107.75854,0.43411
107.51747,0.42295
107.27640,0.41195
107.03533,0.39930
106.79426,0.38594
106.55319,0.37534
106.31212,0.36872
106.07104,0.36259
105.82997,0.35347
105.58890,0.34285
105.34783,0.33428
105.10676,0.32792
104.86569,0.32113
104.62462,0.31232
104.38355,0.30187
104.14248,0.29100
103.90141,0.28111
103.66034,0.27342
103.41927,0.26812
103.17820,0.26392
102.93713,0.25872
102.69606,0.25149
102.45499,0.24335
102.21392,0.23610
101.97285,0.23022
101.73177,0.22528
101.49070,0.22111
101.24963,0.21788
101.00856,0.21583
100.76749,0.21509
100.52642,0.21484
100.28535,0.21316
100.04428,0.20923
99.80321,0.20464
99.56214,0.20134
99.32107,0.19921
99.08000,0.19669
98.83893,0.19342
98.59786,0.19087
98.35679,0.19012
98.11572,0.19014
97.87465,0.18932
97.63358,0.18787
97.39250,0.18734
97.15143,0.18850
96.91036,0.19078
96.66929,0.19332
96.42822,0.19608
96.18715,0.19985
95.94608,0.20533
95.70501,0.21223
95.46394,0.21960
95.22287,0.22675
94.98180,0.23290
94.74073,0.23704
94.49966,0.23913
94.25859,0.24068
94.01752,0.24270
93.77645,0.24400
93.53538,0.24319
93.29431,0.24106
93.05323,0.23946
92.81216,0.23900
92.57109,0.23885
92.33002,0.23835
92.08895,0.23787
91.84788,0.23851
91.60681,0.24151
91.36574,0.24792
91.12467,0.25828
90.88360,0.27247
90.64253,0.29004
90.40146,0.31097
90.16039,0.33646
89.91932,0.36852
89.67825,0.40814
89.43718,0.45309
89.19611,0.49735
88.95504,0.53439
88.71396,0.56187
88.47289,0.58048
88.23182,0.58773
87.99075,0.57866
87.74968,0.55374
87.50861,0.52024
87.26754,0.48534
87.02647,0.45208
86.78540,0.42102
86.54433,0.39226
86.30326,0.36555
86.06219,0.34010
85.82112,0.31546
85.58005,0.29252
85.33898,0.27268
85.09791,0.25611
84.85684,0.24171
84.61577,0.22879
84.37469,0.21729
84.13362,0.20664
83.89255,0.19601
83.65148,0.18584
83.41041,0.17732
83.16934,0.17048
82.92827,0.16447
82.68720,0.15873
82.44613,0.15301
82.20506,0.14701
81.96399,0.14104
81.72292,0.13626
81.48185,0.13383
81.24078,0.13403
80.99971,0.13578
80.75864,0.13709
80.51757,0.13659
80.27650,0.13458
80.03542,0.13217
79.79435,0.13017
79.55328,0.12877
79.31221,0.12760
79.07114,0.12584
78.83007,0.12304
78.58900,0.11964
78.34793,0.11623
78.10686,0.11267
77.86579,0.10876
77.62472,0.10492
77.38365,0.10171
77.14258,0.09943
76.90151,0.09834
76.66044,0.09821
76.41937,0.09790
76.17830,0.09664
75.93723,0.09495
75.69615,0.09339
75.45508,0.09167
75.21401,0.08979
74.97294,0.08867
74.73187,0.08915
74.49080,0.09119
74.24973,0.09424
74.00866,0.09734
73.76759,0.09864
73.52652,0.09678
73.28545,0.09315
73.04438,0.09048
72.80331,0.08866
72.56224,0.08537
72.32117,0.08106
72.08010,0.07874
71.83903,0.07896
71.59796,0.07993
71.35688,0.08138
71.11581,0.08427
70.87474,0.08851
70.63367,0.09403
70.39260,0.10167
70.15153,0.11165
69.91046,0.12327
69.66939,0.13590
69.42832,0.14819
69.18725,0.15746
68.94618,0.16133
68.70511,0.15917
68.46404,0.15236
68.22297,0.14351
67.98190,0.13455
67.74083,0.12552
67.49976,0.11573
67.25869,0.10537
67.01761,0.09566
66.77654,0.08817
66.53547,0.08352
66.29440,0.08080
66.05333,0.07881
65.81226,0.07778
65.57119,0.07890
65.33012,0.08263
65.08905,0.08810
64.84798,0.09444
64.60691,0.10160
64.36584,0.10901
64.12477,0.11464
63.88370,0.11667
63.64263,0.11522
63.40156,0.11153
63.16049,0.10633
62.91942,0.09970
62.67834,0.09235
62.43727,0.08591
62.19620,0.08093
61.95513,0.07594
61.71406,0.07015
61.47299,0.06517
61.23192,0.06226
60.99085,0.06015
60.74978,0.05774
60.50871,0.05669
60.26764,0.05908
60.02657,0.06405
59.78550,0.06864
59.54443,0.07131
59.30336,0.07272
59.06229,0.07332
58.82122,0.07248
58.58015,0.07063
58.33907,0.06932
58.09800,0.06889
57.85693,0.06821
57.61586,0.06690
57.37479,0.06557
57.13372,0.06448
56.89265,0.06337
56.65158,0.06192
56.41051,0.05988
56.16944,0.05758
55.92837,0.05665
55.68730,0.05906
55.44623,0.06448
55.20516,0.06929
54.96409,0.06974
54.72302,0.06592
54.48195,0.06118
54.24088,0.05879
53.99980,0.06019
53.75873,0.06427
53.51766,0.06738
53.27659,0.06631
53.03552,0.06207
52.79445,0.05855
52.55338,0.05773
52.31231,0.05889
52.07124,0.06087
51.83017,0.06208
51.58910,0.06008
51.34803,0.05461
51.10696,0.04931
50.86589,0.04797
50.62482,0.05054
50.38375,0.05378
50.14268,0.05476
49.90161,0.05320
49.66053,0.05142
49.41946,0.05171
49.17839,0.05324
48.93732,0.05263
48.69625,0.04758
48.45518,0.03934
48.21411,0.03193
47.97304,0.02885
47.73197,0.03007
47.49090,0.03284
47.24983,0.03495
47.00876,0.03553
46.76769,0.03432
46.52662,0.03182
46.28555,0.02834
46.04448,0.02375
45.80341,0.01946
45.56234,0.01815
45.32126,0.02020
45.08019,0.02325
44.83912,0.02507
44.59805,0.02427
44.35698,0.02111
44.11591,0.01906
43.87484,0.02224
43.63377,0.03003
43.39270,0.03704
43.15163,0.03883
42.91056,0.03583
42.66949,0.03162
42.42842,0.02820
42.18735,0.02370
41.94628,0.01611
41.70521,0.00705
41.46414,-0.00019
41.22307,-0.00357
40.98199,-0.00316
40.74092,-0.00030
40.49985,0.00412
40.25878,0.01003
40.01771,0.01633
39.77664,0.02029
39.53557,0.02011
39.29450,0.01574
39.05343,0.00827
38.81236,0.00174
38.57129,0.00253
38.33022,0.01268
38.08915,0.02638
37.84808,0.03785
37.60701,0.04934
37.36594,0.06406
37.12487,0.07663
36.88380,0.07977
36.64272,0.07546
36.40165,0.07075
36.16058,0.06909
35.91951,0.07009
35.67844,0.07188
35.43737,0.07364
35.19630,0.07590
34.95523,0.07840
34.71416,0.07929
34.47309,0.07970
34.23202,0.08585
33.99095,0.10147
33.74988,0.11928
33.50881,0.12541
33.26774,0.11502
33.02667,0.09945
32.78560,0.09290
32.54453,0.09584
32.30345,0.09835
32.06238,0.09422
31.82131,0.08643
31.58024,0.08051
31.33917,0.07599
31.09810,0.06853
30.85703,0.05737
30.61596,0.04506
30.37489,0.03467
30.13382,0.02999
29.89275,0.03062
29.65168,0.02964
29.41061,0.02470
29.16954,0.02434
28.92847,0.03883
28.68740,0.06571
28.44633,0.08164
28.20526,0.07795
27.96418,0.08405
27.72311,0.11981
27.48204,0.15334
27.24097,0.14079
26.99990,0.09757
26.75883,0.07014
26.51776,0.07276
26.27669,0.08062
26.03562,0.06145
25.79455,0.00717
25.55348,-0.05197
25.31241,-0.06876
25.07134,-0.02927
24.83027,0.02085
24.58920,0.03758
24.34813,0.02977
24.10706,0.03961
23.86599,0.08872
23.62491,0.13920
23.38384,0.13775
23.14277,0.06549
22.90170,-0.01160
22.66063,-0.01373
22.41956,0.06497
22.17849,0.13981
21.93742,0.15148
21.69635,0.11164
21.45528,0.06608
21.21421,0.04745
20.97314,0.04840
20.73207,0.03006
20.49100,0.00197
20.24993,0.05524
20.00886,0.25945
19.76779,0.51995
19.52672,0.49368
19.28564,0.35332
19.04457,0.27240
18.80350,0.35719
18.56243,0.70597
18.32136,0.73313
18.08029,0.36214
17.83922,0.20079
17.59815,0.21460
17.35708,0.26685
17.11601,0.36847
16.87494,0.63751
16.63387,0.84135
16.39280,0.37405
16.15173,0.07737
15.91066,-0.00303
15.66959,0.03674
15.42852,0.08637
15.18745,-0.02043
14.94637,-0.02982
14.70530,0.03250
14.46423,0.00371
14.22316,-0.12537
13.98209,-0.19502
13.74102,-0.13439
13.49995,-0.05211
13.25888,0.06028
13.01781,0.30388
12.77674,0.63491
12.53567,0.94990
12.29460,0.99074
12.05353,0.76887
11.81246,0.48169
11.57139,0.27976
11.33032,0.24901
11.08925,0.36929
10.84818,0.40125
10.60710,-0.07550
10.36603,-0.53010
10.12496,-0.45948
9.88389,-0.15044
9.64282,0.15627
9.40175,0.44237
9.16068,0.08963
8.91961,-0.09388
8.67854,0.04850
8.43747,0.23346
8.19640,0.35154
7.95533,0.09087
7.71426,-0.10751
7.47319,-0.00458
7.23212,0.12958
6.99105,0.11245
6.74998,-0.15126
6.50891,-0.30533
6.26783,-0.18494
6.02676,-0.28637
5.78569,-0.29936
5.54462,-0.09785
5.30355,0.02310
5.06248,0.06617
4.82141,0.06823
4.58034,0.04975
4.33927,0.05096
4.09820,0.01143
3.85713,0.12253
3.61606,0.43455
3.37499,0.42561
3.13392,0.03408
2.89285,-0.10439
2.65178,-0.17957
2.41071,-0.12559
2.16964,0.06326
1.92856,0.07771
1.68749,-0.02690
1.44642,-0.07861
1.20535,-0.11489
0.96428,-0.26451
0.72321,-0.16307
0.48214,0.10210
0.24107,0.27705
-0.00000,0.37078
