399.69498,2.08823
399.45391,2.05887
399.21284,2.02586
398.97177,1.97274
398.73070,1.91702
398.48963,1.90656
398.24856,1.92808
398.00749,1.92316
397.76642,1.89685
397.52535,1.87004
397.28428,1.84329
397.04321,1.83300
396.80214,1.85103
396.56107,1.89467
396.32000,1.92265
396.07892,1.88185
395.83785,1.81959
395.59678,1.78986
395.35571,1.82051
395.11464,1.90936
394.87357,2.00248
394.63250,2.02782
394.39143,1.97939
394.15036,1.90910
393.90929,1.86158
393.66822,1.84495
393.42715,1.86477
393.18608,1.96848
392.94501,2.14218
392.70394,2.17075
392.46287,2.08877
392.22180,2.00002
391.98073,1.87728
391.73965,1.82468
391.49858,1.91162
391.25751,2.09603
391.01644,2.07549
390.77537,1.93329
390.53430,1.89579
390.29323,1.92610
390.05216,2.03645
389.81109,2.25505
389.57002,2.25699
389.32895,2.05993
389.08788,2.00107
388.84681,1.93492
388.60574,1.91408
388.36467,1.90893
388.12360,1.97343
387.88253,2.16710
387.64146,2.29603
387.40038,2.18566
387.15931,2.08501
386.91824,1.98857
386.67717,1.89831
386.43610,1.87043
386.19503,1.95902
385.95396,2.16111
385.71289,2.30562
385.47182,2.27161
385.23075,2.19169
384.98968,2.08930
384.74861,2.04893
384.50754,2.05267
384.26647,2.02763
384.02540,2.11584
383.78433,2.38922
383.54326,2.51764
383.30219,2.15536
383.06111,2.03158
382.82004,1.95892
382.57897,1.94140
382.33790,1.99411
382.09683,2.05034
381.85576,2.12619
381.61469,2.21949
381.37362,2.21041
381.13255,1.98108
380.89148,1.80619
380.65041,1.80203
380.40934,1.92182
380.16827,1.94200
379.92720,1.83813
379.68613,1.86683
379.44506,2.11745
379.20399,2.21822
378.96292,1.94806
378.72184,1.90411
378.48077,1.96180
378.23970,1.93113
377.99863,1.89021
377.75756,1.95515
377.51649,2.11505
377.27542,2.25759
377.03435,2.17483
376.79328,1.95239
376.55221,1.86661
376.31114,1.89420
376.07007,1.93605
375.82900,1.96014
375.58793,1.94556
375.34686,1.90096
375.10579,1.88045
374.86472,1.93412
374.62365,2.06429
374.38257,2.18270
374.14150,2.24106
373.90043,2.12224
373.65936,1.95526
373.41829,1.86623
373.17722,1.86323
372.93615,1.89179
372.69508,1.86917
372.45401,1.84324
372.21294,1.85156
371.97187,1.88471
371.73080,1.91170
371.48973,1.92634
371.24866,1.96472
371.00759,1.96535
370.76652,1.86490
370.52545,1.78974
370.28437,1.71606
370.04330,1.64656
369.80223,1.60364
369.56116,1.57215
369.32009,1.54909
369.07902,1.55260
368.83795,1.58570
368.59688,1.63268
368.35581,1.69009
368.11474,1.75995
367.87367,1.78805
367.63260,1.71461
367.39153,1.63131
367.15046,1.58968
366.90939,1.57733
366.66832,1.57513
366.42725,1.56177
366.18618,1.53879
365.94510,1.53083
365.70403,1.54558
365.46296,1.55897
365.22189,1.54995
364.98082,1.53364
364.73975,1.53517
364.49868,1.56025
364.25761,1.59934
364.01654,1.62765
363.77547,1.61848
363.53440,1.58717
363.29333,1.56003
363.05226,1.53836
362.81119,1.51525
362.57012,1.49469
362.32905,1.48791
362.08798,1.49217
361.84691,1.48992
361.60583,1.47192
361.36476,1.44724
361.12369,1.43238
360.88262,1.43857
360.64155,1.46140
360.40048,1.48484
360.15941,1.49738
359.91834,1.50170
359.67727,1.49780
359.43620,1.48594
359.19513,1.48002
358.95406,1.48596
358.71299,1.48273
358.47192,1.45268
358.23085,1.41704
357.98978,1.40262
357.74871,1.41091
357.50764,1.42756
357.26656,1.44460
357.02549,1.46543
356.78442,1.49015
356.54335,1.50489
356.30228,1.49554
356.06121,1.47509
355.82014,1.47342
355.57907,1.49731
355.33800,1.52679
355.09693,1.54953
354.85586,1.57257
354.61479,1.58280
354.37372,1.55345
354.13265,1.50294
353.89158,1.46392
353.65051,1.44879
353.40944,1.45446
353.16837,1.46398
352.92729,1.46371
352.68622,1.45588
352.44515,1.44671
352.20408,1.43907
351.96301,1.43515
351.72194,1.43329
351.48087,1.42673
351.23980,1.41400
350.99873,1.40273
350.75766,1.39914
350.51659,1.40201
350.27552,1.40705
350.03445,1.41389
349.79338,1.42636
349.55231,1.44895
349.31124,1.47868
349.07017,1.49981
348.82910,1.49543
348.58802,1.46966
348.34695,1.44750
348.10588,1.44756
347.86481,1.47148
347.62374,1.50831
347.38267,1.53258
347.14160,1.52147
346.90053,1.48774
346.65946,1.45951
346.41839,1.44517
346.17732,1.43960
345.93625,1.44704
345.69518,1.47867
345.45411,1.52888
345.21304,1.57093
344.97197,1.58670
344.73090,1.57878
344.48983,1.57429
344.24875,1.59999
344.00768,1.63771
343.76661,1.65579
343.52554,1.64476
343.28447,1.61332
343.04340,1.57068
342.80233,1.53613
342.56126,1.53739
342.32019,1.58564
342.07912,1.65417
341.83805,1.69614
341.59698,1.70165
341.35591,1.71013
341.11484,1.74381
340.87377,1.77342
340.63270,1.75842
340.39163,1.70211
340.15056,1.66560
339.90948,1.68727
339.66841,1.73941
339.42734,1.76421
339.18627,1.74642
338.94520,1.73254
338.70413,1.75288
338.46306,1.78224
338.22199,1.79916
337.98092,1.82736
337.73985,1.90446
337.49878,2.02869
337.25771,2.09507
337.01664,1.98085
336.77557,1.82908
336.53450,1.77737
336.29343,1.80391
336.05236,1.81465
335.81129,1.81893
335.57021,1.82190
335.32914,1.83829
335.08807,1.87752
334.84700,1.90531
334.60593,1.87695
334.36486,1.82343
334.12379,1.78729
333.88272,1.77135
333.64165,1.75827
333.40058,1.73634
333.15951,1.71610
332.91844,1.71765
332.67737,1.72903
332.43630,1.72117
332.19523,1.68675
331.95416,1.64872
331.71309,1.63315
331.47202,1.64676
331.23094,1.68152
330.98987,1.69466
330.74880,1.64272
330.50773,1.56135
330.26666,1.51001
330.02559,1.51297
329.78452,1.55957
329.54345,1.61682
329.30238,1.65215
329.06131,1.66071
328.82024,1.66351
328.57917,1.66648
328.33810,1.64773
328.09703,1.61209
327.85596,1.58687
327.61489,1.56992
327.37382,1.55415
327.13275,1.55330
326.89167,1.58023
326.65060,1.62025
326.40953,1.64890
326.16846,1.67728
325.92739,1.72886
325.68632,1.78923
325.44525,1.81776
325.20418,1.79162
324.96311,1.72285
324.72204,1.64863
324.48097,1.62619
324.23990,1.68974
323.99883,1.79408
323.75776,1.77947
323.51669,1.70274
323.27562,1.74571
323.03455,1.88056
322.79348,1.95027
322.55240,1.96529
322.31133,1.97715
322.07026,1.98099
321.82919,1.93736
321.58812,1.86584
321.34705,1.81921
321.10598,1.80886
320.86491,1.82698
320.62384,1.85571
320.38277,1.88922
320.14170,1.91203
319.90063,1.90088
319.65956,1.88950
319.41849,1.90800
319.17742,1.94310
318.93635,1.98370
318.69528,2.02173
318.45421,2.03029
318.21313,2.01647
317.97206,2.03006
317.73099,2.13686
317.48992,2.35521
317.24885,2.46570
317.00778,2.18309
316.76671,2.01137
316.52564,1.95994
316.28457,1.96037
316.04350,1.92803
315.80243,1.91984
315.56136,2.03160
315.32029,2.15449
315.07922,2.17793
314.83815,2.11575
314.59708,2.03012
314.35601,1.98056
314.11494,1.98177
313.87386,2.09691
313.63279,2.35271
313.39172,2.34986
313.15065,2.21237
312.90958,2.23002
312.66851,2.17398
312.42744,2.04629
312.18637,1.93743
311.94530,1.84360
311.70423,1.78904
311.46316,1.75969
311.22209,1.73477
310.98102,1.73168
310.73995,1.75334
310.49888,1.79062
310.25781,1.82320
310.01674,1.83406
309.77567,1.82765
309.53459,1.83928
309.29352,1.95506
309.05245,2.17234
308.81138,2.11504
308.57031,1.95132
308.32924,1.96173
308.08817,2.09577
307.84710,2.18738
307.60603,2.08813
307.36496,1.96026
307.12389,1.87128
306.88282,1.78768
306.64175,1.70739
306.40068,1.65320
306.15961,1.62296
305.91854,1.59760
305.67747,1.57295
305.43640,1.55715
305.19532,1.55252
304.95425,1.54837
304.71318,1.53277
304.47211,1.50740
304.23104,1.48526
303.98997,1.48301
303.74890,1.50115
303.50783,1.50933
303.26676,1.48403
303.02569,1.44681
302.78462,1.42579
302.54355,1.41692
302.30248,1.40122
302.06141,1.37798
301.82034,1.35896
301.57927,1.34916
301.33820,1.34679
301.09713,1.34731
300.85605,1.34757
300.61498,1.34586
300.37391,1.33803
300.13284,1.32141
299.89177,1.29754
299.65070,1.27438
299.40963,1.26221
299.16856,1.26379
298.92749,1.27331
298.68642,1.28115
298.44535,1.28096
298.20428,1.27538
297.96321,1.27025
297.72214,1.26611
297.48107,1.25981
297.24000,1.24981
296.99893,1.23788
296.75786,1.22720
296.51678,1.21855
296.27571,1.20680
296.03464,1.18646
295.79357,1.16188
295.55250,1.14531
295.31143,1.14434
295.07036,1.15639
294.82929,1.17274
294.58822,1.18351
294.34715,1.18280
294.10608,1.17317
293.86501,1.16288
293.62394,1.15817
293.38287,1.15882
293.14180,1.16024
292.90073,1.15848
292.65966,1.15264
292.41859,1.14369
292.17751,1.13164
291.93644,1.11832
291.69537,1.11186
291.45430,1.11858
291.21323,1.12997
290.97216,1.13012
290.73109,1.11817
290.49002,1.10780
290.24895,1.10538
290.00788,1.10496
289.76681,1.10093
289.52574,1.09410
289.28467,1.08789
289.04360,1.08481
288.80253,1.08376
288.56146,1.08046
288.32039,1.07491
288.07932,1.07395
287.83824,1.08190
287.59717,1.09303
287.35610,1.09627
287.11503,1.08567
286.87396,1.06631
286.63289,1.04929
286.39182,1.04173
286.15075,1.04201
285.90968,1.04462
285.66861,1.04783
285.42754,1.05227
285.18647,1.05618
284.94540,1.05571
284.70433,1.04864
284.46326,1.03840
284.22219,1.03217
283.98112,1.03299
283.74005,1.03657
283.49897,1.03723
283.25790,1.03483
283.01683,1.03371
282.77576,1.03604
282.53469,1.03879
282.29362,1.03830
282.05255,1.03623
281.81148,1.03734
281.57041,1.04105
281.32934,1.04053
281.08827,1.03163
280.84720,1.01796
280.60613,1.00639
280.36506,1.00142
280.12399,1.00379
279.88292,1.01086
279.64185,1.01838
279.40078,1.02418
279.15970,1.02868
278.91863,1.03141
278.67756,1.03043
278.43649,1.02553
278.19542,1.01797
277.95435,1.00932
277.71328,1.00385
277.47221,1.00705
277.23114,1.01802
276.99007,1.02692
276.74900,1.02505
276.50793,1.01556
276.26686,1.00942
276.02579,1.01293
275.78472,1.02310
275.54365,1.03251
275.30258,1.03611
275.06151,1.03391
274.82043,1.02888
274.57936,1.02380
274.33829,1.02045
274.09722,1.02033
273.85615,1.02426
273.61508,1.03125
273.37401,1.03937
273.13294,1.04713
272.89187,1.05109
272.65080,1.04607
272.40973,1.03347
272.16866,1.02310
271.92759,1.02082
271.68652,1.02208
271.44545,1.02106
271.20438,1.01864
270.96331,1.01853
270.72224,1.02202
270.48116,1.02666
270.24009,1.02802
269.99902,1.02523
269.75795,1.02388
269.51688,1.02889
269.27581,1.03808
269.03474,1.04647
268.79367,1.05205
268.55260,1.05446
268.31153,1.05391
268.07046,1.05285
267.82939,1.05391
267.58832,1.05713
267.34725,1.06174
267.10618,1.06759
266.86511,1.07296
266.62404,1.07669
266.38297,1.08255
266.14189,1.09527
265.90082,1.11201
265.65975,1.12295
265.41868,1.12207
265.17761,1.11453
264.93654,1.11095
264.69547,1.11861
264.45440,1.13800
264.21333,1.16102
263.97226,1.17321
263.73119,1.16673
263.49012,1.15120
263.24905,1.14395
263.00798,1.15296
262.76691,1.17165
262.52584,1.18654
262.28477,1.19066
262.04370,1.18803
261.80262,1.18619
261.56155,1.18931
261.32048,1.20005
261.07941,1.22206
260.83834,1.25229
260.59727,1.27613
260.35620,1.28050
260.11513,1.27098
259.87406,1.26705
259.63299,1.27972
259.39192,1.30262
259.15085,1.32312
258.90978,1.33731
258.66871,1.35237
258.42764,1.37541
258.18657,1.40968
257.94550,1.45633
257.70443,1.50888
257.46335,1.55288
257.22228,1.57806
256.98121,1.59037
256.74014,1.60745
256.49907,1.64036
256.25800,1.67859
256.01693,1.70422
255.77586,1.71816
255.53479,1.73569
255.29372,1.76512
255.05265,1.79973
254.81158,1.82836
254.57051,1.84438
254.32944,1.85640
254.08837,1.88206
253.84730,1.91461
253.60623,1.93296
253.36516,1.93983
253.12408,1.95108
252.88301,1.97460
252.64194,2.00323
252.40087,2.01897
252.15980,2.01555
251.91873,2.01787
251.67766,2.03393
251.43659,2.06810
251.19552,2.14554
250.95445,2.27175
250.71338,2.34699
250.47231,2.29426
250.23124,2.19812
249.99017,2.11524
249.74910,2.10466
249.50803,2.24316
249.26696,2.43206
249.02589,2.31452
248.78481,2.20830
248.54374,2.24765
248.30267,2.27268
248.06160,2.20288
247.82053,2.21060
247.57946,2.22269
247.33839,2.19581
247.09732,2.20523
246.85625,2.23051
246.61518,2.19823
246.37411,2.08578
246.13304,1.99802
245.89197,2.00721
245.65090,2.05141
245.40983,2.01934
245.16876,1.97594
244.92769,1.94385
244.68661,1.84705
244.44554,1.72049
244.20447,1.64750
243.96340,1.62356
243.72233,1.60718
243.48126,1.57751
243.24019,1.54174
242.99912,1.49549
242.75805,1.42959
242.51698,1.36460
242.27591,1.31971
242.03484,1.29226
241.79377,1.27100
241.55270,1.24834
241.31163,1.22022
241.07056,1.18637
240.82949,1.15450
240.58842,1.13464
240.34734,1.12611
240.10627,1.11598
239.86520,1.09289
239.62413,1.05844
239.38306,1.02110
239.14199,0.98781
238.90092,0.96444
238.65985,0.95396
238.41878,0.95088
238.17771,0.94404
237.93664,0.92817
237.69557,0.90840
237.45450,0.89200
237.21343,0.88116
236.97236,0.87368
236.73129,0.86651
236.49022,0.85780
236.24915,0.84741
236.00807,0.83669
235.76700,0.82622
235.52593,0.81421
235.28486,0.79963
235.04379,0.78576
234.80272,0.77778
234.56165,0.77698
234.32058,0.77839
234.07951,0.77614
233.83844,0.77068
233.59737,0.76687
233.35630,0.76636
233.11523,0.76561
232.87416,0.76095
232.63309,0.75297
232.39202,0.74587
232.15095,0.74373
231.90988,0.74679
231.66880,0.75060
231.42773,0.75005
231.18666,0.74465
230.94559,0.73842
230.70452,0.73499
230.46345,0.73460
230.22238,0.73468
229.98131,0.73257
229.74024,0.72893
229.49917,0.72724
229.25810,0.72909
229.01703,0.73189
228.77596,0.73266
228.53489,0.73200
228.29382,0.73201
228.05275,0.73150
227.81168,0.72672
227.57061,0.71819
227.32953,0.71244
227.08846,0.71370
226.84739,0.71865
226.60632,0.72140
226.36525,0.72000
226.12418,0.71591
225.88311,0.71009
225.64204,0.70339
225.40097,0.69830
225.15990,0.69728
224.91883,0.69953
224.67776,0.70151
224.43669,0.70136
224.19562,0.70107
223.95455,0.70326
223.71348,0.70762
223.47241,0.71238
223.23134,0.71771
222.99026,0.72444
222.74919,0.73090
222.50812,0.73398
222.26705,0.73332
222.02598,0.73109
221.78491,0.72838
221.54384,0.72518
221.30277,0.72301
221.06170,0.72444
220.82063,0.73095
220.57956,0.74213
220.33849,0.75560
220.09742,0.76722
219.85635,0.77303
219.61528,0.77305
219.37421,0.77227
219.13314,0.77713
218.89207,0.79073
218.65099,0.81043
218.40992,0.82986
218.16885,0.84379
217.92778,0.85178
217.68671,0.85755
217.44564,0.86504
217.20457,0.87488
216.96350,0.88427
216.72243,0.89014
216.48136,0.89285
216.24029,0.89649
215.99922,0.90420
215.75815,0.91431
215.51708,0.92353
215.27601,0.93298
215.03494,0.94586
214.79387,0.95973
214.55280,0.96844
214.31172,0.96999
214.07065,0.96659
213.82958,0.96085
213.58851,0.95702
213.34744,0.96050
213.10637,0.97204
212.86530,0.98686
212.62423,1.00172
212.38316,1.01718
212.14209,1.03072
211.90102,1.03517
211.65995,1.02796
211.41888,1.01553
211.17781,1.00592
210.93674,1.00207
210.69567,1.00187
210.45460,1.00116
210.21353,0.99787
209.97245,0.99492
209.73138,0.99725
209.49031,1.00518
209.24924,1.01340
209.00817,1.01731
208.76710,1.01661
208.52603,1.01205
208.28496,1.00353
208.04389,0.99258
207.80282,0.98206
207.56175,0.97321
207.32068,0.96639
207.07961,0.96356
206.83854,0.96603
206.59747,0.97047
206.35640,0.97033
206.11533,0.96154
205.87426,0.94626
205.63318,0.93056
205.39211,0.91911
205.15104,0.91239
204.90997,0.90735
204.66890,0.90049
204.42783,0.89052
204.18676,0.87849
203.94569,0.86649
203.70462,0.85674
203.46355,0.84988
203.22248,0.84358
202.98141,0.83428
202.74034,0.82093
202.49927,0.80620
202.25820,0.79414
202.01713,0.78757
201.77606,0.78564
201.53499,0.78364
201.29391,0.77799
201.05284,0.76924
200.81177,0.75835
200.57070,0.74548
200.32963,0.73251
200.08856,0.72157
199.84749,0.71158
199.60642,0.70061
199.36535,0.68980
199.12428,0.68142
198.88321,0.67492
198.64214,0.66774
198.40107,0.65870
198.16000,0.64934
197.91893,0.64230
197.67786,0.63834
197.43679,0.63523
197.19572,0.63024
196.95464,0.62323
196.71357,0.61625
196.47250,0.61072
196.23143,0.60596
195.99036,0.60082
195.74929,0.59555
195.50822,0.59092
195.26715,0.58613
195.02608,0.57960
194.78501,0.57147
194.54394,0.56313
194.30287,0.55532
194.06180,0.54838
193.82073,0.54342
193.57966,0.54119
193.33859,0.54026
193.09752,0.53815
192.85645,0.53390
192.61537,0.52824
192.37430,0.52192
192.13323,0.51585
191.89216,0.51156
191.65109,0.50951
191.41002,0.50794
191.16895,0.50546
190.92788,0.50351
190.68681,0.50378
190.44574,0.50492
190.20467,0.50385
189.96360,0.49941
189.72253,0.49336
189.48146,0.48858
189.24039,0.48681
188.99932,0.48772
188.75825,0.48938
188.51718,0.48942
188.27610,0.48657
188.03503,0.48178
187.79396,0.47725
187.55289,0.47412
187.31182,0.47230
187.07075,0.47180
186.82968,0.47234
186.58861,0.47245
186.34754,0.47120
186.10647,0.46980
185.86540,0.46925
185.62433,0.46845
185.38326,0.46676
185.14219,0.46628
184.90112,0.46906
184.66005,0.47403
184.41898,0.47883
184.17791,0.48269
183.93683,0.48542
183.69576,0.48598
183.45469,0.48474
183.21362,0.48454
182.97255,0.48673
182.73148,0.48906
182.49041,0.48921
182.24934,0.48786
182.00827,0.48695
181.76720,0.48713
181.52613,0.48744
181.28506,0.48696
181.04399,0.48671
180.80292,0.48894
180.56185,0.49388
180.32078,0.49863
180.07971,0.50009
179.83864,0.49815
179.59756,0.49618
179.35649,0.49868
179.11542,0.50679
178.87435,0.51644
178.63328,0.52331
178.39221,0.52871
178.15114,0.53693
177.91007,0.54831
177.66900,0.55863
177.42793,0.56482
177.18686,0.56841
176.94579,0.57267
176.70472,0.57971
176.46365,0.59108
176.22258,0.60734
175.98151,0.62575
175.74044,0.64160
175.49937,0.65349
175.25829,0.66450
175.01722,0.67753
174.77615,0.69257
174.53508,0.70778
174.29401,0.72173
174.05294,0.73457
173.81187,0.74732
173.57080,0.76072
173.32973,0.77489
173.08866,0.78843
172.84759,0.79873
172.60652,0.80493
172.36545,0.80979
172.12438,0.81581
171.88331,0.82000
171.64224,0.81696
171.40117,0.80776
171.16010,0.79965
170.91902,0.79650
170.67795,0.79495
170.43688,0.79044
170.19581,0.78283
169.95474,0.77485
169.71367,0.76799
169.47260,0.76272
169.23153,0.76014
168.99046,0.76036
168.74939,0.76131
168.50832,0.76117
168.26725,0.75957
168.02618,0.75580
167.78511,0.74943
167.54404,0.74316
167.30297,0.74107
167.06190,0.74403
166.82083,0.74932
166.57975,0.75413
166.33868,0.75774
166.09761,0.76066
165.85654,0.76356
165.61547,0.76687
165.37440,0.76997
165.13333,0.77194
164.89226,0.77383
164.65119,0.77853
164.41012,0.78716
164.16905,0.79733
163.92798,0.80605
163.68691,0.81280
163.44584,0.81835
163.20477,0.82278
162.96370,0.82677
162.72263,0.83254
162.48156,0.84125
162.24048,0.85127
161.99941,0.85970
161.75834,0.86352
161.51727,0.86115
161.27620,0.85525
161.03513,0.85140
160.79406,0.85148
160.55299,0.85199
160.31192,0.85007
160.07085,0.84659
159.82978,0.84276
159.58871,0.83854
159.34764,0.83489
159.10657,0.83326
158.86550,0.83122
158.62443,0.82332
158.38336,0.80892
158.14229,0.79541
157.90121,0.79042
157.66014,0.79328
157.41907,0.79654
157.17800,0.79451
156.93693,0.78806
156.69586,0.78044
156.45479,0.77274
156.21372,0.76579
155.97265,0.76204
155.73158,0.76305
155.49051,0.76660
155.24944,0.76781
155.00837,0.76324
154.76730,0.75404
154.52623,0.74408
154.28516,0.73476
154.04409,0.72338
153.80302,0.70752
153.56194,0.68905
153.32087,0.67302
153.07980,0.66293
152.83873,0.65664
152.59766,0.64851
152.35659,0.63612
152.11552,0.62255
151.87445,0.61111
151.63338,0.60131
151.39231,0.59060
151.15124,0.57764
150.91017,0.56363
150.66910,0.55117
150.42803,0.54131
150.18696,0.53265
149.94589,0.52396
149.70482,0.51555
149.46375,0.50724
149.22267,0.49836
148.98160,0.49020
148.74053,0.48560
148.49946,0.48483
148.25839,0.48417
148.01732,0.48001
147.77625,0.47281
147.53518,0.46602
147.29411,0.46191
147.05304,0.46009
146.81197,0.45928
146.57090,0.45920
146.32983,0.46081
146.08876,0.46478
145.84769,0.47007
145.60662,0.47496
145.36555,0.47928
145.12448,0.48419
144.88340,0.48985
144.64233,0.49511
144.40126,0.49886
144.16019,0.50072
143.91912,0.50094
143.67805,0.49990
143.43698,0.49724
143.19591,0.49246
142.95484,0.48684
142.71377,0.48231
142.47270,0.47859
142.23163,0.47359
141.99056,0.46666
141.74949,0.45858
141.50842,0.44977
141.26735,0.44096
141.02628,0.43445
140.78521,0.43201
140.54413,0.43255
140.30306,0.43326
140.06199,0.43259
139.82092,0.43117
139.57985,0.43075
139.33878,0.43273
139.09771,0.43705
138.85664,0.44239
138.61557,0.44721
138.37450,0.45064
138.13343,0.45298
137.89236,0.45595
137.65129,0.46179
137.41022,0.47131
137.16915,0.48338
136.92808,0.49672
136.68701,0.51136
136.44594,0.52817
136.20486,0.54713
135.96379,0.56672
135.72272,0.58543
135.48165,0.60307
135.24058,0.61990
134.99951,0.63617
134.75844,0.65364
134.51737,0.67521
134.27630,0.70188
134.03523,0.73173
133.79416,0.76163
133.55309,0.78859
133.31202,0.81054
133.07095,0.82782
132.82988,0.84330
132.58881,0.85983
132.34774,0.87788
132.10667,0.89541
131.86559,0.90869
131.62452,0.91421
131.38345,0.91055
131.14238,0.89999
130.90131,0.88766
130.66024,0.87661
130.41917,0.86500
130.17810,0.84964
129.93703,0.83106
129.69596,0.81270
129.45489,0.79594
129.21382,0.77813
128.97275,0.75571
128.73168,0.72846
128.49061,0.69992
128.24954,0.67383
128.00847,0.65084
127.76740,0.62935
127.52632,0.60818
127.28525,0.58810
127.04418,0.57100
126.80311,0.55661
126.56204,0.54122
126.32097,0.52238
126.07990,0.50290
125.83883,0.48661
125.59776,0.47298
125.35669,0.45980
125.11562,0.44783
124.87455,0.43872
124.63348,0.43145
124.39241,0.42348
124.15134,0.41375
123.91027,0.40300
123.66920,0.39282
123.42812,0.38477
123.18705,0.37902
122.94598,0.37401
122.70491,0.36834
122.46384,0.36295
122.22277,0.36050
121.98170,0.36208
121.74063,0.36527
121.49956,0.36655
121.25849,0.36540
121.01742,0.36427
120.77635,0.36524
120.53528,0.36885
120.29421,0.37544
120.05314,0.38547
119.81207,0.39828
119.57100,0.41251
119.32993,0.42723
119.08885,0.44157
118.84778,0.45511
118.60671,0.47086
118.36564,0.49404
118.12457,0.52507
117.88350,0.55726
117.64243,0.58314
117.40136,0.60025
117.16029,0.61012
116.91922,0.61582
116.67815,0.61963
116.43708,0.62058
116.19601,0.61644
115.95494,0.60863
115.71387,0.60115
115.47280,0.59455
115.23173,0.58584
114.99066,0.57367
114.74958,0.56033
114.50851,0.54925
114.26744,0.54249
114.02637,0.53954
113.78530,0.53748
113.54423,0.53350
113.30316,0.52853
113.06209,0.52625
112.82102,0.52784
112.57995,0.53000
112.33888,0.52938
112.09781,0.52718
111.85674,0.52733
111.61567,0.53175
111.37460,0.53866
111.13353,0.54475
110.89246,0.54869
110.65139,0.55106
110.41031,0.55128
110.16924,0.54793
109.92817,0.54200
109.68710,0.53520
109.44603,0.52599
109.20496,0.51160
108.96389,0.49332
108.72282,0.47566
108.48175,0.46088
108.24068,0.44789
107.99961,0.43526
107.75854,0.42276
107.51747,0.41051
107.27640,0.39817
107.03533,0.38515
106.79426,0.37135
106.55319,0.35805
106.31212,0.34729
106.07104,0.33958
105.82997,0.33300
105.58890,0.32553
105.34783,0.31727
105.10676,0.30960
104.86569,0.30316
104.62462,0.29721
104.38355,0.29041
104.14248,0.28219
103.90141,0.27299
103.66034,0.26372
103.41927,0.25543
103.17820,0.24931
102.93713,0.24632
102.69606,0.24615
102.45499,0.24671
102.21392,0.24529
101.97285,0.24051
101.73177,0.23328
101.49070,0.22597
101.24963,0.22028
101.00856,0.21594
100.76749,0.21173
100.52642,0.20755
100.28535,0.20438
100.04428,0.20275
99.80321,0.20200
99.56214,0.20114
99.32107,0.19984
99.08000,0.19864
98.83893,0.19818
98.59786,0.19799
98.35679,0.19649
98.11572,0.19276
97.87465,0.18846
97.63358,0.18663
97.39250,0.18810
97.15143,0.19089
96.91036,0.19350
96.66929,0.19671
96.42822,0.20104
96.18715,0.20517
95.94608,0.20816
95.70501,0.21096
95.46394,0.21456
95.22287,0.21885
94.98180,0.22380
94.74073,0.22965
94.49966,0.23524
94.25859,0.23860
94.01752,0.23986
93.77645,0.24105
93.53538,0.24251
93.29431,0.24216
93.05323,0.23929
92.81216,0.23621
92.57109,0.23529
92.33002,0.23655
92.08895,0.23903
91.84788,0.24248
91.60681,0.24657
91.36574,0.25087
91.12467,0.25663
90.88360,0.26647
90.64253,0.28145
90.40146,0.30043
90.16039,0.32288
89.91932,0.35053
89.67825,0.38474
89.43718,0.42340
89.19611,0.46183
88.95504,0.49623
88.71396,0.52472
88.47289,0.54579
88.23182,0.55741
87.99075,0.55674
87.74968,0.54109
87.50861,0.51202
87.26754,0.47680
87.02647,0.44302
86.78540,0.41355
86.54433,0.38737
86.30326,0.36318
86.06219,0.34045
85.82112,0.31809
85.58005,0.29487
85.33898,0.27164
85.09791,0.25108
84.85684,0.23507
84.61577,0.22315
84.37469,0.21372
84.13362,0.20554
83.89255,0.19809
83.65148,0.19121
83.41041,0.18484
83.16934,0.17875
82.92827,0.17274
82.68720,0.16673
82.44613,0.16035
82.20506,0.15300
81.96399,0.14522
81.72292,0.13956
81.48185,0.13820
81.24078,0.13956
80.99971,0.13966
80.75864,0.13686
80.51757,0.13335
80.27650,0.13145
80.03542,0.13075
79.79435,0.12932
79.55328,0.12634
79.31221,0.12287
79.07114,0.12037
78.83007,0.11901
78.58900,0.11745
78.34793,0.11436
78.10686,0.10983
77.86579,0.10540
77.62472,0.10299
77.38365,0.10341
77.14258,0.10563
76.90151,0.10717
76.66044,0.10565
76.41937,0.10115
76.17830,0.09659
75.93723,0.09448
75.69615,0.09382
75.45508,0.09236
75.21401,0.09042
74.97294,0.09018
74.73187,0.09222
74.49080,0.09493
74.24973,0.09631
74.00866,0.09540
73.76759,0.09285
73.52652,0.09057
73.28545,0.08998
73.04438,0.09009
72.80331,0.08876
72.56224,0.08640
72.32117,0.08609
72.08010,0.08862
71.83903,0.09038
71.59796,0.08847
71.35688,0.08531
71.11581,0.08536
70.87474,0.08988
70.63367,0.09742
70.39260,0.10633
70.15153,0.11510
69.91046,0.12292
69.66939,0.13090
69.42832,0.14052
69.18725,0.15039
68.94618,0.15647
68.70511,0.15581
68.46404,0.14873
68.22297,0.13812
67.98190,0.12775
67.74083,0.12029
67.49976,0.11547
67.25869,0.11062
67.01761,0.10349
66.77654,0.09469
66.53547,0.08706
66.29440,0.08304
66.05333,0.08268
65.81226,0.08376
65.57119,0.08395
65.33012,0.08320
65.08905,0.08396
64.84798,0.08862
64.60691,0.09710
64.36584,0.10674
64.12477,0.11382
63.88370,0.11602
63.64263,0.11411
63.40156,0.11039
63.16049,0.10585
62.91942,0.10024
62.67834,0.09437
62.43727,0.09015
62.19620,0.08829
61.95513,0.08720
61.71406,0.08448
61.47299,0.07928
61.23192,0.07257
60.99085,0.06605
60.74978,0.06134
60.50871,0.05953
60.26764,0.06034
60.02657,0.06213
59.78550,0.06364
59.54443,0.06511
59.30336,0.06641
59.06229,0.06586
58.82122,0.06325
58.58015,0.06164
58.33907,0.06309
58.09800,0.06503
57.85693,0.06435
57.61586,0.06214
57.37479,0.06088
57.13372,0.05988
56.89265,0.05690
56.65158,0.05227
56.41051,0.04869
56.16944,0.04809
55.92837,0.05012
55.68730,0.05349
55.44623,0.05682
55.20516,0.05862
54.96409,0.05840
54.72302,0.05751
54.48195,0.05730
54.24088,0.05732
53.99980,0.05722
53.75873,0.05815
53.51766,0.06033
53.27659,0.06113
53.03552,0.05869
52.79445,0.05591
52.55338,0.05775
52.31231,0.06471
52.07124,0.07126
51.83017,0.07116
51.58910,0.06288
51.34803,0.05018
51.10696,0.03938
50.86589,0.03543
50.62482,0.03837
50.38375,0.04438
50.14268,0.05028
49.90161,0.05403
49.66053,0.05282
49.41946,0.04608
49.17839,0.03841
48.93732,0.03348
48.69625,0.02731
48.45518,0.01325
48.21411,-0.00800
47.97304,-0.02683
47.73197,-0.03369
47.49090,-0.02824
47.24983,-0.01715
47.00876,-0.00640
46.76769,0.00136
46.52662,0.00674
46.28555,0.01369
46.04448,0.02504
45.80341,0.03589
45.56234,0.03670
45.32126,0.02461
45.08019,0.00689
44.83912,-0.00726
44.59805,-0.01415
44.35698,-0.01548
44.11591,-0.01444
43.87484,-0.01204
43.63377,-0.00712
43.39270,0.00071
43.15163,0.00918
42.91056,0.01495
42.66949,0.01565
42.42842,0.01096
42.18735,0.00439
41.94628,0.00210
41.70521,0.00635
41.46414,0.01164
41.22307,0.01138
40.98199,0.00661
40.74092,0.00354
40.49985,0.00316
40.25878,-0.00030
40.01771,-0.00896
39.77664,-0.01601
39.53557,-0.01387
39.29450,-0.00146
39.05343,0.01626
38.81236,0.03040
38.57129,0.03276
38.33022,0.02282
38.08915,0.01111
37.84808,0.01222
37.60701,0.03160
37.36594,0.05761
37.12487,0.06858
36.88380,0.05157
36.64272,0.01269
36.40165,-0.02572
36.16058,-0.04022
35.91951,-0.02622
35.67844,0.00015
35.43737,0.02426
35.19630,0.04649
34.95523,0.07426
34.71416,0.10659
34.47309,0.12637
34.23202,0.11448
33.99095,0.07570
33.74988,0.04276
33.50881,0.04624
33.26774,0.08484
33.02667,0.13609
32.78560,0.18258
32.54453,0.21402
32.30345,0.22231
32.06238,0.21066
31.82131,0.18399
31.58024,0.13962
31.33917,0.08725
31.09810,0.05323
30.85703,0.05667
30.61596,0.08285
30.37489,0.09687
30.13382,0.08231
29.89275,0.05322
29.65168,0.03351
29.41061,0.03197
29.16954,0.04304
28.92847,0.06330
28.68740,0.09496
28.44633,0.13481
28.20526,0.16337
27.96418,0.16147
27.72311,0.15160
27.48204,0.16106
27.24097,0.17925
26.99990,0.18954
26.75883,0.18738
26.51776,0.16496
26.27669,0.13444
26.03562,0.12785
25.79455,0.15009
25.55348,0.17934
25.31241,0.20545
25.07134,0.23926
24.83027,0.27354
24.58920,0.28362
24.34813,0.28000
24.10706,0.29000
23.86599,0.29656
23.62491,0.27072
23.38384,0.24400
23.14277,0.26723
22.90170,0.35264
22.66063,0.43643
22.41956,0.44707
22.17849,0.42288
21.93742,0.41338
21.69635,0.43874
21.45528,0.47713
21.21421,0.49869
20.97314,0.50862
20.73207,0.50023
20.49100,0.47113
20.24993,0.41745
20.00886,0.36728
19.76779,0.36436
19.52672,0.40636
19.28564,0.46964
19.04457,0.55389
18.80350,0.70086
18.56243,0.88515
18.32136,0.91030
18.08029,0.87868
17.83922,0.71166
17.59815,0.51954
17.35708,0.46508
17.11601,0.54950
16.87494,0.71804
16.63387,0.85818
16.39280,1.04916
16.15173,1.27938
15.91066,0.89661
15.66959,0.75116
15.42852,0.85340
15.18745,0.86392
14.94637,0.80421
14.70530,0.77673
14.46423,0.81210
14.22316,0.90844
13.98209,0.89508
13.74102,0.83251
13.49995,0.97115
13.25888,1.05812
13.01781,0.95466
12.77674,0.94914
12.53567,1.03219
12.29460,0.98133
12.05353,0.89767
11.81246,0.76446
11.57139,0.69583
11.33032,0.73121
11.08925,0.81080
10.84818,0.86561
10.60710,0.88115
10.36603,0.88988
10.12496,0.84932
9.88389,0.79114
9.64282,0.73904
9.40175,0.71672
9.16068,0.76278
8.91961,0.70928
8.67854,0.56499
8.43747,0.50767
8.19640,0.52331
7.95533,0.58888
7.71426,0.69578
7.47319,0.74474
7.23212,0.62132
6.99105,0.47641
6.74998,0.48301
6.50891,0.65748
6.26783,0.88667
6.02676,0.92636
5.78569,0.71902
5.54462,0.76867
5.30355,1.21539
5.06248,0.76447
4.82141,0.61010
4.58034,0.63725
4.33927,0.75949
4.09820,0.84925
3.85713,0.95566
3.61606,1.08709
3.37499,0.75180
3.13392,0.59736
2.89285,0.59051
2.65178,0.58361
2.41071,0.60724
2.16964,0.71582
1.92856,0.80090
1.68749,0.71583
1.44642,0.61847
1.20535,0.55652
0.96428,0.60433
0.72321,0.80334
0.48214,0.95072
0.24107,0.85619
-0.00000,0.66618
