399.69498,1.88051
399.45391,1.86598
399.21284,1.85037
398.97177,1.83324
398.73070,1.81753
398.48963,1.79407
398.24856,1.75995
398.00749,1.72315
397.76642,1.71521
397.52535,1.75317
397.28428,1.81318
397.04321,1.86084
396.80214,1.87136
396.56107,1.85211
396.32000,1.82963
396.07892,1.82666
395.83785,1.85598
395.59678,1.88359
395.35571,1.85330
395.11464,1.81358
394.87357,1.80273
394.63250,1.75700
394.39143,1.71191
394.15036,1.72192
393.90929,1.75404
393.66822,1.73251
393.42715,1.69916
393.18608,1.69014
392.94501,1.70321
392.70394,1.71293
392.46287,1.72830
392.22180,1.77215
391.98073,1.78532
391.73965,1.72176
391.49858,1.66068
391.25751,1.63035
391.01644,1.61810
390.77537,1.61501
390.53430,1.62847
390.29323,1.65976
390.05216,1.67508
389.81109,1.67229
389.57002,1.65542
389.32895,1.61961
389.08788,1.57803
388.84681,1.55384
388.60574,1.56959
388.36467,1.61954
388.12360,1.69580
387.88253,1.75878
387.64146,1.75956
387.40038,1.71507
387.15931,1.68547
386.91824,1.68863
386.67717,1.69391
386.43610,1.67209
386.19503,1.64300
385.95396,1.63389
385.71289,1.63578
385.47182,1.62315
385.23075,1.57813
384.98968,1.54238
384.74861,1.58261
384.50754,1.67572
384.26647,1.68367
384.02540,1.64045
383.78433,1.58704
383.54326,1.52068
383.30219,1.45029
383.06111,1.40781
382.82004,1.40628
382.57897,1.42873
382.33790,1.44195
382.09683,1.43363
381.85576,1.42919
381.61469,1.45000
381.37362,1.49068
381.13255,1.53347
380.89148,1.55263
380.65041,1.49873
380.40934,1.45009
380.16827,1.43778
379.92720,1.45685
379.68613,1.48999
379.44506,1.51496
379.20399,1.51839
378.96292,1.51575
378.72184,1.53022
378.48077,1.55604
378.23970,1.56052
377.99863,1.51500
377.75756,1.46080
377.51649,1.46385
377.27542,1.50194
377.03435,1.52289
376.79328,1.51237
376.55221,1.49309
376.31114,1.49058
376.07007,1.51657
375.82900,1.54320
375.58793,1.53603
375.34686,1.51215
375.10579,1.51131
374.86472,1.54075
374.62365,1.57024
374.38257,1.60165
374.14150,1.63201
373.90043,1.62806
373.65936,1.58970
373.41829,1.55674
373.17722,1.55501
372.93615,1.58563
372.69508,1.64654
372.45401,1.69681
372.21294,1.66455
371.97187,1.65092
371.73080,1.66726
371.48973,1.68794
371.24866,1.70519
371.00759,1.72743
370.76652,1.72781
370.52545,1.65442
370.28437,1.57249
370.04330,1.53285
369.80223,1.54012
369.56116,1.58379
369.32009,1.64288
369.07902,1.67625
368.83795,1.66379
368.59688,1.63588
368.35581,1.61398
368.11474,1.59901
367.87367,1.57823
367.63260,1.54592
367.39153,1.52159
367.15046,1.51454
366.90939,1.50322
366.66832,1.48408
366.42725,1.47795
366.18618,1.49131
365.94510,1.51998
365.70403,1.55873
365.46296,1.58306
365.22189,1.56745
364.98082,1.53557
364.73975,1.52042
364.49868,1.52703
364.25761,1.54119
364.01654,1.55435
363.77547,1.56715
363.53440,1.57339
363.29333,1.56202
363.05226,1.53548
362.81119,1.51700
362.57012,1.51648
362.32905,1.51279
362.08798,1.50058
361.84691,1.50411
361.60583,1.52659
361.36476,1.54392
361.12369,1.53798
360.88262,1.51714
360.64155,1.49696
360.40048,1.48181
360.15941,1.46861
359.91834,1.45597
359.67727,1.44695
359.43620,1.44588
359.19513,1.45446
358.95406,1.46626
358.71299,1.46315
358.47192,1.43831
358.23085,1.42232
357.98978,1.43023
357.74871,1.45369
357.50764,1.47883
357.26656,1.48877
357.02549,1.47434
356.78442,1.45216
356.54335,1.43438
356.30228,1.42114
356.06121,1.42648
355.82014,1.46080
355.57907,1.50015
355.33800,1.50560
355.09693,1.47505
354.85586,1.44696
354.61479,1.43171
354.37372,1.41653
354.13265,1.40243
353.89158,1.39871
353.65051,1.40531
353.40944,1.41722
353.16837,1.42716
352.92729,1.42359
352.68622,1.40995
352.44515,1.41107
352.20408,1.44568
351.96301,1.50409
351.72194,1.55210
351.48087,1.56215
351.23980,1.54168
350.99873,1.51499
350.75766,1.49893
350.51659,1.50702
350.27552,1.53771
350.03445,1.55731
349.79338,1.53872
349.55231,1.50013
349.31124,1.46571
349.07017,1.44564
348.82910,1.44371
348.58802,1.46806
348.34695,1.51535
348.10588,1.55824
347.86481,1.56088
347.62374,1.54154
347.38267,1.54114
347.14160,1.54429
346.90053,1.52569
346.65946,1.49931
346.41839,1.49477
346.17732,1.52912
345.93625,1.58721
345.69518,1.61137
345.45411,1.58429
345.21304,1.54122
344.97197,1.51125
344.73090,1.50523
344.48983,1.52135
344.24875,1.55330
344.00768,1.57930
343.76661,1.56573
343.52554,1.52496
343.28447,1.49910
343.04340,1.50936
342.80233,1.53746
342.56126,1.54916
342.32019,1.54267
342.07912,1.53747
341.83805,1.54260
341.59698,1.55364
341.35591,1.55956
341.11484,1.55784
340.87377,1.55787
340.63270,1.53526
340.39163,1.49471
340.15056,1.47446
339.90948,1.49708
339.66841,1.54772
339.42734,1.58706
339.18627,1.61328
338.94520,1.66701
338.70413,1.75351
338.46306,1.75492
338.22199,1.69769
337.98092,1.67167
337.73985,1.66312
337.49878,1.63726
337.25771,1.59042
337.01664,1.55365
336.77557,1.54344
336.53450,1.53475
336.29343,1.54123
336.05236,1.55998
335.81129,1.57820
335.57021,1.57395
335.32914,1.54999
335.08807,1.55192
334.84700,1.58878
334.60593,1.61697
334.36486,1.62137
334.12379,1.65022
333.88272,1.67469
333.64165,1.66801
333.40058,1.61952
333.15951,1.54046
332.91844,1.47843
332.67737,1.45141
332.43630,1.45415
332.19523,1.46390
331.95416,1.46133
331.71309,1.45190
331.47202,1.46267
331.23094,1.50532
330.98987,1.52908
330.74880,1.54429
330.50773,1.56277
330.26666,1.56331
330.02559,1.52495
329.78452,1.46719
329.54345,1.44157
329.30238,1.45772
329.06131,1.49713
328.82024,1.53935
328.57917,1.56442
328.33810,1.55046
328.09703,1.51059
327.85596,1.47601
327.61489,1.45728
327.37382,1.45372
327.13275,1.47238
326.89167,1.51943
326.65060,1.56514
326.40953,1.58035
326.16846,1.58879
325.92739,1.60152
325.68632,1.59162
325.44525,1.54012
325.20418,1.46374
324.96311,1.41591
324.72204,1.41380
324.48097,1.43557
324.23990,1.44929
323.99883,1.44468
323.75776,1.43137
323.51669,1.43979
323.27562,1.48219
323.03455,1.53444
322.79348,1.54186
322.55240,1.53378
322.31133,1.53319
322.07026,1.55550
321.82919,1.62122
321.58812,1.68980
321.34705,1.61992
321.10598,1.56071
320.86491,1.53812
320.62384,1.53185
320.38277,1.53172
320.14170,1.55001
319.90063,1.56200
319.65956,1.52845
319.41849,1.47804
319.17742,1.45094
318.93635,1.44938
318.69528,1.47313
318.45421,1.50253
318.21313,1.48698
317.97206,1.46912
317.73099,1.47847
317.48992,1.48837
317.24885,1.47758
317.00778,1.46014
316.76671,1.46207
316.52564,1.48154
316.28457,1.49575
316.04350,1.49022
315.80243,1.49459
315.56136,1.52528
315.32029,1.51270
315.07922,1.46225
314.83815,1.43422
314.59708,1.42955
314.35601,1.44726
314.11494,1.45198
313.87386,1.41764
313.63279,1.39409
313.39172,1.41103
313.15065,1.45836
312.90958,1.51175
312.66851,1.54057
312.42744,1.54319
312.18637,1.53582
311.94530,1.50874
311.70423,1.49933
311.46316,1.51633
311.22209,1.54325
310.98102,1.58349
310.73995,1.61585
310.49888,1.56604
310.25781,1.55186
310.01674,1.55219
309.77567,1.53542
309.53459,1.54737
309.29352,1.60701
309.05245,1.66372
308.81138,1.64809
308.57031,1.59482
308.32924,1.56614
308.08817,1.55276
307.84710,1.55293
307.60603,1.54018
307.36496,1.49315
307.12389,1.45841
306.88282,1.46977
306.64175,1.52824
306.40068,1.56681
306.15961,1.52253
305.91854,1.47874
305.67747,1.45259
305.43640,1.44226
305.19532,1.44371
304.95425,1.45453
304.71318,1.48827
304.47211,1.56355
304.23104,1.63448
303.98997,1.61089
303.74890,1.55940
303.50783,1.52866
303.26676,1.52962
303.02569,1.55508
302.78462,1.58457
302.54355,1.59123
302.30248,1.55999
302.06141,1.51488
301.82034,1.49633
301.57927,1.50834
301.33820,1.53585
301.09713,1.57043
300.85605,1.59330
300.61498,1.58933
300.37391,1.57446
300.13284,1.52636
299.89177,1.47782
299.65070,1.46285
299.40963,1.47909
299.16856,1.51029
298.92749,1.51819
298.68642,1.47193
298.44535,1.41788
298.20428,1.39672
297.96321,1.41751
297.72214,1.46930
297.48107,1.51667
297.24000,1.52176
296.99893,1.48921
296.75786,1.45786
296.51678,1.45126
296.27571,1.45669
296.03464,1.43621
295.79357,1.38307
295.55250,1.34278
295.31143,1.35018
295.07036,1.40511
294.82929,1.47101
294.58822,1.49074
294.34715,1.45578
294.10608,1.41484
293.86501,1.39130
293.62394,1.37923
293.38287,1.37672
293.14180,1.38851
292.90073,1.40256
292.65966,1.39393
292.41859,1.36622
292.17751,1.35139
291.93644,1.37104
291.69537,1.41756
291.45430,1.45255
291.21323,1.43669
290.97216,1.38679
290.73109,1.34400
290.49002,1.32975
290.24895,1.34233
290.00788,1.36066
289.76681,1.35928
289.52574,1.33771
289.28467,1.32002
289.04360,1.31667
288.80253,1.31616
288.56146,1.30856
288.32039,1.30076
288.07932,1.30286
287.83824,1.31399
287.59717,1.32433
287.35610,1.32120
287.11503,1.30446
286.87396,1.28975
286.63289,1.29053
286.39182,1.30499
286.15075,1.32152
285.90968,1.33088
285.66861,1.33009
285.42754,1.32169
285.18647,1.31062
284.94540,1.30092
284.70433,1.29394
284.46326,1.28924
284.22219,1.28601
283.98112,1.28365
283.74005,1.28083
283.49897,1.27568
283.25790,1.27111
283.01683,1.26762
282.77576,1.26389
282.53469,1.26426
282.29362,1.27300
282.05255,1.28799
281.81148,1.29900
281.57041,1.29654
281.32934,1.28587
281.08827,1.28091
280.84720,1.28766
280.60613,1.30069
280.36506,1.30932
280.12399,1.30736
279.88292,1.29747
279.64185,1.28855
279.40078,1.28848
279.15970,1.29486
278.91863,1.29692
278.67756,1.28784
278.43649,1.27348
278.19542,1.26417
277.95435,1.26360
277.71328,1.26584
277.47221,1.26316
277.23114,1.25621
276.99007,1.24972
276.74900,1.24543
276.50793,1.24326
276.26686,1.24363
276.02579,1.24696
275.78472,1.25273
275.54365,1.25980
275.30258,1.26750
275.06151,1.27589
274.82043,1.28402
274.57936,1.29011
274.33829,1.29338
274.09722,1.29247
273.85615,1.28584
273.61508,1.27663
273.37401,1.27124
273.13294,1.26951
272.89187,1.26664
272.65080,1.26478
272.40973,1.27078
272.16866,1.28203
271.92759,1.28574
271.68652,1.27696
271.44545,1.26621
271.20438,1.26456
270.96331,1.26954
270.72224,1.27067
270.48116,1.26818
270.24009,1.27364
269.99902,1.29037
269.75795,1.30491
269.51688,1.30300
269.27581,1.29043
269.03474,1.28582
268.79367,1.29676
268.55260,1.31466
268.31153,1.32844
268.07046,1.33423
267.82939,1.33627
267.58832,1.34297
267.34725,1.35737
267.10618,1.37368
266.86511,1.38313
266.62404,1.38221
266.38297,1.37585
266.14189,1.37375
265.90082,1.38120
265.65975,1.39433
265.41868,1.41020
265.17761,1.43217
264.93654,1.45783
264.69547,1.47755
264.45440,1.48911
264.21333,1.49676
263.97226,1.50064
263.73119,1.50337
263.49012,1.51412
263.24905,1.53332
263.00798,1.54845
262.76691,1.55227
262.52584,1.55302
262.28477,1.56834
262.04370,1.60100
261.80262,1.62762
261.56155,1.63089
261.32048,1.61523
261.07941,1.59608
260.83834,1.59246
260.59727,1.61408
260.35620,1.65335
260.11513,1.69637
259.87406,1.73617
259.63299,1.76014
259.39192,1.76033
259.15085,1.76121
258.90978,1.77741
258.66871,1.80709
258.42764,1.84015
258.18657,1.85817
257.94550,1.87226
257.70443,1.90180
257.46335,1.93441
257.22228,1.95749
256.98121,1.98751
256.74014,2.03957
256.49907,2.09696
256.25800,2.11323
256.01693,2.05535
255.77586,1.98319
255.53479,1.95250
255.29372,1.94650
255.05265,1.96159
254.81158,2.01419
254.57051,2.03197
254.32944,1.95269
254.08837,1.90216
253.84730,1.92521
253.60623,1.98853
253.36516,2.00545
253.12408,1.95197
252.88301,1.88947
252.64194,1.85824
252.40087,1.84398
252.15980,1.78085
251.91873,1.71275
251.67766,1.69906
251.43659,1.74495
251.19552,1.79772
250.95445,1.77900
250.71338,1.77379
250.47231,1.77554
250.23124,1.75581
249.99017,1.73508
249.74910,1.73831
249.50803,1.76735
249.26696,1.79197
249.02589,1.78969
248.78481,1.76900
248.54374,1.75587
248.30267,1.75798
248.06160,1.75598
247.82053,1.73582
247.57946,1.70914
247.33839,1.70062
247.09732,1.72490
246.85625,1.76266
246.61518,1.77256
246.37411,1.75277
246.13304,1.73164
245.89197,1.72349
245.65090,1.72238
245.40983,1.71276
245.16876,1.69958
244.92769,1.70985
244.68661,1.75299
244.44554,1.79613
244.20447,1.80144
243.96340,1.77642
243.72233,1.75563
243.48126,1.75783
243.24019,1.78039
242.99912,1.84665
242.75805,1.93178
242.51698,1.87974
242.27591,1.77570
242.03484,1.67130
241.79377,1.59000
241.55270,1.55221
241.31163,1.53380
241.07056,1.49752
240.82949,1.45439
240.58842,1.42896
240.34734,1.42040
240.10627,1.40626
239.86520,1.37216
239.62413,1.33577
239.38306,1.31511
239.14199,1.30518
238.90092,1.28757
238.65985,1.25427
238.41878,1.21740
238.17771,1.19048
237.93664,1.17362
237.69557,1.15640
237.45450,1.13440
237.21343,1.11415
236.97236,1.10024
236.73129,1.08829
236.49022,1.07455
236.24915,1.06393
236.00807,1.06232
235.76700,1.06718
235.52593,1.06622
235.28486,1.05339
235.04379,1.04137
234.80272,1.04180
234.56165,1.04603
234.32058,1.03605
234.07951,1.01181
233.83844,0.98931
233.59737,0.97778
233.35630,0.97277
233.11523,0.96712
232.87416,0.96091
232.63309,0.95776
232.39202,0.95548
232.15095,0.94783
231.90988,0.93559
231.66880,0.92748
231.42773,0.92897
231.18666,0.93673
230.94559,0.94453
230.70452,0.94988
230.46345,0.95176
230.22238,0.94723
229.98131,0.93795
229.74024,0.93403
229.49917,0.94308
229.25810,0.95994
229.01703,0.97307
228.77596,0.97570
228.53489,0.96697
228.29382,0.95347
228.05275,0.94462
227.81168,0.94180
227.57061,0.93781
227.32953,0.92829
227.08846,0.91713
226.84739,0.91007
226.60632,0.90879
226.36525,0.91133
226.12418,0.91609
225.88311,0.92362
225.64204,0.93283
225.40097,0.93767
225.15990,0.93393
224.91883,0.92769
224.67776,0.92551
224.43669,0.92165
224.19562,0.91037
223.95455,0.90072
223.71348,0.90189
223.47241,0.90732
223.23134,0.90574
222.99026,0.90017
222.74919,0.90306
222.50812,0.91793
222.26705,0.93567
222.02598,0.94909
221.78491,0.95952
221.54384,0.96742
221.30277,0.97144
221.06170,0.97385
220.82063,0.97561
220.57956,0.97279
220.33849,0.96588
220.09742,0.96483
219.85635,0.97503
219.61528,0.99001
219.37421,1.00431
219.13314,1.01985
218.89207,1.03582
218.65099,1.04855
218.40992,1.06206
218.16885,1.07902
217.92778,1.08845
217.68671,1.08606
217.44564,1.08710
217.20457,1.09786
216.96350,1.10671
216.72243,1.10589
216.48136,1.10303
216.24029,1.11056
215.99922,1.13316
215.75815,1.16477
215.51708,1.19566
215.27601,1.21819
215.03494,1.22602
214.79387,1.22126
214.55280,1.21641
214.31172,1.21756
214.07065,1.21989
213.82958,1.22044
213.58851,1.22167
213.34744,1.22490
213.10637,1.23033
212.86530,1.24099
212.62423,1.26241
212.38316,1.29321
212.14209,1.32565
211.90102,1.34901
211.65995,1.34601
211.41888,1.30784
211.17781,1.25363
210.93674,1.21083
210.69567,1.19522
210.45460,1.21475
210.21353,1.27279
209.97245,1.35781
209.73138,1.42070
209.49031,1.41386
209.24924,1.36693
209.00817,1.31314
208.76710,1.26567
208.52603,1.23495
208.28496,1.22755
208.04389,1.23639
207.80282,1.24697
207.56175,1.25381
207.32068,1.25844
207.07961,1.25746
206.83854,1.24757
206.59747,1.22965
206.35640,1.20224
206.11533,1.16741
205.87426,1.13907
205.63318,1.13308
205.39211,1.15183
205.15104,1.17859
204.90997,1.18106
204.66890,1.14807
204.42783,1.10838
204.18676,1.08189
203.94569,1.07201
203.70462,1.07719
203.46355,1.09350
203.22248,1.11534
202.98141,1.12819
202.74034,1.10984
202.49927,1.06122
202.25820,1.01066
202.01713,0.97932
201.77606,0.96944
201.53499,0.97478
201.29391,0.98506
201.05284,0.98203
200.81177,0.95307
200.57070,0.91338
200.32963,0.88527
200.08856,0.87724
199.84749,0.88497
199.60642,0.89271
199.36535,0.88595
199.12428,0.87040
198.88321,0.85898
198.64214,0.85542
198.40107,0.85614
198.16000,0.85572
197.91893,0.85070
197.67786,0.84016
197.43679,0.82520
197.19572,0.81051
196.95464,0.80209
196.71357,0.80101
196.47250,0.80162
196.23143,0.79556
195.99036,0.77974
195.74929,0.76061
195.50822,0.74733
195.26715,0.74335
195.02608,0.74275
194.78501,0.73512
194.54394,0.71938
194.30287,0.70648
194.06180,0.70704
193.82073,0.72214
193.57966,0.73691
193.33859,0.72963
193.09752,0.70404
192.85645,0.68319
192.61537,0.67999
192.37430,0.69209
192.13323,0.70417
191.89216,0.70233
191.65109,0.69125
191.41002,0.68130
191.16895,0.67477
190.92788,0.66908
190.68681,0.66407
190.44574,0.66240
190.20467,0.66385
189.96360,0.66239
189.72253,0.65278
189.48146,0.64134
189.24039,0.63890
188.99932,0.64500
188.75825,0.64875
188.51718,0.64550
188.27610,0.64164
188.03503,0.64071
187.79396,0.63726
187.55289,0.62822
187.31182,0.62098
187.07075,0.62431
186.82968,0.63610
186.58861,0.64202
186.34754,0.63453
186.10647,0.62648
185.86540,0.63072
185.62433,0.64177
185.38326,0.64554
185.14219,0.64172
184.90112,0.64079
184.66005,0.64472
184.41898,0.64796
184.17791,0.64877
183.93683,0.64805
183.69576,0.64486
183.45469,0.64096
183.21362,0.64148
182.97255,0.64680
182.73148,0.65022
182.49041,0.64608
182.24934,0.63683
182.00827,0.62957
181.76720,0.62882
181.52613,0.63254
181.28506,0.63445
181.04399,0.63154
180.80292,0.62674
180.56185,0.62423
180.32078,0.62665
180.07971,0.63534
179.83864,0.64758
179.59756,0.65682
179.35649,0.66289
179.11542,0.67388
178.87435,0.69116
178.63328,0.70522
178.39221,0.71240
178.15114,0.71997
177.91007,0.72844
177.66900,0.73125
177.42793,0.73163
177.18686,0.73955
176.94579,0.75372
176.70472,0.76574
176.46365,0.77642
176.22258,0.79121
175.98151,0.80534
175.74044,0.81090
175.49937,0.81476
175.25829,0.83087
175.01722,0.85884
174.77615,0.88514
174.53508,0.90215
174.29401,0.91248
174.05294,0.92010
173.81187,0.93252
173.57080,0.95779
173.32973,0.98844
173.08866,1.00718
172.84759,1.01398
172.60652,1.01880
172.36545,1.01984
172.12438,1.01262
171.88331,1.00034
171.64224,0.98672
171.40117,0.97219
171.16010,0.95668
170.91902,0.94171
170.67795,0.93140
170.43688,0.92945
170.19581,0.93626
169.95474,0.95096
169.71367,0.97265
169.47260,0.99641
169.23153,1.01327
168.99046,1.01865
168.74939,1.01389
168.50832,0.99908
168.26725,0.97622
168.02618,0.95258
167.78511,0.93493
167.54404,0.92517
167.30297,0.92239
167.06190,0.92565
166.82083,0.93363
166.57975,0.94235
166.33868,0.94625
166.09761,0.94523
165.85654,0.94724
165.61547,0.96061
165.37440,0.98466
165.13333,1.01008
164.89226,1.02905
164.65119,1.04004
164.41012,1.04135
164.16905,1.03025
163.92798,1.01068
163.68691,0.99282
163.44584,0.98552
163.20477,0.99293
162.96370,1.01503
162.72263,1.04552
162.48156,1.07072
162.24048,1.07878
161.99941,1.07326
161.75834,1.06605
161.51727,1.05897
161.27620,1.04691
161.03513,1.03021
160.79406,1.01405
160.55299,1.00203
160.31192,0.99571
160.07085,0.99664
159.82978,1.00606
159.58871,1.02577
159.34764,1.05594
159.10657,1.08391
158.86550,1.08420
158.62443,1.05170
158.38336,1.01349
158.14229,0.99351
157.90121,0.99401
157.66014,1.00144
157.41907,1.00177
157.17800,0.99381
156.93693,0.98515
156.69586,0.98119
156.45479,0.98072
156.21372,0.97572
155.97265,0.95854
155.73158,0.93210
155.49051,0.90617
155.24944,0.88860
155.00837,0.88159
154.76730,0.88369
154.52623,0.89298
154.28516,0.90360
154.04409,0.90283
153.80302,0.88284
153.56194,0.85273
153.32087,0.82817
153.07980,0.81623
152.83873,0.81500
152.59766,0.82060
152.35659,0.82732
152.11552,0.82298
151.87445,0.79873
151.63338,0.76477
151.39231,0.73897
151.15124,0.73051
150.91017,0.73716
150.66910,0.74547
150.42803,0.73904
150.18696,0.71609
149.94589,0.68937
149.70482,0.66899
149.46375,0.65673
149.22267,0.65107
148.98160,0.65006
148.74053,0.64875
148.49946,0.64044
148.25839,0.62495
148.01732,0.61059
147.77625,0.60540
147.53518,0.60933
147.29411,0.61355
147.05304,0.60883
146.81197,0.59699
146.57090,0.59003
146.32983,0.59692
146.08876,0.61378
145.84769,0.62579
145.60662,0.62272
145.36555,0.61239
145.12448,0.60972
144.88340,0.62016
144.64233,0.63599
144.40126,0.64445
144.16019,0.64329
143.91912,0.64039
143.67805,0.64057
143.43698,0.64160
143.19591,0.63797
142.95484,0.62890
142.71377,0.62047
142.47270,0.61605
142.23163,0.61146
141.99056,0.60275
141.74949,0.59320
141.50842,0.58845
141.26735,0.58789
141.02628,0.58573
140.78521,0.57975
140.54413,0.57319
140.30306,0.56757
140.06199,0.56000
139.82092,0.55061
139.57985,0.54590
139.33878,0.54994
139.09771,0.55842
138.85664,0.56591
138.61557,0.57328
138.37450,0.58271
138.13343,0.59303
137.89236,0.60150
137.65129,0.60628
137.41022,0.60816
137.16915,0.61082
136.92808,0.61895
136.68701,0.63525
136.44594,0.65877
136.20486,0.68498
135.96379,0.70921
135.72272,0.73311
135.48165,0.76389
135.24058,0.80248
134.99951,0.83936
134.75844,0.86863
134.51737,0.89435
134.27630,0.91758
134.03523,0.93690
133.79416,0.95672
133.55309,0.97805
133.31202,0.99079
133.07095,0.99223
132.82988,0.99546
132.58881,1.00688
132.34774,1.01711
132.10667,1.02332
131.86559,1.03831
131.62452,1.06514
131.38345,1.08740
131.14238,1.09087
130.90131,1.08589
130.66024,1.09328
130.41917,1.11422
130.17810,1.12510
129.93703,1.10816
129.69596,1.07006
129.45489,1.02614
129.21382,0.98646
128.97275,0.95226
128.73168,0.91811
128.49061,0.88231
128.24954,0.84950
128.00847,0.82065
127.76740,0.79441
127.52632,0.77418
127.28525,0.76057
127.04418,0.74415
126.80311,0.71775
126.56204,0.68808
126.32097,0.66492
126.07990,0.64890
125.83883,0.63502
125.59776,0.62145
125.35669,0.61064
125.11562,0.60276
124.87455,0.59307
124.63348,0.57861
124.39241,0.56149
124.15134,0.54415
123.91027,0.52778
123.66920,0.51532
123.42812,0.50997
123.18705,0.50998
122.94598,0.50881
122.70491,0.50321
122.46384,0.49784
122.22277,0.49815
121.98170,0.50285
121.74063,0.50667
121.49956,0.50694
121.25849,0.50518
121.01742,0.50608
120.77635,0.51542
120.53528,0.53473
120.29421,0.55799
120.05314,0.57699
119.81207,0.58962
119.57100,0.60091
119.32993,0.61694
119.08885,0.63897
118.84778,0.66272
118.60671,0.68442
118.36564,0.70474
118.12457,0.72488
117.88350,0.74330
117.64243,0.75794
117.40136,0.76895
117.16029,0.77818
116.91922,0.78542
116.67815,0.78630
116.43708,0.77865
116.19601,0.76870
115.95494,0.76495
115.71387,0.76853
115.47280,0.77480
115.23173,0.78243
114.99066,0.79427
114.74958,0.80933
114.50851,0.82046
114.26744,0.81993
114.02637,0.80447
113.78530,0.77715
113.54423,0.74802
113.30316,0.72690
113.06209,0.71446
112.82102,0.70328
112.57995,0.68675
112.33888,0.66807
112.09781,0.65787
111.85674,0.66416
111.61567,0.68579
111.37460,0.71412
111.13353,0.74143
110.89246,0.76785
110.65139,0.79759
110.41031,0.82954
110.16924,0.85175
109.92817,0.84426
109.68710,0.80262
109.44603,0.75107
109.20496,0.71174
108.96389,0.68353
108.72282,0.65386
108.48175,0.61981
108.24068,0.59166
107.99961,0.58005
107.75854,0.58767
107.51747,0.60728
107.27640,0.62205
107.03533,0.61697
106.79426,0.59043
106.55319,0.54910
106.31212,0.50440
106.07104,0.46851
105.82997,0.44691
105.58890,0.43769
105.34783,0.43824
105.10676,0.44981
104.86569,0.47185
104.62462,0.49188
104.38355,0.48969
104.14248,0.46219
103.90141,0.42476
103.66034,0.39015
103.41927,0.36460
103.17820,0.35268
102.93713,0.35893
102.69606,0.38411
102.45499,0.41637
102.21392,0.42651
101.97285,0.39724
101.73177,0.35399
101.49070,0.32272
101.24963,0.30898
101.00856,0.31126
100.76749,0.32650
100.52642,0.34430
100.28535,0.34756
100.04428,0.32924
99.80321,0.30133
99.56214,0.28106
99.32107,0.27972
99.08000,0.29947
98.83893,0.32832
98.59786,0.33975
98.35679,0.32044
98.11572,0.29138
97.87465,0.27618
97.63358,0.28275
97.39250,0.30137
97.15143,0.30568
96.91036,0.28970
96.66929,0.28162
96.42822,0.29963
96.18715,0.33714
95.94608,0.36375
95.70501,0.35393
95.46394,0.33469
95.22287,0.33942
94.98180,0.36750
94.74073,0.38659
94.49966,0.37744
94.25859,0.36698
94.01752,0.37430
93.77645,0.38796
93.53538,0.38948
93.29431,0.38316
93.05323,0.38666
92.81216,0.39839
92.57109,0.39877
92.33002,0.38566
92.08895,0.37920
91.84788,0.39126
91.60681,0.40871
91.36574,0.41171
91.12467,0.41179
90.88360,0.42802
90.64253,0.44776
90.40146,0.45089
90.16039,0.45922
89.91932,0.49658
89.67825,0.54689
89.43718,0.58724
89.19611,0.62527
88.95504,0.65434
88.71396,0.66098
88.47289,0.67837
88.23182,0.72548
87.99075,0.76021
87.74968,0.73995
87.50861,0.69574
87.26754,0.66278
87.02647,0.63881
86.78540,0.61111
86.54433,0.58045
86.30326,0.55371
86.06219,0.52782
85.82112,0.49637
85.58005,0.46554
85.33898,0.44367
85.09791,0.42615
84.85684,0.40406
84.61577,0.38022
84.37469,0.36226
84.13362,0.34983
83.89255,0.33864
83.65148,0.32653
83.41041,0.31102
83.16934,0.29369
82.92827,0.28236
82.68720,0.27960
82.44613,0.27790
82.20506,0.27183
81.96399,0.26398
81.72292,0.25733
81.48185,0.25210
81.24078,0.24788
80.99971,0.24462
80.75864,0.24194
80.51757,0.23841
80.27650,0.23291
80.03542,0.22748
79.79435,0.22585
79.55328,0.22856
79.31221,0.23225
79.07114,0.23345
78.83007,0.23053
78.58900,0.22417
78.34793,0.21794
78.10686,0.21654
77.86579,0.22000
77.62472,0.22137
77.38365,0.21636
77.14258,0.21002
76.90151,0.20900
76.66044,0.21284
76.41937,0.21653
76.17830,0.21862
75.93723,0.22143
75.69615,0.22507
75.45508,0.22634
75.21401,0.22203
74.97294,0.21198
74.73187,0.20083
74.49080,0.19599
74.24973,0.20258
74.00866,0.22014
73.76759,0.23901
73.52652,0.24192
73.28545,0.22171
73.04438,0.19091
72.80331,0.16632
72.56224,0.15706
72.32117,0.16608
72.08010,0.19387
71.83903,0.23556
71.59796,0.27005
71.35688,0.26853
71.11581,0.23920
70.87474,0.21069
70.63367,0.19626
70.39260,0.19442
70.15153,0.19848
69.91046,0.20508
69.66939,0.21691
69.42832,0.23855
69.18725,0.27041
68.94618,0.30815
68.70511,0.34316
68.46404,0.35333
68.22297,0.31769
67.98190,0.25685
67.74083,0.20277
67.49976,0.16790
67.25869,0.15014
67.01761,0.14334
66.77654,0.14215
66.53547,0.14386
66.29440,0.14875
66.05333,0.15811
65.81226,0.17309
65.57119,0.19371
65.33012,0.21687
65.08905,0.23860
64.84798,0.25922
64.60691,0.28268
64.36584,0.30916
64.12477,0.33180
63.88370,0.34106
63.64263,0.33206
63.40156,0.30790
63.16049,0.27478
62.91942,0.24014
62.67834,0.21276
62.43727,0.19714
62.19620,0.18920
61.95513,0.18053
61.71406,0.16577
61.47299,0.14481
61.23192,0.12147
60.99085,0.10077
60.74978,0.08776
60.50871,0.08650
60.26764,0.09638
60.02657,0.11040
59.78550,0.12007
59.54443,0.12338
59.30336,0.12604
59.06229,0.13612
58.82122,0.16052
58.58015,0.20169
58.33907,0.25565
58.09800,0.31728
57.85693,0.37228
57.61586,0.36906
57.37479,0.31857
57.13372,0.26097
56.89265,0.20286
56.65158,0.15120
56.41051,0.11543
56.16944,0.09725
55.92837,0.09117
55.68730,0.09253
55.44623,0.10190
55.20516,0.12217
54.96409,0.15636
54.72302,0.20824
54.48195,0.28550
54.24088,0.37681
53.99980,0.37197
53.75873,0.27286
53.51766,0.18013
53.27659,0.10928
53.03552,0.05986
52.79445,0.03179
52.55338,0.02440
52.31231,0.04181
52.07124,0.09380
51.83017,0.20161
51.58910,0.34293
51.34803,0.27992
51.10696,0.12852
50.86589,0.03741
50.62482,-0.00258
50.38375,-0.00784
50.14268,0.02338
49.90161,0.11595
49.66053,0.27887
49.41946,0.28556
49.17839,0.10572
48.93732,0.00922
48.69625,0.01138
48.45518,0.12876
48.21411,0.33436
47.97304,0.21458
47.73197,0.06707
47.49090,0.03856
47.24983,0.12170
47.00876,0.23722
46.76769,0.16573
46.52662,0.07577
46.28555,0.08845
46.04448,0.16419
45.80341,0.16813
45.56234,0.11781
45.32126,0.12234
45.08019,0.14131
44.83912,0.10325
44.59805,0.08684
44.35698,0.13717
44.11591,0.19409
43.87484,0.17150
43.63377,0.14747
43.39270,0.16571
43.15163,0.18333
42.91056,0.18118
42.66949,0.18922
42.42842,0.20362
42.18735,0.19412
41.94628,0.16938
41.70521,0.15161
41.46414,0.14202
41.22307,0.13261
40.98199,0.13308
40.74092,0.16422
40.49985,0.21739
40.25878,0.23701
40.01771,0.20357
39.77664,0.17279
39.53557,0.16938
39.29450,0.18974
39.05343,0.23307
38.81236,0.28193
38.57129,0.30251
38.33022,0.29771
38.08915,0.28836
37.84808,0.28423
37.60701,0.28993
37.36594,0.30124
37.12487,0.30366
36.88380,0.29811
36.64272,0.30043
36.40165,0.31505
36.16058,0.32999
35.91951,0.32327
35.67844,0.29426
35.43737,0.26911
35.19630,0.25959
34.95523,0.25084
34.71416,0.23212
34.47309,0.22802
34.23202,0.25744
33.99095,0.31881
33.74988,0.38182
33.50881,0.38645
33.26774,0.32253
33.02667,0.24196
32.78560,0.18473
32.54453,0.15872
32.30345,0.15238
32.06238,0.15795
31.82131,0.17404
31.58024,0.19779
31.33917,0.22787
31.09810,0.26194
30.85703,0.28619
30.61596,0.27834
30.37489,0.24507
30.13382,0.21900
29.89275,0.20397
29.65168,0.18447
29.41061,0.16647
29.16954,0.15127
28.92847,0.13157
28.68740,0.11930
28.44633,0.13403
28.20526,0.18139
27.96418,0.23333
27.72311,0.24103
27.48204,0.19565
27.24097,0.14334
26.99990,0.13683
26.75883,0.18391
26.51776,0.23538
26.27669,0.24101
26.03562,0.19126
25.79455,0.11316
25.55348,0.04898
25.31241,0.02974
25.07134,0.05319
24.83027,0.08490
24.58920,0.09349
24.34813,0.07641
24.10706,0.05248
23.86599,0.04638
23.62491,0.06365
23.38384,0.08271
23.14277,0.08551
22.90170,0.07969
22.66063,0.08289
22.41956,0.09121
22.17849,0.08997
21.93742,0.07977
21.69635,0.07450
21.45528,0.08442
21.21421,0.09778
20.97314,0.09185
20.73207,0.06270
20.49100,0.03434
20.24993,0.02521
20.00886,0.02962
19.76779,0.03158
19.52672,0.02462
19.28564,0.02319
19.04457,0.04445
18.80350,0.07662
18.56243,0.08576
18.32136,0.06060
18.08029,0.02857
17.83922,0.02526
17.59815,0.04766
17.35708,0.06211
17.11601,0.05862
16.87494,0.05692
16.63387,0.07307
16.39280,0.09992
16.15173,0.10684
15.91066,0.08425
15.66959,0.06248
15.42852,0.06218
15.18745,0.06761
14.94637,0.04988
14.70530,0.00168
14.46423,-0.06505
14.22316,-0.12093
13.98209,-0.11714
13.74102,-0.08430
13.49995,-0.05706
13.25888,-0.00991
13.01781,0.00917
12.77674,-0.00270
12.53567,-0.01131
12.29460,0.01992
12.05353,0.08137
11.81246,0.12621
11.57139,0.13587
11.33032,0.11383
11.08925,0.07727
10.84818,0.04754
10.60710,0.03827
10.36603,0.05865
10.12496,0.11100
9.88389,0.16158
9.64282,0.18171
9.40175,0.17514
9.16068,0.14323
8.91961,0.10470
8.67854,0.08479
8.43747,0.07897
8.19640,0.07269
7.95533,0.05500
7.71426,0.02219
7.47319,-0.01139
7.23212,-0.02784
6.99105,-0.00711
6.74998,0.04119
6.50891,0.06426
6.26783,0.06190
6.02676,0.07152
5.78569,0.10499
5.54462,0.12035
5.30355,0.11443
5.06248,0.10913
4.82141,0.07946
4.58034,0.02881
4.33927,-0.01404
4.09820,-0.02199
3.85713,0.00219
3.61606,0.04329
3.37499,0.06053
3.13392,0.03259
2.89285,-0.00526
2.65178,-0.02026
2.41071,-0.01238
2.16964,0.01768
1.92856,0.06637
1.68749,0.09858
1.44642,0.08465
1.20535,0.03031
0.96428,0.01385
0.72321,0.02417
0.48214,-0.00600
0.24107,-0.10284
-0.00000,-0.23272
