399.69498,2.01250
399.45391,2.08091
399.21284,2.11438
398.97177,2.04318
398.73070,1.92642
398.48963,1.85467
398.24856,1.85051
398.00749,1.90875
397.76642,2.02129
397.52535,2.16057
397.28428,2.23397
397.04321,2.17104
396.80214,2.06812
396.56107,1.99642
396.32000,1.96147
396.07892,1.94444
395.83785,1.94072
395.59678,1.94690
395.35571,1.94618
395.11464,1.95036
394.87357,1.98245
394.63250,2.02766
394.39143,2.04212
394.15036,2.02929
393.90929,1.99739
393.66822,1.95492
393.42715,1.93138
393.18608,1.93621
392.94501,1.98085
392.70394,2.08185
392.46287,2.23210
392.22180,2.33589
391.98073,2.26219
391.73965,2.12363
391.49858,2.04948
391.25751,2.04921
391.01644,2.11372
390.77537,2.23735
390.53430,2.34963
390.29323,2.34725
390.05216,2.25850
389.81109,2.12672
389.57002,2.12040
389.32895,2.24905
389.08788,2.22864
388.84681,2.19532
388.60574,2.25379
388.36467,2.26483
388.12360,2.15324
387.88253,2.02372
387.64146,1.95413
387.40038,1.97099
387.15931,2.05731
386.91824,2.15981
386.67717,2.26207
386.43610,2.45095
386.19503,2.61536
385.95396,2.32757
385.71289,2.13633
385.47182,2.13182
385.23075,2.19656
384.98968,2.19828
384.74861,2.12808
384.50754,2.11999
384.26647,2.18684
384.02540,2.21285
383.78433,2.14972
383.54326,2.07814
383.30219,2.07129
383.06111,2.09704
382.82004,2.19552
382.57897,2.19716
382.33790,2.08732
382.09683,1.91341
381.85576,1.86474
381.61469,1.98390
381.37362,2.18619
381.13255,2.19478
380.89148,2.04144
380.65041,1.95926
380.40934,1.97932
380.16827,1.98907
379.92720,1.92798
379.68613,1.89608
379.44506,1.94171
379.20399,2.03208
378.96292,2.07830
378.72184,2.05294
378.48077,2.00602
378.23970,1.94919
377.99863,1.86868
377.75756,1.80353
377.51649,1.80858
377.27542,1.90222
377.03435,2.06522
376.79328,2.18046
376.55221,2.11394
376.31114,2.06660
376.07007,2.18155
375.82900,2.33282
375.58793,2.23821
375.34686,2.19774
375.10579,2.24673
374.86472,2.24922
374.62365,2.17472
374.38257,2.25173
374.14150,2.30494
373.90043,2.19674
373.65936,2.15869
373.41829,2.17347
373.17722,2.14492
372.93615,2.12250
372.69508,2.07890
372.45401,1.97068
372.21294,1.86013
371.97187,1.78233
371.73080,1.73427
371.48973,1.72038
371.24866,1.72532
371.00759,1.73203
370.76652,1.73973
370.52545,1.74959
370.28437,1.75896
370.04330,1.77204
369.80223,1.79408
369.56116,1.82304
369.32009,1.85771
369.07902,1.88568
368.83795,1.86778
368.59688,1.81030
368.35581,1.74916
368.11474,1.70108
367.87367,1.66444
367.63260,1.63398
367.39153,1.61774
367.15046,1.63445
366.90939,1.68251
366.66832,1.72259
366.42725,1.71756
366.18618,1.67916
365.94510,1.64390
365.70403,1.62868
365.46296,1.63045
365.22189,1.64415
364.98082,1.66377
364.73975,1.68083
364.49868,1.68765
364.25761,1.67572
364.01654,1.65078
363.77547,1.63599
363.53440,1.64623
363.29333,1.66823
363.05226,1.67446
362.81119,1.65669
362.57012,1.62383
362.32905,1.58877
362.08798,1.56287
361.84691,1.55143
361.60583,1.55629
361.36476,1.57296
361.12369,1.58901
360.88262,1.59238
360.64155,1.57933
360.40048,1.55945
360.15941,1.54619
359.91834,1.54164
359.67727,1.54174
359.43620,1.54293
359.19513,1.54834
358.95406,1.55844
358.71299,1.56354
358.47192,1.55802
358.23085,1.54901
357.98978,1.54280
357.74871,1.53400
357.50764,1.52185
357.26656,1.51708
357.02549,1.52362
356.78442,1.53330
356.54335,1.53833
356.30228,1.53623
356.06121,1.52945
355.82014,1.52343
355.57907,1.51965
355.33800,1.51721
355.09693,1.51535
354.85586,1.51290
354.61479,1.51156
354.37372,1.51585
354.13265,1.52629
353.89158,1.53367
353.65051,1.52486
353.40944,1.50107
353.16837,1.47875
352.92729,1.47071
352.68622,1.47890
352.44515,1.50013
352.20408,1.52910
351.96301,1.55668
351.72194,1.57167
351.48087,1.56320
351.23980,1.53528
350.99873,1.50231
350.75766,1.47311
350.51659,1.45423
350.27552,1.44842
350.03445,1.45025
349.79338,1.45416
349.55231,1.46367
349.31124,1.48346
349.07017,1.50649
348.82910,1.51995
348.58802,1.52077
348.34695,1.51633
348.10588,1.51702
347.86481,1.52410
347.62374,1.52794
347.38267,1.52487
347.14160,1.51819
346.90053,1.50984
346.65946,1.50282
346.41839,1.50307
346.17732,1.51371
345.93625,1.53031
345.69518,1.55060
345.45411,1.57809
345.21304,1.60904
344.97197,1.62843
344.73090,1.62673
344.48983,1.61021
344.24875,1.59353
344.00768,1.58587
343.76661,1.58791
343.52554,1.59718
343.28447,1.61204
343.04340,1.62746
342.80233,1.63817
342.56126,1.64840
342.32019,1.66364
342.07912,1.67930
341.83805,1.68621
341.59698,1.68610
341.35591,1.69659
341.11484,1.72437
340.87377,1.74516
340.63270,1.73773
340.39163,1.71480
340.15056,1.69223
339.90948,1.67496
339.66841,1.67197
339.42734,1.70238
339.18627,1.76649
338.94520,1.82988
338.70413,1.87263
338.46306,1.90230
338.22199,1.91459
337.98092,1.90330
337.73985,1.88880
337.49878,1.90471
337.25771,1.95619
337.01664,2.01204
336.77557,2.01742
336.53450,1.96478
336.29343,1.92594
336.05236,1.93551
335.81129,1.96329
335.57021,1.96856
335.32914,1.94647
335.08807,1.90000
334.84700,1.84731
334.60593,1.80719
334.36486,1.78017
334.12379,1.76711
333.88272,1.76189
333.64165,1.75439
333.40058,1.75294
333.15951,1.77331
332.91844,1.79577
332.67737,1.77654
332.43630,1.73133
332.19523,1.71032
331.95416,1.72675
331.71309,1.76073
331.47202,1.79574
331.23094,1.82819
330.98987,1.84840
330.74880,1.85318
330.50773,1.83540
330.26666,1.78052
330.02559,1.71407
329.78452,1.67829
329.54345,1.67631
329.30238,1.67708
329.06131,1.66113
328.82024,1.65700
328.57917,1.69603
328.33810,1.76377
328.09703,1.81801
327.85596,1.81615
327.61489,1.76687
327.37382,1.70569
327.13275,1.63856
326.89167,1.59051
326.65060,1.57339
326.40953,1.58820
326.16846,1.64468
325.92739,1.73290
325.68632,1.80794
325.44525,1.82942
325.20418,1.81934
324.96311,1.80423
324.72204,1.75420
324.48097,1.67649
324.23990,1.63041
323.99883,1.65744
323.75776,1.76908
323.51669,1.93916
323.27562,2.09999
323.03455,2.21566
322.79348,2.17150
322.55240,2.04359
322.31133,1.92780
322.07026,1.84555
321.82919,1.80567
321.58812,1.79517
321.34705,1.87194
321.10598,2.11036
320.86491,2.36807
320.62384,2.24373
320.38277,2.10346
320.14170,2.01044
319.90063,1.97716
319.65956,2.01826
319.41849,2.07702
319.17742,2.13517
318.93635,2.13337
318.69528,2.01393
318.45421,1.89466
318.21313,1.83105
317.97206,1.82385
317.73099,1.85920
317.48992,1.90531
317.24885,1.94266
317.00778,1.98173
316.76671,1.99382
316.52564,1.94050
316.28457,1.88636
316.04350,1.89754
315.80243,1.94592
315.56136,1.99090
315.32029,2.00205
315.07922,2.01485
314.83815,2.05266
314.59708,2.07063
314.35601,2.11846
314.11494,2.15030
313.87386,2.18721
313.63279,2.19621
313.39172,2.12859
313.15065,2.04741
312.90958,1.99472
312.66851,2.02915
312.42744,2.12983
312.18637,2.24810
311.94530,2.43247
311.70423,2.58093
311.46316,2.59303
311.22209,2.55680
310.98102,2.49981
310.73995,2.53517
310.49888,2.74091
310.25781,2.63752
310.01674,2.25522
309.77567,2.04488
309.53459,1.94754
309.29352,1.91032
309.05245,1.91071
308.81138,1.92469
308.57031,1.92112
308.32924,1.89665
308.08817,1.85405
307.84710,1.81039
307.60603,1.78433
307.36496,1.76390
307.12389,1.71897
306.88282,1.65847
306.64175,1.61398
306.40068,1.59548
306.15961,1.59428
305.91854,1.59728
305.67747,1.59536
305.43640,1.58814
305.19532,1.58532
304.95425,1.59559
304.71318,1.61667
304.47211,1.63450
304.23104,1.63159
303.98997,1.61080
303.74890,1.58738
303.50783,1.56442
303.26676,1.53560
303.02569,1.50252
302.78462,1.47643
302.54355,1.45978
302.30248,1.44820
302.06141,1.43771
301.82034,1.42766
301.57927,1.41851
301.33820,1.40919
301.09713,1.39963
300.85605,1.38810
300.61498,1.37541
300.37391,1.36883
300.13284,1.37141
299.89177,1.37296
299.65070,1.36340
299.40963,1.34793
299.16856,1.33517
298.92749,1.32332
298.68642,1.30831
298.44535,1.29447
298.20428,1.28762
297.96321,1.28531
297.72214,1.28243
297.48107,1.27743
297.24000,1.27120
296.99893,1.26745
296.75786,1.26904
296.51678,1.27207
296.27571,1.27051
296.03464,1.26325
295.79357,1.25253
295.55250,1.24142
295.31143,1.23409
295.07036,1.23206
294.82929,1.23090
294.58822,1.22570
294.34715,1.21670
294.10608,1.20652
293.86501,1.19742
293.62394,1.19278
293.38287,1.19509
293.14180,1.20105
292.90073,1.20107
292.65966,1.18972
292.41859,1.17469
292.17751,1.16740
291.93644,1.16971
291.69537,1.17372
291.45430,1.17167
291.21323,1.16283
290.97216,1.15174
290.73109,1.14392
290.49002,1.14197
290.24895,1.14381
290.00788,1.14474
289.76681,1.14123
289.52574,1.13478
289.28467,1.13070
289.04360,1.13141
288.80253,1.13387
288.56146,1.13303
288.32039,1.12580
288.07932,1.11356
287.83824,1.10266
287.59717,1.09899
287.35610,1.10085
287.11503,1.10163
286.87396,1.09972
286.63289,1.09976
286.39182,1.10331
286.15075,1.10567
285.90968,1.10367
285.66861,1.10105
285.42754,1.10210
285.18647,1.10523
284.94540,1.10671
284.70433,1.10558
284.46326,1.10296
284.22219,1.10013
283.98112,1.09858
283.74005,1.09819
283.49897,1.09536
283.25790,1.08799
283.01683,1.08024
282.77576,1.07722
282.53469,1.07880
282.29362,1.08176
282.05255,1.08332
281.81148,1.08131
281.57041,1.07613
281.32934,1.07275
281.08827,1.07572
280.84720,1.08312
280.60613,1.08930
280.36506,1.09133
280.12399,1.09008
279.88292,1.08765
279.64185,1.08583
279.40078,1.08491
279.15970,1.08340
278.91863,1.08044
278.67756,1.07753
278.43649,1.07695
278.19542,1.07935
277.95435,1.08313
277.71328,1.08521
277.47221,1.08347
277.23114,1.07829
276.99007,1.07158
276.74900,1.06427
276.50793,1.05666
276.26686,1.05088
276.02579,1.04975
275.78472,1.05301
275.54365,1.05729
275.30258,1.06027
275.06151,1.06334
274.82043,1.06839
274.57936,1.07354
274.33829,1.07537
274.09722,1.07376
273.85615,1.07121
273.61508,1.06975
273.37401,1.07064
273.13294,1.07369
272.89187,1.07471
272.65080,1.06863
272.40973,1.05818
272.16866,1.05259
271.92759,1.05602
271.68652,1.06332
271.44545,1.06810
271.20438,1.07073
270.96331,1.07567
270.72224,1.08370
270.48116,1.09068
270.24009,1.09311
269.99902,1.09159
269.75795,1.08870
269.51688,1.08645
269.27581,1.08580
269.03474,1.08729
268.79367,1.09147
268.55260,1.09793
268.31153,1.10409
268.07046,1.10686
267.82939,1.10668
267.58832,1.10719
267.34725,1.10943
267.10618,1.11090
266.86511,1.11152
266.62404,1.11481
266.38297,1.12262
266.14189,1.13328
265.90082,1.14459
265.65975,1.15426
265.41868,1.15893
265.17761,1.15864
264.93654,1.15934
264.69547,1.16536
264.45440,1.17358
264.21333,1.17911
263.97226,1.18238
263.73119,1.18608
263.49012,1.18997
263.24905,1.19326
263.00798,1.19870
262.76691,1.20910
262.52584,1.22158
262.28477,1.23069
262.04370,1.23557
261.80262,1.24060
261.56155,1.25033
261.32048,1.26499
261.07941,1.28083
260.83834,1.29505
260.59727,1.30713
260.35620,1.31519
260.11513,1.31772
259.87406,1.32106
259.63299,1.33692
259.39192,1.36934
259.15085,1.40867
258.90978,1.43932
258.66871,1.45203
258.42764,1.45469
258.18657,1.46452
257.94550,1.48593
257.70443,1.50893
257.46335,1.52667
257.22228,1.54346
256.98121,1.56730
256.74014,1.60207
256.49907,1.64443
256.25800,1.68676
256.01693,1.72131
255.77586,1.74661
255.53479,1.77210
255.29372,1.81019
255.05265,1.85834
254.81158,1.89354
254.57051,1.89903
254.32944,1.89244
254.08837,1.91325
253.84730,1.97215
253.60623,2.02431
253.36516,2.01556
253.12408,1.98831
252.88301,2.01644
252.64194,2.12547
252.40087,2.26110
252.15980,2.29285
251.91873,2.27952
251.67766,2.33051
251.43659,2.45585
251.19552,2.48885
250.95445,2.34051
250.71338,2.20075
250.47231,2.13525
250.23124,2.12206
249.99017,2.15365
249.74910,2.22792
249.50803,2.32677
249.26696,2.40458
249.02589,2.41131
248.78481,2.35605
248.54374,2.28251
248.30267,2.23871
248.06160,2.23017
247.82053,2.19464
247.57946,2.14194
247.33839,2.15372
247.09732,2.25814
246.85625,2.41642
246.61518,2.49574
246.37411,2.44319
246.13304,2.30619
245.89197,2.14971
245.65090,2.05084
245.40983,2.01863
245.16876,2.00043
244.92769,1.95773
244.68661,1.89863
244.44554,1.83860
244.20447,1.79148
243.96340,1.75801
243.72233,1.72044
243.48126,1.65985
243.24019,1.58389
242.99912,1.51742
242.75805,1.47222
242.51698,1.43960
242.27591,1.40497
242.03484,1.36256
241.79377,1.31636
241.55270,1.27284
241.31163,1.23609
241.07056,1.20602
240.82949,1.17895
240.58842,1.15185
240.34734,1.12572
240.10627,1.10395
239.86520,1.08734
239.62413,1.07169
239.38306,1.05259
239.14199,1.03035
238.90092,1.00847
238.65985,0.98956
238.41878,0.97334
238.17771,0.95819
237.93664,0.94446
237.69557,0.93454
237.45450,0.92875
237.21343,0.92277
236.97236,0.91207
236.73129,0.89822
236.49022,0.88645
236.24915,0.87787
236.00807,0.86906
235.76700,0.85848
235.52593,0.84935
235.28486,0.84464
235.04379,0.84162
234.80272,0.83504
234.56165,0.82437
234.32058,0.81398
234.07951,0.80707
233.83844,0.80320
233.59737,0.80104
233.35630,0.79989
233.11523,0.79931
232.87416,0.79987
232.63309,0.80255
232.39202,0.80532
232.15095,0.80307
231.90988,0.79417
231.66880,0.78380
231.42773,0.77795
231.18666,0.77725
230.94559,0.77821
230.70452,0.77785
230.46345,0.77568
230.22238,0.77179
229.98131,0.76533
229.74024,0.75667
229.49917,0.74941
229.25810,0.74760
229.01703,0.75148
228.77596,0.75684
228.53489,0.75929
228.29382,0.75857
228.05275,0.75750
227.81168,0.75739
227.57061,0.75630
227.32953,0.75255
227.08846,0.74760
226.84739,0.74399
226.60632,0.74219
226.36525,0.74069
226.12418,0.73888
225.88311,0.73762
225.64204,0.73735
225.40097,0.73715
225.15990,0.73581
224.91883,0.73336
224.67776,0.73096
224.43669,0.72980
224.19562,0.73041
223.95455,0.73273
223.71348,0.73637
223.47241,0.74082
223.23134,0.74525
222.99026,0.74855
222.74919,0.75053
222.50812,0.75292
222.26705,0.75754
222.02598,0.76320
221.78491,0.76662
221.54384,0.76700
221.30277,0.76729
221.06170,0.77044
220.82063,0.77655
220.57956,0.78395
220.33849,0.79138
220.09742,0.79856
219.85635,0.80593
219.61528,0.81461
219.37421,0.82534
219.13314,0.83614
218.89207,0.84294
218.65099,0.84451
218.40992,0.84460
218.16885,0.84733
217.92778,0.85325
217.68671,0.86108
217.44564,0.87109
217.20457,0.88429
216.96350,0.89920
216.72243,0.91200
216.48136,0.92068
216.24029,0.92742
215.99922,0.93578
215.75815,0.94713
215.51708,0.95995
215.27601,0.97085
215.03494,0.97706
214.79387,0.97920
214.55280,0.98065
214.31172,0.98417
214.07065,0.99047
213.82958,0.99917
213.58851,1.00961
213.34744,1.02102
213.10637,1.03217
212.86530,1.04072
212.62423,1.04416
212.38316,1.04241
212.14209,1.03827
211.90102,1.03498
211.65995,1.03350
211.41888,1.03225
211.17781,1.02959
210.93674,1.02719
210.69567,1.02884
210.45460,1.03460
210.21353,1.03902
209.97245,1.03789
209.73138,1.03366
209.49031,1.03093
209.24924,1.02989
209.00817,1.02810
208.76710,1.02584
208.52603,1.02527
208.28496,1.02551
208.04389,1.02368
207.80282,1.02016
207.56175,1.01720
207.32068,1.01380
207.07961,1.00740
206.83854,0.99875
206.59747,0.99028
206.35640,0.98232
206.11533,0.97443
205.87426,0.96787
205.63318,0.96375
205.39211,0.96078
205.15104,0.95616
204.90997,0.94776
204.66890,0.93598
204.42783,0.92354
204.18676,0.91236
203.94569,0.90205
203.70462,0.89175
203.46355,0.88151
203.22248,0.87152
202.98141,0.86163
202.74034,0.85193
202.49927,0.84213
202.25820,0.83120
202.01713,0.81878
201.77606,0.80611
201.53499,0.79530
201.29391,0.78735
201.05284,0.78077
200.81177,0.77294
200.57070,0.76330
200.32963,0.75365
200.08856,0.74511
199.84749,0.73655
199.60642,0.72647
199.36535,0.71536
199.12428,0.70563
198.88321,0.69927
198.64214,0.69554
198.40107,0.69158
198.16000,0.68555
197.91893,0.67825
197.67786,0.67110
197.43679,0.66428
197.19572,0.65714
196.95464,0.64914
196.71357,0.64003
196.47250,0.63074
196.23143,0.62329
195.99036,0.61854
195.74929,0.61472
195.50822,0.60942
195.26715,0.60229
195.02608,0.59514
194.78501,0.58978
194.54394,0.58609
194.30287,0.58231
194.06180,0.57745
193.82073,0.57291
193.57966,0.57038
193.33859,0.56893
193.09752,0.56544
192.85645,0.55867
192.61537,0.55099
192.37430,0.54521
192.13323,0.54147
191.89216,0.53830
191.65109,0.53519
191.41002,0.53281
191.16895,0.53142
190.92788,0.53040
190.68681,0.52917
190.44574,0.52776
190.20467,0.52620
189.96360,0.52403
189.72253,0.52113
189.48146,0.51833
189.24039,0.51653
188.99932,0.51574
188.75825,0.51522
188.51718,0.51379
188.27610,0.51035
188.03503,0.50548
187.79396,0.50158
187.55289,0.50040
187.31182,0.50104
187.07075,0.50127
186.82968,0.49995
186.58861,0.49782
186.34754,0.49656
186.10647,0.49722
185.86540,0.49908
185.62433,0.50036
185.38326,0.50022
185.14219,0.49939
184.90112,0.49862
184.66005,0.49783
184.41898,0.49698
184.17791,0.49718
183.93683,0.49967
183.69576,0.50400
183.45469,0.50787
183.21362,0.50948
182.97255,0.50939
182.73148,0.50945
182.49041,0.51032
182.24934,0.51104
182.00827,0.51086
181.76720,0.51039
181.52613,0.51056
181.28506,0.51134
181.04399,0.51230
180.80292,0.51364
180.56185,0.51556
180.32078,0.51778
180.07971,0.52061
179.83864,0.52522
179.59756,0.53131
179.35649,0.53664
179.11542,0.53996
178.87435,0.54262
178.63328,0.54639
178.39221,0.55147
178.15114,0.55720
177.91007,0.56316
177.66900,0.56978
177.42793,0.57835
177.18686,0.58956
176.94579,0.60240
176.70472,0.61570
176.46365,0.62926
176.22258,0.64264
175.98151,0.65470
175.74044,0.66513
175.49937,0.67520
175.25829,0.68687
175.01722,0.70174
174.77615,0.71936
174.53508,0.73643
174.29401,0.75018
174.05294,0.76171
173.81187,0.77375
173.57080,0.78621
173.32973,0.79649
173.08866,0.80317
172.84759,0.80721
172.60652,0.80981
172.36545,0.81185
172.12438,0.81537
171.88331,0.82220
171.64224,0.83039
171.40117,0.83519
171.16010,0.83448
170.91902,0.83065
170.67795,0.82689
170.43688,0.82379
170.19581,0.81952
169.95474,0.81276
169.71367,0.80493
169.47260,0.79874
169.23153,0.79499
168.99046,0.79209
168.74939,0.78799
168.50832,0.78171
168.26725,0.77379
168.02618,0.76611
167.78511,0.76106
167.54404,0.76007
167.30297,0.76271
167.06190,0.76732
166.82083,0.77229
166.57975,0.77666
166.33868,0.78016
166.09761,0.78336
165.85654,0.78744
165.61547,0.79297
165.37440,0.79900
165.13333,0.80397
164.89226,0.80720
164.65119,0.80909
164.41012,0.81075
164.16905,0.81411
163.92798,0.82102
163.68691,0.83125
163.44584,0.84201
163.20477,0.85031
162.96370,0.85542
162.72263,0.85874
162.48156,0.86169
162.24048,0.86419
161.99941,0.86545
161.75834,0.86611
161.51727,0.86819
161.27620,0.87163
161.03513,0.87303
160.79406,0.86982
160.55299,0.86362
160.31192,0.85791
160.07085,0.85449
159.82978,0.85305
159.58871,0.85257
159.34764,0.85218
159.10657,0.85045
158.86550,0.84587
158.62443,0.83939
158.38336,0.83423
158.14229,0.83171
157.90121,0.82935
157.66014,0.82487
157.41907,0.81913
157.17800,0.81346
156.93693,0.80765
156.69586,0.80272
156.45479,0.80150
156.21372,0.80375
155.97265,0.80407
155.73158,0.79776
155.49051,0.78681
155.24944,0.77714
155.00837,0.77158
154.76730,0.76802
154.52623,0.76309
154.28516,0.75532
154.04409,0.74507
153.80302,0.73382
153.56194,0.72344
153.32087,0.71440
153.07980,0.70467
152.83873,0.69220
152.59766,0.67777
152.35659,0.66393
152.11552,0.65206
151.87445,0.64145
151.63338,0.63069
151.39231,0.61920
151.15124,0.60756
150.91017,0.59647
150.66910,0.58526
150.42803,0.57260
150.18696,0.55891
149.94589,0.54646
149.70482,0.53658
149.46375,0.52868
149.22267,0.52204
148.98160,0.51693
148.74053,0.51311
148.49946,0.50918
148.25839,0.50387
148.01732,0.49703
147.77625,0.48944
147.53518,0.48259
147.29411,0.47835
147.05304,0.47757
146.81197,0.47937
146.57090,0.48228
146.32983,0.48561
146.08876,0.48929
145.84769,0.49327
145.60662,0.49745
145.36555,0.50169
145.12448,0.50581
144.88340,0.50986
144.64233,0.51418
144.40126,0.51868
144.16019,0.52250
143.91912,0.52472
143.67805,0.52477
143.43698,0.52224
143.19591,0.51726
142.95484,0.51057
142.71377,0.50258
142.47270,0.49320
142.23163,0.48324
141.99056,0.47452
141.74949,0.46784
141.50842,0.46239
141.26735,0.45748
141.02628,0.45337
140.78521,0.45035
140.54413,0.44810
140.30306,0.44619
140.06199,0.44471
139.82092,0.44441
139.57985,0.44588
139.33878,0.44845
139.09771,0.45048
138.85664,0.45168
138.61557,0.45430
138.37450,0.46071
138.13343,0.47066
137.89236,0.48177
137.65129,0.49205
137.41022,0.50124
137.16915,0.51009
136.92808,0.51957
136.68701,0.53099
136.44594,0.54571
136.20486,0.56352
135.96379,0.58256
135.72272,0.60195
135.48165,0.62274
135.24058,0.64528
134.99951,0.66811
134.75844,0.69052
134.51737,0.71376
134.27630,0.73891
134.03523,0.76568
133.79416,0.79310
133.55309,0.81907
133.31202,0.84152
133.07095,0.86128
132.82988,0.87993
132.58881,0.89491
132.34774,0.90223
132.10667,0.90427
131.86559,0.90833
131.62452,0.91674
131.38345,0.92359
131.14238,0.92296
130.90131,0.91713
130.66024,0.91288
130.41917,0.91168
130.17810,0.90662
129.93703,0.88962
129.69596,0.86118
129.45489,0.82981
129.21382,0.80236
128.97275,0.77880
128.73168,0.75579
128.49061,0.73143
128.24954,0.70586
128.00847,0.68025
127.76740,0.65671
127.52632,0.63685
127.28525,0.61935
127.04418,0.60034
126.80311,0.57775
126.56204,0.55429
126.32097,0.53488
126.07990,0.52164
125.83883,0.51215
125.59776,0.50215
125.35669,0.48950
125.11562,0.47494
124.87455,0.46001
124.63348,0.44594
124.39241,0.43392
124.15134,0.42487
123.91027,0.41851
123.66920,0.41334
123.42812,0.40791
123.18705,0.40207
122.94598,0.39671
122.70491,0.39263
122.46384,0.38966
122.22277,0.38697
121.98170,0.38406
121.74063,0.38149
121.49956,0.38047
121.25849,0.38187
121.01742,0.38562
120.77635,0.39104
120.53528,0.39747
120.29421,0.40450
120.05314,0.41221
119.81207,0.42154
119.57100,0.43388
119.32993,0.44978
119.08885,0.46833
118.84778,0.48804
118.60671,0.50808
118.36564,0.52863
118.12457,0.55030
117.88350,0.57302
117.64243,0.59497
117.40136,0.61338
117.16029,0.62701
116.91922,0.63668
116.67815,0.64256
116.43708,0.64354
116.19601,0.64018
115.95494,0.63521
115.71387,0.63006
115.47280,0.62351
115.23173,0.61435
114.99066,0.60317
114.74958,0.59088
114.50851,0.57838
114.26744,0.56799
114.02637,0.56232
113.78530,0.56121
113.54423,0.56167
113.30316,0.56085
113.06209,0.55809
112.82102,0.55449
112.57995,0.55202
112.33888,0.55239
112.09781,0.55549
111.85674,0.55899
111.61567,0.56081
111.37460,0.56215
111.13353,0.56560
110.89246,0.56990
110.65139,0.57021
110.41031,0.56455
110.16924,0.55640
109.92817,0.55024
109.68710,0.54721
109.44603,0.54466
109.20496,0.53793
108.96389,0.52440
108.72282,0.50632
108.48175,0.48784
108.24068,0.47072
107.99961,0.45509
107.75854,0.44227
107.51747,0.43358
107.27640,0.42722
107.03533,0.41908
106.79426,0.40721
106.55319,0.39372
106.31212,0.38144
106.07104,0.37049
105.82997,0.35935
105.58890,0.34816
105.34783,0.33883
105.10676,0.33184
104.86569,0.32521
104.62462,0.31719
104.38355,0.30859
104.14248,0.30154
103.90141,0.29643
103.66034,0.29110
103.41927,0.28365
103.17820,0.27525
102.93713,0.26869
102.69606,0.26471
102.45499,0.26141
102.21392,0.25731
101.97285,0.25297
101.73177,0.24919
101.49070,0.24578
101.24963,0.24244
101.00856,0.23955
100.76749,0.23719
100.52642,0.23421
100.28535,0.22961
100.04428,0.22448
99.80321,0.22133
99.56214,0.22116
99.32107,0.22209
99.08000,0.22150
98.83893,0.21872
98.59786,0.21539
98.35679,0.21370
98.11572,0.21434
97.87465,0.21597
97.63358,0.21668
97.39250,0.21605
97.15143,0.21539
96.91036,0.21630
96.66929,0.21916
96.42822,0.22292
96.18715,0.22634
95.94608,0.22941
95.70501,0.23290
95.46394,0.23707
95.22287,0.24173
94.98180,0.24693
94.74073,0.25223
94.49966,0.25642
94.25859,0.25888
94.01752,0.26006
93.77645,0.26016
93.53538,0.25896
93.29431,0.25724
93.05323,0.25672
92.81216,0.25808
92.57109,0.26017
92.33002,0.26157
92.08895,0.26225
91.84788,0.26323
91.60681,0.26550
91.36574,0.26980
91.12467,0.27694
90.88360,0.28769
90.64253,0.30272
90.40146,0.32287
90.16039,0.34868
89.91932,0.37971
89.67825,0.41489
89.43718,0.45278
89.19611,0.49082
88.95504,0.52541
88.71396,0.55352
88.47289,0.57356
88.23182,0.58448
87.99075,0.58459
87.74968,0.57227
87.50861,0.54790
87.26754,0.51471
87.02647,0.47810
86.78540,0.44370
86.54433,0.41423
86.30326,0.38864
86.06219,0.36492
85.82112,0.34302
85.58005,0.32397
85.33898,0.30726
85.09791,0.29100
84.85684,0.27459
84.61577,0.25931
84.37469,0.24606
84.13362,0.23409
83.89255,0.22277
83.65148,0.21308
83.41041,0.20616
83.16934,0.20091
82.92827,0.19470
82.68720,0.18638
82.44613,0.17740
82.20506,0.17008
81.96399,0.16550
81.72292,0.16280
81.48185,0.16025
81.24078,0.15721
80.99971,0.15442
80.75864,0.15212
80.51757,0.14938
80.27650,0.14591
80.03542,0.14316
79.79435,0.14252
79.55328,0.14341
79.31221,0.14385
79.07114,0.14248
78.83007,0.13991
78.58900,0.13789
78.34793,0.13697
78.10686,0.13580
77.86579,0.13325
77.62472,0.13026
77.38365,0.12849
77.14258,0.12824
76.90151,0.12835
76.66044,0.12794
76.41937,0.12701
76.17830,0.12567
75.93723,0.12373
75.69615,0.12131
75.45508,0.11907
75.21401,0.11731
74.97294,0.11592
74.73187,0.11529
74.49080,0.11598
74.24973,0.11747
74.00866,0.11868
73.76759,0.11927
73.52652,0.11926
73.28545,0.11809
73.04438,0.11555
72.80331,0.11283
72.56224,0.11166
72.32117,0.11277
72.08010,0.11543
71.83903,0.11756
71.59796,0.11716
71.35688,0.11463
71.11581,0.11301
70.87474,0.11484
70.63367,0.11976
70.39260,0.12532
70.15153,0.13003
69.91046,0.13508
69.66939,0.14263
69.42832,0.15246
69.18725,0.16110
68.94618,0.16457
68.70511,0.16139
68.46404,0.15334
68.22297,0.14405
67.98190,0.13628
67.74083,0.13017
67.49976,0.12434
67.25869,0.11828
67.01761,0.11246
66.77654,0.10732
66.53547,0.10310
66.29440,0.10005
66.05333,0.09821
65.81226,0.09776
65.57119,0.09911
65.33012,0.10240
65.08905,0.10710
64.84798,0.11213
64.60691,0.11660
64.36584,0.12036
64.12477,0.12383
63.88370,0.12694
63.64263,0.12881
63.40156,0.12856
63.16049,0.12610
62.91942,0.12221
62.67834,0.11771
62.43727,0.11266
62.19620,0.10705
61.95513,0.10201
61.71406,0.09905
61.47299,0.09812
61.23192,0.09748
60.99085,0.09519
60.74978,0.09077
60.50871,0.08600
60.26764,0.08351
60.02657,0.08397
59.78550,0.08499
59.54443,0.08383
59.30336,0.08057
59.06229,0.07787
58.82122,0.07775
58.58015,0.07919
58.33907,0.07908
58.09800,0.07578
57.85693,0.07116
57.61586,0.06849
57.37479,0.06853
57.13372,0.06875
56.89265,0.06661
56.65158,0.06253
56.41051,0.05860
56.16944,0.05591
55.92837,0.05451
55.68730,0.05462
55.44623,0.05633
55.20516,0.05869
54.96409,0.06043
54.72302,0.06114
54.48195,0.06141
54.24088,0.06222
53.99980,0.06452
53.75873,0.06884
53.51766,0.07470
53.27659,0.08060
53.03552,0.08481
52.79445,0.08661
52.55338,0.08665
52.31231,0.08554
52.07124,0.08265
51.83017,0.07778
51.58910,0.07275
51.34803,0.06931
51.10696,0.06709
50.86589,0.06494
50.62482,0.06283
50.38375,0.06143
50.14268,0.06125
49.90161,0.06201
49.66053,0.06231
49.41946,0.06075
49.17839,0.05837
48.93732,0.05759
48.69625,0.05819
48.45518,0.05700
48.21411,0.05318
47.97304,0.05030
47.73197,0.05093
47.49090,0.05238
47.24983,0.05056
47.00876,0.04536
46.76769,0.03963
46.52662,0.03419
46.28555,0.02770
46.04448,0.02071
45.80341,0.01667
45.56234,0.01821
45.32126,0.02350
45.08019,0.02729
44.83912,0.02614
44.59805,0.02252
44.35698,0.02158
44.11591,0.02471
43.87484,0.02891
43.63377,0.03217
43.39270,0.03601
43.15163,0.04132
42.91056,0.04510
42.66949,0.04484
42.42842,0.04313
42.18735,0.04392
41.94628,0.04669
41.70521,0.04816
41.46414,0.04750
41.22307,0.04814
40.98199,0.05452
40.74092,0.06560
40.49985,0.07257
40.25878,0.06834
40.01771,0.05868
39.77664,0.05564
39.53557,0.06281
39.29450,0.07458
39.05343,0.08491
38.81236,0.09137
38.57129,0.09347
38.33022,0.09329
38.08915,0.09641
37.84808,0.10472
37.60701,0.11000
37.36594,0.10357
37.12487,0.08873
36.88380,0.07634
36.64272,0.06966
36.40165,0.06188
36.16058,0.04946
35.91951,0.03941
35.67844,0.04093
35.43737,0.05463
35.19630,0.07280
34.95523,0.08549
34.71416,0.08554
34.47309,0.07451
34.23202,0.06250
33.99095,0.06176
33.74988,0.08032
33.50881,0.11311
33.26774,0.14209
33.02667,0.15364
32.78560,0.15472
32.54453,0.16357
32.30345,0.18108
32.06238,0.18623
31.82131,0.16879
31.58024,0.14700
31.33917,0.14284
31.09810,0.15631
30.85703,0.16914
30.61596,0.16434
30.37489,0.14124
30.13382,0.11450
29.89275,0.09774
29.65168,0.09385
29.41061,0.09666
29.16954,0.10080
28.92847,0.11442
28.68740,0.14699
28.44633,0.18735
28.20526,0.21739
27.96418,0.23416
27.72311,0.24209
27.48204,0.24021
27.24097,0.22739
26.99990,0.20677
26.75883,0.18222
26.51776,0.16774
26.27669,0.18229
26.03562,0.21898
25.79455,0.24904
25.55348,0.25535
25.31241,0.24400
25.07134,0.22639
24.83027,0.19854
24.58920,0.15723
24.34813,0.12646
24.10706,0.14033
23.86599,0.20303
23.62491,0.28244
23.38384,0.33901
23.14277,0.34976
22.90170,0.32424
22.66063,0.30126
22.41956,0.30793
22.17849,0.33237
21.93742,0.35019
21.69635,0.35079
21.45528,0.34551
21.21421,0.35417
20.97314,0.37519
20.73207,0.38892
20.49100,0.39363
20.24993,0.39477
20.00886,0.38663
19.76779,0.36690
19.52672,0.35238
19.28564,0.37088
19.04457,0.44378
18.80350,0.57109
18.56243,0.69827
18.32136,0.69610
18.08029,0.61939
17.83922,0.56299
17.59815,0.57901
17.35708,0.69299
17.11601,0.82790
16.87494,0.80231
16.63387,0.70481
16.39280,0.62044
16.15173,0.59276
15.91066,0.64943
15.66959,0.74139
15.42852,0.75711
15.18745,0.65752
14.94637,0.71175
14.70530,0.99643
14.46423,0.99260
14.22316,1.03558
13.98209,0.88732
13.74102,0.72367
13.49995,0.60262
13.25888,0.56580
13.01781,0.66037
12.77674,0.88860
12.53567,1.18936
12.29460,1.22330
12.05353,1.05995
11.81246,0.76961
11.57139,0.69280
11.33032,0.80607
11.08925,0.91172
10.84818,0.90349
10.60710,0.86353
10.36603,0.79309
10.12496,0.76398
9.88389,0.79607
9.64282,0.79867
9.40175,0.65442
9.16068,0.53709
8.91961,0.52372
8.67854,0.51700
8.43747,0.46269
8.19640,0.45343
7.95533,0.50823
7.71426,0.63402
7.47319,0.87874
7.23212,1.15501
6.99105,1.06007
6.74998,0.80561
6.50891,0.71951
6.26783,0.77114
6.02676,0.85486
5.78569,0.95225
5.54462,0.96588
5.30355,0.75739
5.06248,0.54805
4.82141,0.43297
4.58034,0.39097
4.33927,0.40586
4.09820,0.51171
3.85713,0.80174
3.61606,1.25195
3.37499,1.27202
3.13392,1.08956
2.89285,1.06450
2.65178,1.02247
2.41071,0.82006
2.16964,0.71336
1.92856,0.61974
1.68749,0.50758
1.44642,0.46520
1.20535,0.50145
0.96428,0.57480
0.72321,0.60415
0.48214,0.51127
0.24107,0.43768
-0.00000,0.56207
