399.69498,1.65903
399.45391,1.63715
399.21284,1.62341
398.97177,1.62479
398.73070,1.63495
398.48963,1.64395
398.24856,1.64441
398.00749,1.63424
397.76642,1.61915
397.52535,1.60764
397.28428,1.59907
397.04321,1.58117
396.80214,1.55013
396.56107,1.52632
396.32000,1.53231
396.07892,1.56507
395.83785,1.59734
395.59678,1.60596
395.35571,1.59473
395.11464,1.58146
394.87357,1.57643
394.63250,1.58042
394.39143,1.58779
394.15036,1.58770
393.90929,1.57173
393.66822,1.54560
393.42715,1.52660
393.18608,1.52492
392.94501,1.53352
392.70394,1.53914
392.46287,1.53679
392.22180,1.53070
391.98073,1.53308
391.73965,1.55078
391.49858,1.57319
391.25751,1.58506
391.01644,1.58632
390.77537,1.58806
390.53430,1.58966
390.29323,1.58342
390.05216,1.57106
389.81109,1.55621
389.57002,1.54139
389.32895,1.53494
389.08788,1.54575
388.84681,1.56619
388.60574,1.57576
388.36467,1.56517
388.12360,1.54203
387.88253,1.52084
387.64146,1.51342
387.40038,1.52046
387.15931,1.53109
386.91824,1.53520
386.67717,1.53305
386.43610,1.52962
386.19503,1.52506
385.95396,1.51170
385.71289,1.48128
385.47182,1.44321
385.23075,1.41832
384.98968,1.41469
384.74861,1.42165
384.50754,1.42413
384.26647,1.42122
384.02540,1.41869
383.78433,1.41915
383.54326,1.42460
383.30219,1.43137
383.06111,1.42652
382.82004,1.40221
382.57897,1.37389
382.33790,1.36413
382.09683,1.37138
381.85576,1.36923
381.61469,1.34231
381.37362,1.31165
381.13255,1.30504
380.89148,1.32207
380.65041,1.33749
380.40934,1.33104
380.16827,1.31301
379.92720,1.30843
379.68613,1.32516
379.44506,1.34510
379.20399,1.34350
378.96292,1.31893
378.72184,1.28987
378.48077,1.27235
378.23970,1.27426
377.99863,1.29686
377.75756,1.33803
377.51649,1.39344
377.27542,1.44861
377.03435,1.48118
376.79328,1.48952
376.55221,1.49270
376.31114,1.49280
376.07007,1.47627
375.82900,1.45066
375.58793,1.43839
375.34686,1.44217
375.10579,1.44957
374.86472,1.45678
374.62365,1.46554
374.38257,1.46851
374.14150,1.46352
373.90043,1.46524
373.65936,1.47885
373.41829,1.48588
373.17722,1.47489
372.93615,1.46139
372.69508,1.46101
372.45401,1.46855
372.21294,1.46974
371.97187,1.46290
371.73080,1.45962
371.48973,1.47019
371.24866,1.48955
371.00759,1.49443
370.76652,1.46891
370.52545,1.42939
370.28437,1.40595
370.04330,1.41133
369.80223,1.43063
369.56116,1.43855
369.32009,1.42836
369.07902,1.41165
368.83795,1.39858
368.59688,1.39124
368.35581,1.39003
368.11474,1.39408
367.87367,1.39931
367.63260,1.40367
367.39153,1.40931
367.15046,1.41607
366.90939,1.41991
366.66832,1.41993
366.42725,1.42071
366.18618,1.42703
365.94510,1.43792
365.70403,1.44604
365.46296,1.44389
365.22189,1.42995
364.98082,1.41010
364.73975,1.39423
364.49868,1.38572
364.25761,1.37795
364.01654,1.36705
363.77547,1.35781
363.53440,1.35454
363.29333,1.35838
363.05226,1.36885
362.81119,1.38252
362.57012,1.39568
362.32905,1.40540
362.08798,1.40842
361.84691,1.40164
361.60583,1.38567
361.36476,1.36805
361.12369,1.35553
360.88262,1.34889
360.64155,1.34972
360.40048,1.36153
360.15941,1.37989
359.91834,1.39214
359.67727,1.39561
359.43620,1.40140
359.19513,1.41063
358.95406,1.40746
358.71299,1.38496
358.47192,1.35652
358.23085,1.33662
357.98978,1.32751
357.74871,1.32315
357.50764,1.31635
357.26656,1.30513
357.02549,1.29649
356.78442,1.29913
356.54335,1.31340
356.30228,1.32973
356.06121,1.33694
355.82014,1.33355
355.57907,1.32596
355.33800,1.31892
355.09693,1.31192
354.85586,1.30490
354.61479,1.30194
354.37372,1.30404
354.13265,1.30589
353.89158,1.30349
353.65051,1.29894
353.40944,1.29534
353.16837,1.29458
352.92729,1.29933
352.68622,1.30872
352.44515,1.31408
352.20408,1.30980
351.96301,1.30344
351.72194,1.30748
351.48087,1.32562
351.23980,1.34823
350.99873,1.35972
350.75766,1.35463
350.51659,1.34295
350.27552,1.33763
350.03445,1.34249
349.79338,1.35031
349.55231,1.34939
349.31124,1.33571
349.07017,1.31955
348.82910,1.31450
348.58802,1.32225
348.34695,1.33300
348.10588,1.33794
347.86481,1.33571
347.62374,1.33108
347.38267,1.33168
347.14160,1.33934
346.90053,1.34367
346.65946,1.33370
346.41839,1.31670
346.17732,1.31161
345.93625,1.32635
345.69518,1.35096
345.45411,1.36914
345.21304,1.37374
344.97197,1.37129
344.73090,1.37317
344.48983,1.38214
344.24875,1.38899
344.00768,1.38499
343.76661,1.37480
343.52554,1.37230
343.28447,1.38530
343.04340,1.40829
342.80233,1.42820
342.56126,1.43294
342.32019,1.41967
342.07912,1.40052
341.83805,1.38955
341.59698,1.39127
341.35591,1.40231
341.11484,1.41389
340.87377,1.41864
340.63270,1.42060
340.39163,1.42617
340.15056,1.42984
339.90948,1.42415
339.66841,1.41356
339.42734,1.40784
339.18627,1.41261
338.94520,1.42818
338.70413,1.44934
338.46306,1.46782
338.22199,1.47822
337.98092,1.48093
337.73985,1.47582
337.49878,1.45984
337.25771,1.43817
337.01664,1.42484
336.77557,1.42780
336.53450,1.44041
336.29343,1.44883
336.05236,1.44385
335.81129,1.42596
335.57021,1.40580
335.32914,1.39435
335.08807,1.39375
334.84700,1.40024
334.60593,1.40987
334.36486,1.41912
334.12379,1.42401
333.88272,1.42436
333.64165,1.42259
333.40058,1.41004
333.15951,1.37645
332.91844,1.33281
332.67737,1.30356
332.43630,1.30541
332.19523,1.33275
331.95416,1.36506
331.71309,1.38893
331.47202,1.40660
331.23094,1.42234
330.98987,1.43110
330.74880,1.42537
330.50773,1.40863
330.26666,1.39299
330.02559,1.38564
329.78452,1.38512
329.54345,1.38879
329.30238,1.39596
329.06131,1.39979
328.82024,1.38591
328.57917,1.34959
328.33810,1.30748
328.09703,1.28288
327.85596,1.28711
327.61489,1.31539
327.37382,1.35170
327.13275,1.37762
326.89167,1.38780
326.65060,1.39381
326.40953,1.40100
326.16846,1.39832
325.92739,1.37944
325.68632,1.35954
325.44525,1.35649
325.20418,1.36548
324.96311,1.36997
324.72204,1.36600
324.48097,1.36036
324.23990,1.35827
323.99883,1.35703
323.75776,1.35401
323.51669,1.35412
323.27562,1.36172
323.03455,1.36957
322.79348,1.36709
322.55240,1.35718
322.31133,1.35194
322.07026,1.35782
321.82919,1.36881
321.58812,1.37616
321.34705,1.38008
321.10598,1.38595
320.86491,1.39177
320.62384,1.38580
320.38277,1.36736
320.14170,1.34948
319.90063,1.33907
319.65956,1.33665
319.41849,1.34090
319.17742,1.34752
318.93635,1.35794
318.69528,1.37841
318.45421,1.40660
318.21313,1.43042
317.97206,1.42906
317.73099,1.39022
317.48992,1.33658
317.24885,1.30980
317.00778,1.32448
316.76671,1.35637
316.52564,1.36925
316.28457,1.35547
316.04350,1.34046
315.80243,1.34929
315.56136,1.38059
315.32029,1.40912
315.07922,1.41413
314.83815,1.40466
314.59708,1.40201
314.35601,1.40610
314.11494,1.40678
313.87386,1.40738
313.63279,1.41320
313.39172,1.41473
313.15065,1.40683
312.90958,1.40193
312.66851,1.40627
312.42744,1.40961
312.18637,1.40745
311.94530,1.40911
311.70423,1.41908
311.46316,1.43085
311.22209,1.43721
310.98102,1.42915
310.73995,1.40390
310.49888,1.37644
310.25781,1.36346
310.01674,1.36711
309.77567,1.37956
309.53459,1.39306
309.29352,1.40361
309.05245,1.41573
308.81138,1.43836
308.57031,1.46867
308.32924,1.48590
308.08817,1.47134
307.84710,1.43738
307.60603,1.41258
307.36496,1.40962
307.12389,1.42310
306.88282,1.43869
306.64175,1.44683
306.40068,1.44967
306.15961,1.45268
305.91854,1.45374
305.67747,1.44589
305.43640,1.43178
305.19532,1.42339
304.95425,1.42572
304.71318,1.43095
304.47211,1.42901
304.23104,1.42005
303.98997,1.41327
303.74890,1.41309
303.50783,1.41028
303.26676,1.39645
303.02569,1.38102
302.78462,1.37915
302.54355,1.39110
302.30248,1.40406
302.06141,1.40952
301.82034,1.40865
301.57927,1.40289
301.33820,1.39059
301.09713,1.37398
300.85605,1.35937
300.61498,1.35168
300.37391,1.35094
300.13284,1.35270
299.89177,1.35204
299.65070,1.34962
299.40963,1.35086
299.16856,1.35745
298.92749,1.36355
298.68642,1.36159
298.44535,1.34914
298.20428,1.33107
297.96321,1.31694
297.72214,1.31404
297.48107,1.32220
297.24000,1.33511
296.99893,1.34620
296.75786,1.35159
296.51678,1.34828
296.27571,1.33668
296.03464,1.32498
295.79357,1.32075
295.55250,1.32064
295.31143,1.31639
295.07036,1.30413
294.82929,1.28621
294.58822,1.26898
294.34715,1.25899
294.10608,1.26127
293.86501,1.27605
293.62394,1.29318
293.38287,1.29697
293.14180,1.28401
292.90073,1.26796
292.65966,1.26262
292.41859,1.26906
292.17751,1.27788
291.93644,1.27918
291.69537,1.27013
291.45430,1.25512
291.21323,1.24085
290.97216,1.23247
290.73109,1.23148
290.49002,1.23488
290.24895,1.23850
290.00788,1.24087
289.76681,1.24229
289.52574,1.24223
289.28467,1.23934
289.04360,1.23309
288.80253,1.22460
288.56146,1.21663
288.32039,1.21218
288.07932,1.21200
287.83824,1.21404
287.59717,1.21583
287.35610,1.21661
287.11503,1.21585
286.87396,1.21172
286.63289,1.20456
286.39182,1.19988
286.15075,1.20247
285.90968,1.20958
285.66861,1.21423
285.42754,1.21323
285.18647,1.20782
284.94540,1.20033
284.70433,1.19415
284.46326,1.19252
284.22219,1.19475
283.98112,1.19685
283.74005,1.19694
283.49897,1.19674
283.25790,1.19742
283.01683,1.19765
282.77576,1.19713
282.53469,1.19814
282.29362,1.20184
282.05255,1.20702
281.81148,1.21316
281.57041,1.21931
281.32934,1.22123
281.08827,1.21627
280.84720,1.20935
280.60613,1.20675
280.36506,1.20746
280.12399,1.20662
279.88292,1.20305
279.64185,1.19825
279.40078,1.19353
279.15970,1.19094
278.91863,1.19326
278.67756,1.20173
278.43649,1.21291
278.19542,1.21962
277.95435,1.21808
277.71328,1.21155
277.47221,1.20427
277.23114,1.19726
276.99007,1.19243
276.74900,1.19393
276.50793,1.20139
276.26686,1.20651
276.02579,1.20188
275.78472,1.19106
275.54365,1.18389
275.30258,1.18521
275.06151,1.19154
274.82043,1.19633
274.57936,1.19805
274.33829,1.20047
274.09722,1.20477
273.85615,1.20833
273.61508,1.21005
273.37401,1.21118
273.13294,1.21087
272.89187,1.20705
272.65080,1.20210
272.40973,1.20174
272.16866,1.20847
271.92759,1.22002
271.68652,1.23265
271.44545,1.24244
271.20438,1.24586
270.96331,1.24336
270.72224,1.23941
270.48116,1.23738
270.24009,1.23725
269.99902,1.23857
269.75795,1.24258
269.51688,1.25011
269.27581,1.25999
269.03474,1.26966
268.79367,1.27537
268.55260,1.27561
268.31153,1.27510
268.07046,1.28081
267.82939,1.29388
267.58832,1.30745
267.34725,1.31441
267.10618,1.31610
266.86511,1.31875
266.62404,1.32211
266.38297,1.31899
266.14189,1.30877
265.90082,1.30164
265.65975,1.30609
265.41868,1.32088
265.17761,1.33963
264.93654,1.35622
264.69547,1.36764
264.45440,1.37719
264.21333,1.39172
263.97226,1.41220
263.73119,1.43155
263.49012,1.44412
263.24905,1.45138
263.00798,1.45634
262.76691,1.45950
262.52584,1.46432
262.28477,1.47788
262.04370,1.50143
261.80262,1.52645
261.56155,1.54409
261.32048,1.55556
261.07941,1.56945
260.83834,1.59136
260.59727,1.61803
260.35620,1.64039
260.11513,1.65378
259.87406,1.66304
259.63299,1.67586
259.39192,1.69269
259.15085,1.70431
258.90978,1.70478
258.66871,1.70658
258.42764,1.73203
258.18657,1.78720
257.94550,1.84984
257.70443,1.88683
257.46335,1.88943
257.22228,1.87711
256.98121,1.86243
256.74014,1.84631
256.49907,1.83276
256.25800,1.82970
256.01693,1.83819
255.77586,1.84655
255.53479,1.83757
255.29372,1.80685
255.05265,1.76777
254.81158,1.73110
254.57051,1.69781
254.32944,1.66719
254.08837,1.64019
253.84730,1.62476
253.60623,1.63163
253.36516,1.66148
253.12408,1.69836
252.88301,1.71800
252.64194,1.71230
252.40087,1.69083
252.15980,1.66162
251.91873,1.63118
251.67766,1.61129
251.43659,1.61310
251.19552,1.63448
250.95445,1.65805
250.71338,1.66700
250.47231,1.65420
250.23124,1.62393
249.99017,1.59215
249.74910,1.56943
249.50803,1.55562
249.26696,1.55041
249.02589,1.55636
248.78481,1.57432
248.54374,1.59877
248.30267,1.61862
248.06160,1.62806
247.82053,1.63495
247.57946,1.64588
247.33839,1.64812
247.09732,1.63013
246.85625,1.60714
246.61518,1.60193
246.37411,1.61712
246.13304,1.63596
245.89197,1.64255
245.65090,1.64048
245.40983,1.65013
245.16876,1.68228
244.92769,1.71971
244.68661,1.74124
244.44554,1.75583
244.20447,1.78686
243.96340,1.84169
243.72233,1.89751
243.48126,1.93176
243.24019,1.95570
242.99912,1.97168
242.75805,1.96510
242.51698,1.93332
242.27591,1.88659
242.03484,1.82731
241.79377,1.76036
241.55270,1.69758
241.31163,1.64277
241.07056,1.59009
240.82949,1.53081
240.58842,1.46951
240.34734,1.41868
240.10627,1.38036
239.86520,1.34644
239.62413,1.31044
239.38306,1.27248
239.14199,1.23630
238.90092,1.20609
238.65985,1.18498
238.41878,1.17375
238.17771,1.16908
237.93664,1.16338
237.69557,1.15010
237.45450,1.13004
237.21343,1.10880
236.97236,1.09053
236.73129,1.07633
236.49022,1.06442
236.24915,1.05055
236.00807,1.03276
235.76700,1.01572
235.52593,1.00555
235.28486,1.00188
235.04379,0.99875
234.80272,0.99252
234.56165,0.98496
234.32058,0.97823
234.07951,0.97168
233.83844,0.96452
233.59737,0.95855
233.35630,0.95623
233.11523,0.95656
232.87416,0.95510
232.63309,0.94928
232.39202,0.94225
232.15095,0.93868
231.90988,0.93845
231.66880,0.93797
231.42773,0.93643
231.18666,0.93611
230.94559,0.93626
230.70452,0.93195
230.46345,0.92183
230.22238,0.91190
229.98131,0.90772
229.74024,0.90724
229.49917,0.90486
229.25810,0.89954
229.01703,0.89537
228.77596,0.89495
228.53489,0.89608
228.29382,0.89523
228.05275,0.89177
227.81168,0.88832
227.57061,0.88684
227.32953,0.88670
227.08846,0.88787
226.84739,0.89054
226.60632,0.89163
226.36525,0.88765
226.12418,0.88017
225.88311,0.87279
225.64204,0.86602
225.40097,0.85913
225.15990,0.85331
224.91883,0.85064
224.67776,0.85229
224.43669,0.85823
224.19562,0.86668
223.95455,0.87451
223.71348,0.88013
223.47241,0.88435
223.23134,0.88695
222.99026,0.88638
222.74919,0.88431
222.50812,0.88536
222.26705,0.89023
222.02598,0.89479
221.78491,0.89695
221.54384,0.89925
221.30277,0.90393
221.06170,0.90955
220.82063,0.91351
220.57956,0.91634
220.33849,0.92244
220.09742,0.93561
219.85635,0.95353
219.61528,0.96895
219.37421,0.97790
219.13314,0.98346
218.89207,0.99015
218.65099,0.99832
218.40992,1.00571
218.16885,1.01246
217.92778,1.02125
217.68671,1.03319
217.44564,1.04705
217.20457,1.06161
216.96350,1.07567
216.72243,1.08712
216.48136,1.09572
216.24029,1.10578
215.99922,1.12234
215.75815,1.14496
215.51708,1.16530
215.27601,1.17248
215.03494,1.16592
214.79387,1.15776
214.55280,1.15738
214.31172,1.16459
214.07065,1.18036
213.82958,1.20966
213.58851,1.24843
213.34744,1.27850
213.10637,1.28530
212.86530,1.27429
212.62423,1.25837
212.38316,1.24472
212.14209,1.23877
211.90102,1.24630
211.65995,1.26763
211.41888,1.29428
211.17781,1.31438
210.93674,1.32263
210.69567,1.32267
210.45460,1.31957
210.21353,1.31677
209.97245,1.31666
209.73138,1.31792
209.49031,1.31530
209.24924,1.30560
209.00817,1.29257
208.76710,1.28274
208.52603,1.27777
208.28496,1.27266
208.04389,1.26260
207.80282,1.24993
207.56175,1.24135
207.32068,1.23968
207.07961,1.23958
206.83854,1.23187
206.59747,1.21387
206.35640,1.19247
206.11533,1.17582
205.87426,1.16676
205.63318,1.16318
205.39211,1.16003
205.15104,1.15125
204.90997,1.13404
204.66890,1.11205
204.42783,1.09122
204.18676,1.07472
203.94569,1.06395
203.70462,1.06012
203.46355,1.06147
203.22248,1.06171
202.98141,1.05392
202.74034,1.03556
202.49927,1.01004
202.25820,0.98473
202.01713,0.96606
201.77606,0.95504
201.53499,0.94679
201.29391,0.93554
201.05284,0.92020
200.81177,0.90344
200.57070,0.88799
200.32963,0.87545
200.08856,0.86659
199.84749,0.86048
199.60642,0.85418
199.36535,0.84459
199.12428,0.83121
198.88321,0.81701
198.64214,0.80647
198.40107,0.80166
198.16000,0.79919
197.91893,0.79225
197.67786,0.77869
197.43679,0.76454
197.19572,0.75667
196.95464,0.75457
196.71357,0.75103
196.47250,0.74112
196.23143,0.72789
195.99036,0.71756
195.74929,0.71236
195.50822,0.70939
195.26715,0.70388
195.02608,0.69430
194.78501,0.68449
194.54394,0.67964
194.30287,0.68093
194.06180,0.68350
193.82073,0.68014
193.57966,0.66900
193.33859,0.65560
193.09752,0.64641
192.85645,0.64302
192.61537,0.64272
192.37430,0.64231
192.13323,0.63984
191.89216,0.63448
191.65109,0.62722
191.41002,0.62073
191.16895,0.61701
190.92788,0.61562
190.68681,0.61462
190.44574,0.61251
190.20467,0.60965
189.96360,0.60792
189.72253,0.60791
189.48146,0.60762
189.24039,0.60502
188.99932,0.60094
188.75825,0.59807
188.51718,0.59724
188.27610,0.59609
188.03503,0.59210
187.79396,0.58660
187.55289,0.58358
187.31182,0.58424
187.07075,0.58520
186.82968,0.58348
186.58861,0.58076
186.34754,0.57991
186.10647,0.58012
185.86540,0.57850
185.62433,0.57562
185.38326,0.57534
185.14219,0.57907
184.90112,0.58388
184.66005,0.58707
184.41898,0.58911
184.17791,0.59085
183.93683,0.59079
183.69576,0.58797
183.45469,0.58526
183.21362,0.58642
182.97255,0.59055
182.73148,0.59273
182.49041,0.59101
182.24934,0.58893
182.00827,0.58959
181.76720,0.59163
181.52613,0.59290
181.28506,0.59362
181.04399,0.59417
180.80292,0.59392
180.56185,0.59390
180.32078,0.59604
180.07971,0.59942
179.83864,0.60207
179.59756,0.60536
179.35649,0.61123
179.11542,0.61763
178.87435,0.62223
178.63328,0.62725
178.39221,0.63525
178.15114,0.64505
177.91007,0.65532
177.66900,0.66728
177.42793,0.68120
177.18686,0.69538
176.94579,0.70875
176.70472,0.72118
176.46365,0.73279
176.22258,0.74481
175.98151,0.75879
175.74044,0.77528
175.49937,0.79398
175.25829,0.81299
175.01722,0.82945
174.77615,0.84360
174.53508,0.85870
174.29401,0.87544
174.05294,0.89181
173.81187,0.90802
173.57080,0.92513
173.32973,0.93994
173.08866,0.94723
172.84759,0.94704
172.60652,0.94610
172.36545,0.95092
172.12438,0.96185
171.88331,0.97422
171.64224,0.98342
171.40117,0.98758
171.16010,0.98738
170.91902,0.98459
170.67795,0.97943
170.43688,0.97032
170.19581,0.95786
169.95474,0.94548
169.71367,0.93531
169.47260,0.92713
169.23153,0.92012
168.99046,0.91382
168.74939,0.90895
168.50832,0.90673
168.26725,0.90671
168.02618,0.90641
167.78511,0.90477
167.54404,0.90440
167.30297,0.90823
167.06190,0.91558
166.82083,0.92280
166.57975,0.92661
166.33868,0.92686
166.09761,0.92517
165.85654,0.92283
165.61547,0.92158
165.37440,0.92426
165.13333,0.93246
164.89226,0.94448
164.65119,0.95730
164.41012,0.96882
164.16905,0.97717
163.92798,0.98026
163.68691,0.97933
163.44584,0.98063
163.20477,0.99002
162.96370,1.00642
162.72263,1.02178
162.48156,1.02813
162.24048,1.02481
161.99941,1.01725
161.75834,1.01071
161.51727,1.00917
161.27620,1.01634
161.03513,1.03090
160.79406,1.04349
160.55299,1.04513
160.31192,1.03723
160.07085,1.02726
159.82978,1.01924
159.58871,1.01276
159.34764,1.00656
159.10657,1.00065
158.86550,0.99662
158.62443,0.99603
158.38336,0.99785
158.14229,0.99858
157.90121,0.99513
157.66014,0.98671
157.41907,0.97446
157.17800,0.96094
156.93693,0.95013
156.69586,0.94581
156.45479,0.94729
156.21372,0.94854
155.97265,0.94425
155.73158,0.93481
155.49051,0.92288
155.24944,0.90953
155.00837,0.89571
154.76730,0.88370
154.52623,0.87520
154.28516,0.86926
154.04409,0.86240
153.80302,0.85118
153.56194,0.83542
153.32087,0.81849
153.07980,0.80397
152.83873,0.79250
152.59766,0.78185
152.35659,0.76957
152.11552,0.75513
151.87445,0.73920
151.63338,0.72235
151.39231,0.70573
151.15124,0.69150
150.91017,0.68095
150.66910,0.67233
150.42803,0.66191
150.18696,0.64773
149.94589,0.63156
149.70482,0.61725
149.46375,0.60789
149.22267,0.60381
148.98160,0.60157
148.74053,0.59637
148.49946,0.58673
148.25839,0.57586
148.01732,0.56786
147.77625,0.56398
147.53518,0.56204
147.29411,0.55894
147.05304,0.55460
146.81197,0.55253
146.57090,0.55534
146.32983,0.56106
146.08876,0.56542
145.84769,0.56714
145.60662,0.56902
145.36555,0.57414
145.12448,0.58246
144.88340,0.59046
144.64233,0.59421
144.40126,0.59359
144.16019,0.59216
143.91912,0.59253
143.67805,0.59375
143.43698,0.59340
143.19591,0.59073
142.95484,0.58652
142.71377,0.58103
142.47270,0.57383
142.23163,0.56547
141.99056,0.55776
141.74949,0.55155
141.50842,0.54525
141.26735,0.53708
141.02628,0.52793
140.78521,0.52054
140.54413,0.51598
140.30306,0.51293
140.06199,0.51054
139.82092,0.51014
139.57985,0.51301
139.33878,0.51815
139.09771,0.52354
138.85664,0.52833
138.61557,0.53290
138.37450,0.53771
138.13343,0.54295
137.89236,0.54949
137.65129,0.55909
137.41022,0.57244
137.16915,0.58795
136.92808,0.60381
136.68701,0.62030
136.44594,0.63855
136.20486,0.65822
135.96379,0.67836
135.72272,0.69955
135.48165,0.72299
135.24058,0.74857
134.99951,0.77605
134.75844,0.80618
134.51737,0.83873
134.27630,0.87185
134.03523,0.90486
133.79416,0.93808
133.55309,0.96949
133.31202,0.99570
133.07095,1.01651
132.82988,1.03483
132.58881,1.05357
132.34774,1.07462
132.10667,1.09627
131.86559,1.11185
131.62452,1.11623
131.38345,1.11290
131.14238,1.11163
130.90131,1.11834
130.66024,1.12732
130.41917,1.12550
130.17810,1.10621
129.93703,1.07447
129.69596,1.03816
129.45489,1.00190
129.21382,0.96719
128.97275,0.93274
128.73168,0.89655
128.49061,0.85879
128.24954,0.82205
128.00847,0.78955
127.76740,0.76261
127.52632,0.73914
127.28525,0.71596
127.04418,0.69257
126.80311,0.67048
126.56204,0.64976
126.32097,0.62904
126.07990,0.60846
125.83883,0.59025
125.59776,0.57604
125.35669,0.56444
125.11562,0.55248
124.87455,0.53944
124.63348,0.52731
124.39241,0.51700
124.15134,0.50714
123.91027,0.49725
123.66920,0.48881
123.42812,0.48234
123.18705,0.47626
122.94598,0.46952
122.70491,0.46282
122.46384,0.45645
122.22277,0.44977
121.98170,0.44356
121.74063,0.44009
121.49956,0.44006
121.25849,0.44199
121.01742,0.44496
120.77635,0.44980
120.53528,0.45730
120.29421,0.46724
120.05314,0.47952
119.81207,0.49464
119.57100,0.51292
119.32993,0.53382
119.08885,0.55639
118.84778,0.58054
118.60671,0.60766
118.36564,0.63865
118.12457,0.67191
117.88350,0.70492
117.64243,0.73683
117.40136,0.76653
117.16029,0.78976
116.91922,0.80214
116.67815,0.80478
116.43708,0.80290
116.19601,0.79979
115.95494,0.79474
115.71387,0.78445
115.47280,0.76675
115.23173,0.74501
114.99066,0.72641
114.74958,0.71474
114.50851,0.70701
114.26744,0.69798
114.02637,0.68620
113.78530,0.67496
113.54423,0.66830
113.30316,0.66759
113.06209,0.67146
112.82102,0.67781
112.57995,0.68443
112.33888,0.68827
112.09781,0.68683
111.85674,0.68065
111.61567,0.67356
111.37460,0.67006
111.13353,0.67214
110.89246,0.67758
110.65139,0.68173
110.41031,0.68205
110.16924,0.67997
109.92817,0.67874
109.68710,0.68156
109.44603,0.68904
109.20496,0.69492
108.96389,0.68733
108.72282,0.66065
108.48175,0.62323
108.24068,0.58766
107.99961,0.55938
107.75854,0.53653
107.51747,0.51610
107.27640,0.49827
107.03533,0.48629
106.79426,0.48258
106.55319,0.48398
106.31212,0.48198
106.07104,0.47042
105.82997,0.45155
105.58890,0.43222
105.34783,0.41729
105.10676,0.40778
104.86569,0.40209
104.62462,0.39829
104.38355,0.39533
104.14248,0.39142
103.90141,0.38321
103.66034,0.36961
103.41927,0.35438
103.17820,0.34254
102.93713,0.33595
102.69606,0.33279
102.45499,0.32949
102.21392,0.32281
101.97285,0.31237
101.73177,0.30128
101.49070,0.29301
101.24963,0.28854
101.00856,0.28735
100.76749,0.28899
100.52642,0.29133
100.28535,0.28915
100.04428,0.27939
99.80321,0.26654
99.56214,0.25843
99.32107,0.25846
99.08000,0.26307
98.83893,0.26457
98.59786,0.25911
98.35679,0.25161
98.11572,0.24949
97.87465,0.25430
97.63358,0.26039
97.39250,0.26106
97.15143,0.25688
96.91036,0.25507
96.66929,0.26070
96.42822,0.27156
96.18715,0.28010
95.94608,0.28171
95.70501,0.28110
95.46394,0.28640
95.22287,0.29904
94.98180,0.31190
94.74073,0.31837
94.49966,0.32075
94.25859,0.32377
94.01752,0.32598
93.77645,0.32309
93.53538,0.31684
93.29431,0.31448
93.05323,0.31854
92.81216,0.32244
92.57109,0.32028
92.33002,0.31671
92.08895,0.31892
91.84788,0.32525
91.60681,0.32892
91.36574,0.33135
91.12467,0.33984
90.88360,0.35427
90.64253,0.36808
90.40146,0.38356
90.16039,0.41032
89.91932,0.44877
89.67825,0.49053
89.43718,0.53358
89.19611,0.57972
88.95504,0.62228
88.71396,0.65694
88.47289,0.68728
88.23182,0.70688
87.99075,0.70354
87.74968,0.68103
87.50861,0.65112
87.26754,0.61789
87.02647,0.58129
86.78540,0.54215
86.54433,0.50289
86.30326,0.46810
86.06219,0.44072
85.82112,0.41772
85.58005,0.39398
85.33898,0.36880
85.09791,0.34530
84.85684,0.32598
84.61577,0.31089
84.37469,0.29833
84.13362,0.28650
83.89255,0.27480
83.65148,0.26365
83.41041,0.25389
83.16934,0.24586
82.92827,0.23883
82.68720,0.23227
82.44613,0.22676
82.20506,0.22220
81.96399,0.21706
81.72292,0.21098
81.48185,0.20578
81.24078,0.20265
80.99971,0.20025
80.75864,0.19700
80.51757,0.19342
80.27650,0.19060
80.03542,0.18796
79.79435,0.18479
79.55328,0.18224
79.31221,0.18154
79.07114,0.18186
78.83007,0.18167
78.58900,0.18043
78.34793,0.17806
78.10686,0.17473
77.86579,0.17100
77.62472,0.16718
77.38365,0.16362
77.14258,0.16144
76.90151,0.16131
76.66044,0.16223
76.41937,0.16273
76.17830,0.16251
75.93723,0.16199
75.69615,0.16139
75.45508,0.16111
75.21401,0.16175
74.97294,0.16271
74.73187,0.16162
74.49080,0.15703
74.24973,0.15120
74.00866,0.14838
73.76759,0.15090
73.52652,0.15717
73.28545,0.16228
73.04438,0.16158
72.80331,0.15550
72.56224,0.14922
72.32117,0.14751
72.08010,0.15138
71.83903,0.15809
71.59796,0.16314
71.35688,0.16296
71.11581,0.15742
70.87474,0.15031
70.63367,0.14656
70.39260,0.14924
70.15153,0.15945
69.91046,0.17750
69.66939,0.20205
69.42832,0.22857
69.18725,0.25006
68.94618,0.25983
68.70511,0.25493
68.46404,0.23804
68.22297,0.21540
67.98190,0.19293
67.74083,0.17463
67.49976,0.16213
67.25869,0.15445
67.01761,0.14879
66.77654,0.14267
66.53547,0.13554
66.29440,0.12875
66.05333,0.12457
65.81226,0.12454
65.57119,0.12850
65.33012,0.13560
65.08905,0.14607
64.84798,0.16101
64.60691,0.17992
64.36584,0.19886
64.12477,0.21235
63.88370,0.21725
63.64263,0.21405
63.40156,0.20449
63.16049,0.19032
62.91942,0.17447
62.67834,0.16093
62.43727,0.15246
62.19620,0.14902
61.95513,0.14752
61.71406,0.14344
61.47299,0.13429
61.23192,0.12191
60.99085,0.11047
60.74978,0.10320
60.50871,0.10126
60.26764,0.10384
60.02657,0.10797
59.78550,0.10988
59.54443,0.10841
59.30336,0.10685
59.06229,0.10962
58.82122,0.11745
58.58015,0.12749
58.33907,0.13740
58.09800,0.14693
57.85693,0.15668
57.61586,0.16692
57.37479,0.17621
57.13372,0.18154
56.89265,0.18131
56.65158,0.17611
56.41051,0.16553
56.16944,0.14923
55.92837,0.13001
55.68730,0.11183
55.44623,0.09697
55.20516,0.08683
54.96409,0.08355
54.72302,0.08982
54.48195,0.10741
54.24088,0.13681
53.99980,0.17714
53.75873,0.21785
53.51766,0.22742
53.27659,0.18906
53.03552,0.13182
52.79445,0.08322
52.55338,0.05550
52.31231,0.05276
52.07124,0.07361
51.83017,0.11343
51.58910,0.16024
51.34803,0.18189
51.10696,0.15342
50.86589,0.10557
50.62482,0.07528
50.38375,0.07659
50.14268,0.11316
49.90161,0.17236
49.66053,0.19361
49.41946,0.14029
49.17839,0.08629
48.93732,0.07446
48.69625,0.11087
48.45518,0.17637
48.21411,0.18960
47.97304,0.13229
47.73197,0.09316
47.49090,0.10307
47.24983,0.13642
47.00876,0.13268
46.76769,0.09283
46.52662,0.07644
46.28555,0.09594
46.04448,0.10851
45.80341,0.08792
45.56234,0.07643
45.32126,0.09510
45.08019,0.10764
44.83912,0.09248
44.59805,0.08680
44.35698,0.10496
44.11591,0.11446
43.87484,0.10113
43.63377,0.08937
43.39270,0.08428
43.15163,0.08036
42.91056,0.08538
42.66949,0.10246
42.42842,0.11932
42.18735,0.12787
41.94628,0.12799
41.70521,0.11780
41.46414,0.10103
41.22307,0.08810
40.98199,0.08649
40.74092,0.09489
40.49985,0.10348
40.25878,0.10382
40.01771,0.10208
39.77664,0.11196
39.53557,0.13677
39.29450,0.16527
39.05343,0.18006
38.81236,0.17221
38.57129,0.15342
38.33022,0.14448
38.08915,0.15365
37.84808,0.17509
37.60701,0.19657
37.36594,0.20468
37.12487,0.19681
36.88380,0.18284
36.64272,0.17305
36.40165,0.17277
36.16058,0.18201
35.91951,0.19457
35.67844,0.20198
35.43737,0.20021
35.19630,0.19165
34.95523,0.18152
34.71416,0.16998
34.47309,0.15094
34.23202,0.12508
33.99095,0.10337
33.74988,0.09224
33.50881,0.08909
33.26774,0.09329
33.02667,0.10506
32.78560,0.11735
32.54453,0.12456
32.30345,0.12549
32.06238,0.11514
31.82131,0.08942
31.58024,0.05694
31.33917,0.03522
31.09810,0.03123
30.85703,0.03513
30.61596,0.03560
30.37489,0.02995
30.13382,0.01985
29.89275,0.01191
29.65168,0.01865
29.41061,0.04125
29.16954,0.05967
28.92847,0.05469
28.68740,0.03110
28.44633,0.01517
28.20526,0.02491
27.96418,0.04258
27.72311,0.04055
27.48204,0.01505
27.24097,-0.01958
26.99990,-0.05007
26.75883,-0.06874
26.51776,-0.07386
26.27669,-0.07041
26.03562,-0.06516
25.79455,-0.06498
25.55348,-0.08006
25.31241,-0.11221
25.07134,-0.14819
24.83027,-0.17528
24.58920,-0.19441
24.34813,-0.21943
24.10706,-0.26405
23.86599,-0.32452
23.62491,-0.37090
23.38384,-0.37143
23.14277,-0.34208
22.90170,-0.32122
22.66063,-0.30868
22.41956,-0.28621
22.17849,-0.25991
21.93742,-0.24274
21.69635,-0.22896
21.45528,-0.22138
21.21421,-0.22656
20.97314,-0.24782
20.73207,-0.28584
20.49100,-0.34142
20.24993,-0.39147
20.00886,-0.38841
19.76779,-0.38126
19.52672,-0.38762
19.28564,-0.38412
19.04457,-0.36444
18.80350,-0.34342
18.56243,-0.32058
18.32136,-0.29711
18.08029,-0.28971
17.83922,-0.30975
17.59815,-0.34097
17.35708,-0.35557
17.11601,-0.34517
16.87494,-0.31794
16.63387,-0.29334
16.39280,-0.29180
16.15173,-0.31698
15.91066,-0.35444
15.66959,-0.37797
15.42852,-0.36692
15.18745,-0.33318
14.94637,-0.30645
14.70530,-0.30437
14.46423,-0.32318
14.22316,-0.33802
13.98209,-0.32921
13.74102,-0.32657
13.49995,-0.34385
13.25888,-0.36005
13.01781,-0.35345
12.77674,-0.33111
12.53567,-0.32035
12.29460,-0.32736
12.05353,-0.33254
11.81246,-0.32104
11.57139,-0.30133
11.33032,-0.28796
11.08925,-0.28384
10.84818,-0.28329
10.60710,-0.28540
10.36603,-0.29319
10.12496,-0.30698
9.88389,-0.32328
9.64282,-0.32964
9.40175,-0.31386
9.16068,-0.28888
8.91961,-0.28456
8.67854,-0.29723
8.43747,-0.28563
8.19640,-0.24878
7.95533,-0.22757
7.71426,-0.23688
7.47319,-0.26297
7.23212,-0.28409
6.99105,-0.28742
6.74998,-0.27625
6.50891,-0.25858
6.26783,-0.24263
6.02676,-0.23728
5.78569,-0.24297
5.54462,-0.25294
5.30355,-0.26332
5.06248,-0.27262
4.82141,-0.27917
4.58034,-0.29194
4.33927,-0.31362
4.09820,-0.33123
3.85713,-0.34758
3.61606,-0.35936
3.37499,-0.32813
3.13392,-0.28527
2.89285,-0.28125
2.65178,-0.30914
2.41071,-0.33454
2.16964,-0.34702
1.92856,-0.34599
1.68749,-0.32198
1.44642,-0.29898
1.20535,-0.28901
0.96428,-0.27867
0.72321,-0.29609
0.48214,-0.41442
0.24107,-0.50833
-0.00000,-0.08945
