399.69498,1.66540
399.45391,1.63743
399.21284,1.61939
398.97177,1.61589
398.73070,1.61831
398.48963,1.62124
398.24856,1.62589
398.00749,1.62898
397.76642,1.62481
397.52535,1.61879
397.28428,1.62378
397.04321,1.64090
396.80214,1.65458
396.56107,1.65718
396.32000,1.65809
396.07892,1.65911
395.83785,1.65396
395.59678,1.64689
395.35571,1.64742
395.11464,1.65472
394.87357,1.65687
394.63250,1.64559
394.39143,1.62472
394.15036,1.60321
393.90929,1.58728
393.66822,1.57977
393.42715,1.57861
393.18608,1.57919
392.94501,1.58227
392.70394,1.59419
392.46287,1.61632
392.22180,1.63670
391.98073,1.64079
391.73965,1.62919
391.49858,1.61196
391.25751,1.59269
391.01644,1.56889
390.77537,1.54421
390.53430,1.53013
390.29323,1.53419
390.05216,1.54587
389.81109,1.54265
389.57002,1.52291
389.32895,1.51039
389.08788,1.52593
388.84681,1.56288
388.60574,1.58926
388.36467,1.58964
388.12360,1.58361
387.88253,1.58626
387.64146,1.58229
387.40038,1.55684
387.15931,1.52005
386.91824,1.48962
386.67717,1.47490
386.43610,1.47471
386.19503,1.47576
385.95396,1.46510
385.71289,1.44981
385.47182,1.44401
385.23075,1.44295
384.98968,1.43557
384.74861,1.42306
384.50754,1.41287
384.26647,1.40908
384.02540,1.41064
383.78433,1.41420
383.54326,1.41157
383.30219,1.39711
383.06111,1.38206
382.82004,1.38024
382.57897,1.39458
382.33790,1.41099
382.09683,1.40545
381.85576,1.37241
381.61469,1.33221
381.37362,1.30771
381.13255,1.30823
380.89148,1.33048
380.65041,1.35972
380.40934,1.36996
380.16827,1.34801
379.92720,1.31901
379.68613,1.31786
379.44506,1.34932
379.20399,1.38299
378.96292,1.38348
378.72184,1.35380
378.48077,1.32420
378.23970,1.31228
377.99863,1.31996
377.75756,1.33981
377.51649,1.35887
377.27542,1.36798
377.03435,1.36838
376.79328,1.36824
376.55221,1.37503
376.31114,1.38811
376.07007,1.39957
375.82900,1.40806
375.58793,1.42067
375.34686,1.43970
375.10579,1.45919
374.86472,1.47173
374.62365,1.47120
374.38257,1.45904
374.14150,1.45083
373.90043,1.46136
373.65936,1.48713
373.41829,1.50966
373.17722,1.51065
372.93615,1.48539
372.69508,1.44939
372.45401,1.42367
372.21294,1.41942
371.97187,1.43417
371.73080,1.44949
371.48973,1.44624
371.24866,1.42941
371.00759,1.42157
370.76652,1.43412
370.52545,1.45978
370.28437,1.48453
370.04330,1.49856
369.80223,1.50161
369.56116,1.49821
369.32009,1.48850
369.07902,1.46947
368.83795,1.44553
368.59688,1.42877
368.35581,1.42341
368.11474,1.41968
367.87367,1.40816
367.63260,1.39166
367.39153,1.37948
367.15046,1.37537
366.90939,1.37395
366.66832,1.36956
366.42725,1.36516
366.18618,1.36941
365.94510,1.38631
365.70403,1.41010
365.46296,1.42890
365.22189,1.43216
364.98082,1.41976
364.73975,1.40326
364.49868,1.39340
364.25761,1.39071
364.01654,1.39023
363.77547,1.39048
363.53440,1.39358
363.29333,1.39839
363.05226,1.39921
362.81119,1.39478
362.57012,1.39199
362.32905,1.39527
362.08798,1.39827
361.84691,1.39258
361.60583,1.38176
361.36476,1.37753
361.12369,1.38301
360.88262,1.38872
360.64155,1.38449
360.40048,1.37178
360.15941,1.36232
359.91834,1.36258
359.67727,1.36756
359.43620,1.36892
359.19513,1.36659
358.95406,1.36810
358.71299,1.37260
358.47192,1.36828
358.23085,1.35137
357.98978,1.33542
357.74871,1.33506
357.50764,1.34985
357.26656,1.36597
357.02549,1.37142
356.78442,1.36655
356.54335,1.35730
356.30228,1.34811
356.06121,1.34256
355.82014,1.34161
355.57907,1.34130
355.33800,1.33692
355.09693,1.32735
354.85586,1.31334
354.61479,1.29741
354.37372,1.28569
354.13265,1.28481
353.89158,1.29765
353.65051,1.32024
353.40944,1.34117
353.16837,1.35093
352.92729,1.35181
352.68622,1.35126
352.44515,1.35208
352.20408,1.35194
351.96301,1.34785
351.72194,1.34026
351.48087,1.33283
351.23980,1.32954
350.99873,1.33107
350.75766,1.33346
350.51659,1.33327
350.27552,1.33436
350.03445,1.34319
349.79338,1.35686
349.55231,1.36412
349.31124,1.36110
349.07017,1.35680
348.82910,1.35828
348.58802,1.36142
348.34695,1.36039
348.10588,1.35734
347.86481,1.35611
347.62374,1.35629
347.38267,1.35578
347.14160,1.35513
346.90053,1.35442
346.65946,1.35128
346.41839,1.34597
346.17732,1.34284
345.93625,1.34465
345.69518,1.35017
345.45411,1.35841
345.21304,1.37240
344.97197,1.39292
344.73090,1.41079
344.48983,1.41535
344.24875,1.41209
344.00768,1.41778
343.76661,1.43442
343.52554,1.44191
343.28447,1.42677
343.04340,1.40343
342.80233,1.39090
342.56126,1.39320
342.32019,1.40560
342.07912,1.42324
341.83805,1.44035
341.59698,1.44704
341.35591,1.43745
341.11484,1.42040
340.87377,1.40946
340.63270,1.40978
340.39163,1.41657
340.15056,1.42283
339.90948,1.42846
339.66841,1.43357
339.42734,1.43120
339.18627,1.42596
338.94520,1.43339
338.70413,1.45422
338.46306,1.47421
338.22199,1.48322
337.98092,1.48179
337.73985,1.47569
337.49878,1.46850
337.25771,1.46226
337.01664,1.46436
336.77557,1.48089
336.53450,1.50239
336.29343,1.50550
336.05236,1.48260
335.81129,1.45985
335.57021,1.46156
335.32914,1.48469
335.08807,1.50914
334.84700,1.51998
334.60593,1.51781
334.36486,1.50729
334.12379,1.48893
333.88272,1.46590
333.64165,1.44844
333.40058,1.44725
333.15951,1.45992
332.91844,1.47314
332.67737,1.47685
332.43630,1.46966
332.19523,1.45520
331.95416,1.43174
331.71309,1.39818
331.47202,1.37328
331.23094,1.37495
330.98987,1.38927
330.74880,1.38327
330.50773,1.35572
330.26666,1.33862
330.02559,1.34984
329.78452,1.37325
329.54345,1.37795
329.30238,1.35773
329.06131,1.33745
328.82024,1.33796
328.57917,1.35817
328.33810,1.38661
328.09703,1.41375
327.85596,1.42936
327.61489,1.42779
327.37382,1.42148
327.13275,1.42465
326.89167,1.42994
326.65060,1.41912
326.40953,1.39477
326.16846,1.37647
325.92739,1.37401
325.68632,1.37983
325.44525,1.38197
325.20418,1.37605
324.96311,1.36343
324.72204,1.34898
324.48097,1.33747
324.23990,1.33181
323.99883,1.33647
323.75776,1.35207
323.51669,1.36716
323.27562,1.36602
323.03455,1.35220
322.79348,1.34534
322.55240,1.35411
322.31133,1.37134
322.07026,1.38554
321.82919,1.39055
321.58812,1.39294
321.34705,1.40071
321.10598,1.40586
320.86491,1.39800
320.62384,1.38722
320.38277,1.38660
320.14170,1.39040
319.90063,1.38701
319.65956,1.37799
319.41849,1.37410
319.17742,1.37945
318.93635,1.39418
318.69528,1.41493
318.45421,1.42548
318.21313,1.42032
317.97206,1.40522
317.73099,1.38044
317.48992,1.35545
317.24885,1.34182
317.00778,1.34102
316.76671,1.34692
316.52564,1.34755
316.28457,1.34345
316.04350,1.34880
315.80243,1.36563
315.56136,1.37706
315.32029,1.37117
315.07922,1.36557
314.83815,1.37678
314.59708,1.40344
314.35601,1.43410
314.11494,1.46038
313.87386,1.48651
313.63279,1.50889
313.39172,1.51289
313.15065,1.49745
312.90958,1.47673
312.66851,1.45728
312.42744,1.43633
312.18637,1.41542
311.94530,1.40291
311.70423,1.40411
311.46316,1.42072
311.22209,1.44902
310.98102,1.47034
310.73995,1.46622
310.49888,1.44579
310.25781,1.43361
310.01674,1.43565
309.77567,1.44539
309.53459,1.46174
309.29352,1.47921
309.05245,1.48271
308.81138,1.47059
308.57031,1.46078
308.32924,1.46552
308.08817,1.47872
307.84710,1.48415
307.60603,1.47006
307.36496,1.43995
307.12389,1.40706
306.88282,1.38529
306.64175,1.38626
306.40068,1.41267
306.15961,1.45472
305.91854,1.49575
305.67747,1.51890
305.43640,1.51439
305.19532,1.49129
304.95425,1.47033
304.71318,1.46027
304.47211,1.45258
304.23104,1.43697
303.98997,1.41381
303.74890,1.39011
303.50783,1.36979
303.26676,1.35393
303.02569,1.34703
302.78462,1.35490
302.54355,1.37430
302.30248,1.39039
302.06141,1.39063
301.82034,1.37751
301.57927,1.36213
301.33820,1.35384
301.09713,1.35621
300.85605,1.36542
300.61498,1.37351
300.37391,1.37555
300.13284,1.37273
299.89177,1.36983
299.65070,1.37074
299.40963,1.37128
299.16856,1.36206
298.92749,1.34135
298.68642,1.31760
298.44535,1.30215
298.20428,1.30223
297.96321,1.31890
297.72214,1.34636
297.48107,1.37070
297.24000,1.37844
296.99893,1.36941
296.75786,1.35401
296.51678,1.34024
296.27571,1.33026
296.03464,1.32511
295.79357,1.32525
295.55250,1.32734
295.31143,1.32484
295.07036,1.31424
294.82929,1.29974
294.58822,1.29035
294.34715,1.29179
294.10608,1.29993
293.86501,1.30414
293.62394,1.30115
293.38287,1.29701
293.14180,1.29440
292.90073,1.29153
292.65966,1.28866
292.41859,1.28836
292.17751,1.29299
291.93644,1.29993
291.69537,1.30124
291.45430,1.29127
291.21323,1.27232
290.97216,1.25272
290.73109,1.24118
290.49002,1.24189
290.24895,1.25109
290.00788,1.25917
289.76681,1.26013
289.52574,1.25716
289.28467,1.25572
289.04360,1.25560
288.80253,1.25281
288.56146,1.24586
288.32039,1.23779
288.07932,1.23293
287.83824,1.23180
287.59717,1.23028
287.35610,1.22557
287.11503,1.22130
286.87396,1.22197
286.63289,1.22510
286.39182,1.22459
286.15075,1.21963
285.90968,1.21486
285.66861,1.21329
285.42754,1.21337
285.18647,1.21252
284.94540,1.21115
284.70433,1.21178
284.46326,1.21438
284.22219,1.21620
283.98112,1.21663
283.74005,1.21831
283.49897,1.22198
283.25790,1.22371
283.01683,1.22047
282.77576,1.21443
282.53469,1.20993
282.29362,1.20881
282.05255,1.21027
281.81148,1.21369
281.57041,1.21893
281.32934,1.22478
281.08827,1.22942
280.84720,1.23153
280.60613,1.23047
280.36506,1.22657
280.12399,1.22092
279.88292,1.21467
279.64185,1.20897
279.40078,1.20536
279.15970,1.20552
278.91863,1.21057
278.67756,1.21995
278.43649,1.22971
278.19542,1.23473
277.95435,1.23370
277.71328,1.22797
277.47221,1.21919
277.23114,1.21038
276.99007,1.20517
276.74900,1.20412
276.50793,1.20513
276.26686,1.20738
276.02579,1.21185
275.78472,1.21926
275.54365,1.22814
275.30258,1.23432
275.06151,1.23443
274.82043,1.23128
274.57936,1.23154
274.33829,1.23741
274.09722,1.24443
273.85615,1.24723
273.61508,1.24372
273.37401,1.23532
273.13294,1.22697
272.89187,1.22368
272.65080,1.22425
272.40973,1.22277
272.16866,1.21875
271.92759,1.21987
271.68652,1.23040
271.44545,1.24347
271.20438,1.25050
270.96331,1.25367
270.72224,1.26107
270.48116,1.27288
270.24009,1.27969
269.99902,1.27591
269.75795,1.26903
269.51688,1.26884
269.27581,1.27315
269.03474,1.27129
268.79367,1.25948
268.55260,1.24580
268.31153,1.24113
268.07046,1.25104
267.82939,1.27231
267.58832,1.29351
267.34725,1.30416
267.10618,1.30481
266.86511,1.30437
266.62404,1.31052
266.38297,1.32461
266.14189,1.34187
265.90082,1.35515
265.65975,1.36094
265.41868,1.36120
265.17761,1.36049
264.93654,1.36285
264.69547,1.36961
264.45440,1.37936
264.21333,1.39033
263.97226,1.40225
263.73119,1.41554
263.49012,1.42945
263.24905,1.44329
263.00798,1.45902
262.76691,1.47911
262.52584,1.50031
262.28477,1.51409
262.04370,1.51671
261.80262,1.51603
261.56155,1.52401
261.32048,1.54352
261.07941,1.56723
260.83834,1.59378
260.59727,1.63220
260.35620,1.68159
260.11513,1.72358
259.87406,1.74250
259.63299,1.74035
259.39192,1.72971
259.15085,1.72785
258.90978,1.74540
258.66871,1.77977
258.42764,1.82265
258.18657,1.87225
257.94550,1.92192
257.70443,1.93988
257.46335,1.91720
257.22228,1.89507
256.98121,1.89639
256.74014,1.91015
256.49907,1.91078
256.25800,1.88672
256.01693,1.85384
255.77586,1.82717
255.53479,1.80445
255.29372,1.78060
255.05265,1.76794
254.81158,1.77447
254.57051,1.78087
254.32944,1.77146
254.08837,1.75592
253.84730,1.74746
253.60623,1.74365
253.36516,1.72934
253.12408,1.69820
252.88301,1.66280
252.64194,1.64287
252.40087,1.64641
252.15980,1.66369
251.91873,1.67945
251.67766,1.68181
251.43659,1.66750
251.19552,1.64987
250.95445,1.64303
250.71338,1.64112
250.47231,1.63198
250.23124,1.61857
249.99017,1.60830
249.74910,1.59851
249.50803,1.58886
249.26696,1.58936
249.02589,1.60444
248.78481,1.62354
248.54374,1.63441
248.30267,1.63808
248.06160,1.64150
247.82053,1.64543
247.57946,1.64786
247.33839,1.64872
247.09732,1.64836
246.85625,1.65019
246.61518,1.66157
246.37411,1.68505
246.13304,1.71390
245.89197,1.74061
245.65090,1.76370
245.40983,1.78466
245.16876,1.80319
244.92769,1.81180
244.68661,1.80238
244.44554,1.77959
244.20447,1.75690
243.96340,1.75356
243.72233,1.78545
243.48126,1.85891
243.24019,1.96703
242.99912,2.08617
242.75805,2.17207
242.51698,2.12745
242.27591,1.96597
242.03484,1.81901
241.79377,1.72754
241.55270,1.68922
241.31163,1.68133
241.07056,1.66438
240.82949,1.61369
240.58842,1.54388
240.34734,1.48125
240.10627,1.43398
239.86520,1.39527
239.62413,1.35685
239.38306,1.31769
239.14199,1.28152
238.90092,1.24938
238.65985,1.21902
238.41878,1.18984
238.17771,1.16563
237.93664,1.15135
237.69557,1.14629
237.45450,1.14074
237.21343,1.12406
236.97236,1.09839
236.73129,1.07734
236.49022,1.07013
236.24915,1.07248
236.00807,1.07242
235.76700,1.06237
235.52593,1.04493
235.28486,1.02741
235.04379,1.01485
234.80272,1.00774
234.56165,1.00260
234.32058,0.99579
234.07951,0.98767
233.83844,0.98226
233.59737,0.98214
233.35630,0.98385
233.11523,0.98020
232.87416,0.96880
232.63309,0.95522
232.39202,0.94578
232.15095,0.94248
231.90988,0.94491
231.66880,0.95153
231.42773,0.95804
231.18666,0.95905
230.94559,0.95314
230.70452,0.94378
230.46345,0.93506
230.22238,0.92877
229.98131,0.92495
229.74024,0.92382
229.49917,0.92494
229.25810,0.92506
229.01703,0.92048
228.77596,0.91227
228.53489,0.90593
228.29382,0.90498
228.05275,0.90715
227.81168,0.90673
227.57061,0.90135
227.32953,0.89480
227.08846,0.89171
226.84739,0.89222
226.60632,0.89292
226.36525,0.89258
226.12418,0.89289
225.88311,0.89395
225.64204,0.89325
225.40097,0.88894
225.15990,0.88425
224.91883,0.88453
224.67776,0.88930
224.43669,0.89282
224.19562,0.89214
223.95455,0.89003
223.71348,0.88973
223.47241,0.89192
223.23134,0.89573
222.99026,0.89915
222.74919,0.90065
222.50812,0.90232
222.26705,0.90696
222.02598,0.91221
221.78491,0.91363
221.54384,0.91274
221.30277,0.91553
221.06170,0.92356
220.82063,0.93344
220.57956,0.94399
220.33849,0.95654
220.09742,0.96885
219.85635,0.97681
219.61528,0.98170
219.37421,0.98786
219.13314,0.99523
218.89207,1.00123
218.65099,1.00754
218.40992,1.01937
218.16885,1.03903
217.92778,1.06135
217.68671,1.07615
217.44564,1.07935
217.20457,1.07924
216.96350,1.08552
216.72243,1.09796
216.48136,1.11090
216.24029,1.12219
215.99922,1.13104
215.75815,1.13490
215.51708,1.13503
215.27601,1.13826
215.03494,1.14861
214.79387,1.16281
214.55280,1.17554
214.31172,1.18538
214.07065,1.19513
213.82958,1.20779
213.58851,1.22304
213.34744,1.23904
213.10637,1.25577
212.86530,1.27192
212.62423,1.28199
212.38316,1.28327
212.14209,1.28129
211.90102,1.28235
211.65995,1.28793
211.41888,1.29900
211.17781,1.31565
210.93674,1.33077
210.69567,1.33362
210.45460,1.32103
210.21353,1.30115
209.97245,1.28417
209.73138,1.27261
209.49031,1.26443
209.24924,1.26049
209.00817,1.26265
208.76710,1.26722
208.52603,1.26654
208.28496,1.25982
208.04389,1.25439
207.80282,1.25299
207.56175,1.24990
207.32068,1.24133
207.07961,1.23246
206.83854,1.22914
206.59747,1.22862
206.35640,1.22342
206.11533,1.21119
205.87426,1.19638
205.63318,1.18286
205.39211,1.16997
205.15104,1.15588
204.90997,1.14031
204.66890,1.12299
204.42783,1.10295
204.18676,1.08227
203.94569,1.06727
203.70462,1.06222
203.46355,1.06419
203.22248,1.06716
202.98141,1.06719
202.74034,1.06035
202.49927,1.04256
202.25820,1.01575
202.01713,0.98856
201.77606,0.96880
201.53499,0.95743
201.29391,0.94892
201.05284,0.93836
200.81177,0.92711
200.57070,0.91915
200.32963,0.91460
200.08856,0.90946
199.84749,0.89958
199.60642,0.88387
199.36535,0.86547
199.12428,0.84887
198.88321,0.83524
198.64214,0.82256
198.40107,0.81035
198.16000,0.80018
197.91893,0.79222
197.67786,0.78529
197.43679,0.77973
197.19572,0.77625
196.95464,0.77295
196.71357,0.76699
196.47250,0.75782
196.23143,0.74654
195.99036,0.73469
195.74929,0.72549
195.50822,0.72272
195.26715,0.72634
195.02608,0.73105
194.78501,0.73001
194.54394,0.72027
194.30287,0.70491
194.06180,0.68934
193.82073,0.67698
193.57966,0.66927
193.33859,0.66716
193.09752,0.67009
192.85645,0.67427
192.61537,0.67458
192.37430,0.66891
192.13323,0.65980
191.89216,0.65153
191.65109,0.64656
191.41002,0.64469
191.16895,0.64435
190.92788,0.64379
190.68681,0.64183
190.44574,0.63858
190.20467,0.63537
189.96360,0.63296
189.72253,0.63005
189.48146,0.62384
189.24039,0.61373
188.99932,0.60371
188.75825,0.59895
188.51718,0.60091
188.27610,0.60608
188.03503,0.60869
187.79396,0.60542
187.55289,0.59826
187.31182,0.59248
187.07075,0.59236
186.82968,0.59820
186.58861,0.60572
186.34754,0.60904
186.10647,0.60620
185.86540,0.60102
185.62433,0.59841
185.38326,0.59907
185.14219,0.59980
184.90112,0.59783
184.66005,0.59380
184.41898,0.59108
184.17791,0.59274
183.93683,0.59783
183.69576,0.60182
183.45469,0.60243
183.21362,0.60273
182.97255,0.60564
182.73148,0.60951
182.49041,0.61156
182.24934,0.61254
182.00827,0.61506
181.76720,0.61851
181.52613,0.61902
181.28506,0.61518
181.04399,0.61105
180.80292,0.61036
180.56185,0.61218
180.32078,0.61413
180.07971,0.61653
179.83864,0.62120
179.59756,0.62850
179.35649,0.63692
179.11542,0.64375
178.87435,0.64692
178.63328,0.64846
178.39221,0.65373
178.15114,0.66494
177.91007,0.67799
177.66900,0.68823
177.42793,0.69745
177.18686,0.71035
176.94579,0.72630
176.70472,0.74088
176.46365,0.75358
176.22258,0.76687
175.98151,0.78046
175.74044,0.79372
175.49937,0.80986
175.25829,0.83019
175.01722,0.84961
174.77615,0.86375
174.53508,0.87519
174.29401,0.88882
174.05294,0.90574
173.81187,0.92288
173.57080,0.93684
173.32973,0.94899
173.08866,0.96315
172.84759,0.97651
172.60652,0.98113
172.36545,0.97806
172.12438,0.97709
171.88331,0.98198
171.64224,0.98697
171.40117,0.98781
171.16010,0.98815
170.91902,0.99166
170.67795,0.99564
170.43688,0.99573
170.19581,0.99257
169.95474,0.98878
169.71367,0.98289
169.47260,0.97269
169.23153,0.96060
168.99046,0.95018
168.74939,0.94128
168.50832,0.93332
168.26725,0.92850
168.02618,0.92746
167.78511,0.92718
167.54404,0.92589
167.30297,0.92539
167.06190,0.92630
166.82083,0.92642
166.57975,0.92580
166.33868,0.92830
166.09761,0.93643
165.85654,0.94844
165.61547,0.96041
165.37440,0.96909
165.13333,0.97347
164.89226,0.97477
164.65119,0.97614
164.41012,0.98135
164.16905,0.99253
163.92798,1.00827
163.68691,1.02390
163.44584,1.03420
163.20477,1.03790
162.96370,1.04014
162.72263,1.04711
162.48156,1.05733
162.24048,1.06309
161.99941,1.06215
161.75834,1.06019
161.51727,1.06016
161.27620,1.05828
161.03513,1.05223
160.79406,1.04543
160.55299,1.04077
160.31192,1.03641
160.07085,1.03040
159.82978,1.02472
159.58871,1.02165
159.34764,1.01960
159.10657,1.01551
158.86550,1.00960
158.62443,1.00481
158.38336,1.00215
158.14229,0.99965
157.90121,0.99618
157.66014,0.99437
157.41907,0.99684
157.17800,1.00084
156.93693,1.00039
156.69586,0.99318
156.45479,0.98191
156.21372,0.96970
155.97265,0.95771
155.73158,0.94700
155.49051,0.93841
155.24944,0.92993
155.00837,0.91752
154.76730,0.90014
154.52623,0.88184
154.28516,0.86754
154.04409,0.85811
153.80302,0.85090
153.56194,0.84389
153.32087,0.83729
153.07980,0.83081
152.83873,0.82162
152.59766,0.80694
152.35659,0.78729
152.11552,0.76595
151.87445,0.74619
151.63338,0.72910
151.39231,0.71411
151.15124,0.70107
150.91017,0.69019
150.66910,0.67998
150.42803,0.66806
150.18696,0.65453
149.94589,0.64161
149.70482,0.63053
149.46375,0.62100
149.22267,0.61297
148.98160,0.60645
148.74053,0.60027
148.49946,0.59288
148.25839,0.58455
148.01732,0.57746
147.77625,0.57347
147.53518,0.57256
147.29411,0.57349
147.05304,0.57516
146.81197,0.57671
146.57090,0.57734
146.32983,0.57734
146.08876,0.57827
145.84769,0.58117
145.60662,0.58541
145.36555,0.58976
145.12448,0.59396
144.88340,0.59818
144.64233,0.60207
144.40126,0.60551
144.16019,0.60956
143.91912,0.61467
143.67805,0.61868
143.43698,0.61846
143.19591,0.61313
142.95484,0.60426
142.71377,0.59371
142.47270,0.58303
142.23163,0.57380
141.99056,0.56616
141.74949,0.55810
141.50842,0.54873
141.26735,0.54071
141.02628,0.53695
140.78521,0.53641
140.54413,0.53533
140.30306,0.53168
140.06199,0.52676
139.82092,0.52334
139.57985,0.52358
139.33878,0.52758
139.09771,0.53314
138.85664,0.53824
138.61557,0.54354
138.37450,0.55111
138.13343,0.56130
137.89236,0.57224
137.65129,0.58205
137.41022,0.59131
137.16915,0.60269
136.92808,0.61789
136.68701,0.63650
136.44594,0.65741
136.20486,0.67940
135.96379,0.70026
135.72272,0.71843
135.48165,0.73600
135.24058,0.75725
134.99951,0.78485
134.75844,0.81962
134.51737,0.85993
134.27630,0.89856
134.03523,0.92639
133.79416,0.94409
133.55309,0.96283
133.31202,0.99000
133.07095,1.02079
132.82988,1.04675
132.58881,1.06809
132.34774,1.08818
132.10667,1.10344
131.86559,1.10897
131.62452,1.10829
131.38345,1.10836
131.14238,1.11066
130.90131,1.11490
130.66024,1.12095
130.41917,1.12458
130.17810,1.11909
129.93703,1.10129
129.69596,1.07418
129.45489,1.04233
129.21382,1.00639
128.97275,0.96433
128.73168,0.92032
128.49061,0.88566
128.24954,0.86396
128.00847,0.84507
127.76740,0.81861
127.52632,0.78605
127.28525,0.75482
127.04418,0.72772
126.80311,0.70232
126.56204,0.67647
126.32097,0.65068
126.07990,0.62661
125.83883,0.60574
125.59776,0.58901
125.35669,0.57613
125.11562,0.56528
124.87455,0.55432
124.63348,0.54249
124.39241,0.53040
124.15134,0.51862
123.91027,0.50735
123.66920,0.49707
123.42812,0.48844
123.18705,0.48129
122.94598,0.47447
122.70491,0.46705
122.46384,0.45941
122.22277,0.45295
121.98170,0.44920
121.74063,0.44923
121.49956,0.45298
121.25849,0.45870
121.01742,0.46425
120.77635,0.47011
120.53528,0.47936
120.29421,0.49315
120.05314,0.50884
119.81207,0.52425
119.57100,0.54032
119.32993,0.55823
119.08885,0.57762
118.84778,0.59875
118.60671,0.62320
118.36564,0.65159
118.12457,0.68249
117.88350,0.71303
117.64243,0.74003
117.40136,0.76214
117.16029,0.78064
116.91922,0.79606
116.67815,0.80559
116.43708,0.80582
116.19601,0.79689
115.95494,0.78238
115.71387,0.76688
115.47280,0.75451
115.23173,0.74722
114.99066,0.74327
114.74958,0.73935
114.50851,0.73392
114.26744,0.72743
114.02637,0.71993
113.78530,0.71155
113.54423,0.70480
113.30316,0.70250
113.06209,0.70400
112.82102,0.70643
112.57995,0.70948
112.33888,0.71495
112.09781,0.72184
111.85674,0.72610
111.61567,0.72603
111.37460,0.72317
111.13353,0.71813
110.89246,0.71118
110.65139,0.70558
110.41031,0.70439
110.16924,0.70467
109.92817,0.70035
109.68710,0.68964
109.44603,0.67450
109.20496,0.65576
108.96389,0.63402
108.72282,0.61236
108.48175,0.59427
108.24068,0.58013
107.99961,0.56707
107.75854,0.55215
107.51747,0.53558
107.27640,0.52045
107.03533,0.50910
106.79426,0.50066
106.55319,0.49262
106.31212,0.48362
106.07104,0.47452
105.82997,0.46687
105.58890,0.46065
105.34783,0.45414
105.10676,0.44635
104.86569,0.43799
104.62462,0.42933
104.38355,0.41930
104.14248,0.40759
103.90141,0.39523
103.66034,0.38246
103.41927,0.36852
103.17820,0.35417
102.93713,0.34210
102.69606,0.33452
102.45499,0.33150
102.21392,0.33162
101.97285,0.33312
101.73177,0.33438
101.49070,0.33413
101.24963,0.33195
101.00856,0.32839
100.76749,0.32371
100.52642,0.31732
100.28535,0.30879
100.04428,0.29860
99.80321,0.28792
99.56214,0.27878
99.32107,0.27368
99.08000,0.27362
98.83893,0.27704
98.59786,0.28130
98.35679,0.28425
98.11572,0.28427
97.87465,0.28040
97.63358,0.27314
97.39250,0.26464
97.15143,0.25836
96.91036,0.25871
96.66929,0.26942
96.42822,0.28904
96.18715,0.30749
95.94608,0.31277
95.70501,0.30631
95.46394,0.30105
95.22287,0.30524
94.98180,0.31769
94.74073,0.33229
94.49966,0.34159
94.25859,0.34071
94.01752,0.33297
93.77645,0.32781
93.53538,0.33129
93.29431,0.33970
93.05323,0.34158
92.81216,0.33144
92.57109,0.31866
92.33002,0.31490
92.08895,0.32170
91.84788,0.33102
91.60681,0.33488
91.36574,0.33513
91.12467,0.34009
90.88360,0.35434
90.64253,0.37495
90.40146,0.39558
90.16039,0.41665
89.91932,0.44881
89.67825,0.50053
89.43718,0.56238
89.19611,0.61155
88.95504,0.64787
88.71396,0.69140
88.47289,0.73326
88.23182,0.73657
87.99075,0.70896
87.74968,0.68459
87.50861,0.66549
87.26754,0.63395
87.02647,0.58923
86.78540,0.54528
86.54433,0.50679
86.30326,0.47282
86.06219,0.44458
85.82112,0.42225
85.58005,0.40327
85.33898,0.38443
85.09791,0.36385
84.85684,0.34348
84.61577,0.32736
84.37469,0.31558
84.13362,0.30418
83.89255,0.29177
83.65148,0.28124
83.41041,0.27405
83.16934,0.26769
82.92827,0.25989
82.68720,0.25196
82.44613,0.24589
82.20506,0.24085
81.96399,0.23533
81.72292,0.23027
81.48185,0.22679
81.24078,0.22336
80.99971,0.21860
80.75864,0.21433
80.51757,0.21261
80.27650,0.21232
80.03542,0.21134
79.79435,0.20991
79.55328,0.20926
79.31221,0.20867
79.07114,0.20658
78.83007,0.20339
78.58900,0.20080
78.34793,0.19908
78.10686,0.19676
77.86579,0.19246
77.62472,0.18604
77.38365,0.17901
77.14258,0.17395
76.90151,0.17210
76.66044,0.17192
76.41937,0.17133
76.17830,0.17029
75.93723,0.16956
75.69615,0.16837
75.45508,0.16532
75.21401,0.16124
74.97294,0.15893
74.73187,0.15999
74.49080,0.16347
74.24973,0.16759
74.00866,0.17116
73.76759,0.17250
73.52652,0.16973
73.28545,0.16440
73.04438,0.16057
72.80331,0.15849
72.56224,0.15505
72.32117,0.15147
72.08010,0.15310
71.83903,0.15974
71.59796,0.16319
71.35688,0.15918
71.11581,0.15472
70.87474,0.15724
70.63367,0.16438
70.39260,0.16905
70.15153,0.17153
69.91046,0.17992
69.66939,0.19913
69.42832,0.22391
69.18725,0.24135
68.94618,0.24256
68.70511,0.23208
68.46404,0.22123
68.22297,0.21726
67.98190,0.21885
67.74083,0.21691
67.49976,0.20287
67.25869,0.17976
67.01761,0.15919
66.77654,0.15004
66.53547,0.15470
66.29440,0.16944
66.05333,0.18469
65.81226,0.18948
65.57119,0.18093
65.33012,0.16642
65.08905,0.15520
64.84798,0.15238
64.60691,0.15801
64.36584,0.16913
64.12477,0.18374
63.88370,0.20126
63.64263,0.21815
63.40156,0.22752
63.16049,0.22534
62.91942,0.21320
62.67834,0.19429
62.43727,0.17111
62.19620,0.14729
61.95513,0.12688
61.71406,0.11157
61.47299,0.10090
61.23192,0.09514
60.99085,0.09606
60.74978,0.10405
60.50871,0.11620
60.26764,0.12844
60.02657,0.13910
59.78550,0.14947
59.54443,0.16132
59.30336,0.17451
59.06229,0.18677
58.82122,0.19508
58.58015,0.19757
58.33907,0.19438
58.09800,0.18728
57.85693,0.17938
57.61586,0.17395
57.37479,0.17206
57.13372,0.17166
56.89265,0.16976
56.65158,0.16477
56.41051,0.15662
56.16944,0.14636
55.92837,0.13574
55.68730,0.12685
55.44623,0.12159
55.20516,0.12015
54.96409,0.11971
54.72302,0.11598
54.48195,0.10743
54.24088,0.09696
53.99980,0.08801
53.75873,0.08060
53.51766,0.07328
53.27659,0.06733
53.03552,0.06704
52.79445,0.07652
52.55338,0.09618
52.31231,0.12093
52.07124,0.14354
51.83017,0.16317
51.58910,0.18845
51.34803,0.22622
51.10696,0.26284
50.86589,0.26423
50.62482,0.22591
50.38375,0.17162
50.14268,0.11338
49.90161,0.05978
49.66053,0.02318
49.41946,0.01458
49.17839,0.03848
48.93732,0.09562
48.69625,0.19538
48.45518,0.30423
48.21411,0.23975
47.97304,0.11557
47.73197,0.04276
47.49090,0.02913
47.24983,0.07117
47.00876,0.15599
46.76769,0.21111
46.52662,0.15563
46.28555,0.09174
46.04448,0.07795
45.80341,0.11310
45.56234,0.15759
45.32126,0.13443
45.08019,0.07683
44.83912,0.06208
44.59805,0.10187
44.35698,0.13372
44.11591,0.09562
43.87484,0.06723
43.63377,0.08774
43.39270,0.11040
43.15163,0.09782
42.91056,0.08568
42.66949,0.09869
42.42842,0.12297
42.18735,0.13947
41.94628,0.14773
41.70521,0.15555
41.46414,0.16409
41.22307,0.16750
40.98199,0.16413
40.74092,0.16186
40.49985,0.16233
40.25878,0.15821
40.01771,0.15439
39.77664,0.16585
39.53557,0.19053
39.29450,0.20246
39.05343,0.18932
38.81236,0.16896
38.57129,0.15855
38.33022,0.15831
38.08915,0.15334
37.84808,0.13846
37.60701,0.12989
37.36594,0.13628
37.12487,0.14516
36.88380,0.14908
36.64272,0.15694
36.40165,0.17319
36.16058,0.18881
35.91951,0.19466
35.67844,0.19066
35.43737,0.18102
35.19630,0.17192
34.95523,0.16954
34.71416,0.17173
34.47309,0.17191
34.23202,0.17095
33.99095,0.17120
33.74988,0.16891
33.50881,0.16157
33.26774,0.15137
33.02667,0.14020
32.78560,0.13516
32.54453,0.14674
32.30345,0.16817
32.06238,0.17452
31.82131,0.15270
31.58024,0.11713
31.33917,0.09035
31.09810,0.08269
30.85703,0.08673
30.61596,0.08977
30.37489,0.09025
30.13382,0.08763
29.89275,0.07285
29.65168,0.04285
29.41061,0.01193
29.16954,-0.00549
28.92847,-0.01099
28.68740,-0.01740
28.44633,-0.03432
28.20526,-0.05570
27.96418,-0.06786
27.72311,-0.06682
27.48204,-0.05911
27.24097,-0.04942
26.99990,-0.03855
26.75883,-0.03200
26.51776,-0.04020
26.27669,-0.06593
26.03562,-0.09854
25.79455,-0.12544
25.55348,-0.14016
25.31241,-0.13626
25.07134,-0.11351
24.83027,-0.09330
24.58920,-0.09967
24.34813,-0.13101
24.10706,-0.17069
23.86599,-0.20503
23.62491,-0.22703
23.38384,-0.23615
23.14277,-0.24212
22.90170,-0.24014
22.66063,-0.21865
22.41956,-0.19322
22.17849,-0.18970
21.93742,-0.21064
21.69635,-0.23250
21.45528,-0.23389
21.21421,-0.23456
20.97314,-0.26348
20.73207,-0.30840
20.49100,-0.32811
20.24993,-0.31472
20.00886,-0.29848
19.76779,-0.28967
19.52672,-0.27537
19.28564,-0.25505
19.04457,-0.25199
18.80350,-0.27872
18.56243,-0.31092
18.32136,-0.31776
18.08029,-0.31000
17.83922,-0.31623
17.59815,-0.33533
17.35708,-0.35643
17.11601,-0.37779
16.87494,-0.38688
16.63387,-0.38937
16.39280,-0.40007
16.15173,-0.42296
15.91066,-0.44251
15.66959,-0.42235
15.42852,-0.37792
15.18745,-0.34149
14.94637,-0.31239
14.70530,-0.27706
14.46423,-0.25116
14.22316,-0.25518
13.98209,-0.27377
13.74102,-0.28129
13.49995,-0.27886
13.25888,-0.27710
13.01781,-0.28057
12.77674,-0.29091
12.53567,-0.30054
12.29460,-0.29509
12.05353,-0.28636
11.81246,-0.30352
11.57139,-0.34623
11.33032,-0.37453
11.08925,-0.38090
10.84818,-0.39710
10.60710,-0.43381
10.36603,-0.46212
10.12496,-0.43873
9.88389,-0.39587
9.64282,-0.36572
9.40175,-0.35514
9.16068,-0.36544
8.91961,-0.38666
8.67854,-0.39084
8.43747,-0.37523
8.19640,-0.36665
7.95533,-0.35848
7.71426,-0.34583
7.47319,-0.33147
7.23212,-0.30719
6.99105,-0.28304
6.74998,-0.29105
6.50891,-0.34011
6.26783,-0.39022
6.02676,-0.40291
5.78569,-0.39749
5.54462,-0.37569
5.30355,-0.35179
5.06248,-0.34800
4.82141,-0.35444
4.58034,-0.37249
4.33927,-0.40841
4.09820,-0.41731
3.85713,-0.37945
3.61606,-0.32736
3.37499,-0.27977
3.13392,-0.25516
2.89285,-0.25530
2.65178,-0.27441
2.41071,-0.31421
2.16964,-0.35450
1.92856,-0.34851
1.68749,-0.31838
1.44642,-0.30412
1.20535,-0.29939
0.96428,-0.29498
0.72321,-0.32878
0.48214,-0.41453
0.24107,-0.38238
-0.00000,0.03629
