399.69498,1.88248
399.45391,1.84144
399.21284,1.89171
398.97177,1.96844
398.73070,1.95323
398.48963,1.86488
398.24856,1.80701
398.00749,1.80041
397.76642,1.80892
397.52535,1.80619
397.28428,1.80638
397.04321,1.83180
396.80214,1.87706
396.56107,1.92761
396.32000,1.95986
396.07892,1.94215
395.83785,1.94365
395.59678,1.98709
395.35571,1.98927
395.11464,1.96384
394.87357,1.96060
394.63250,2.02266
394.39143,2.13808
394.15036,2.19548
393.90929,2.14867
393.66822,2.08329
393.42715,2.10052
393.18608,2.21091
392.94501,2.26009
392.70394,2.08171
392.46287,1.94946
392.22180,1.90366
391.98073,1.90675
391.73965,1.93268
391.49858,1.99199
391.25751,2.05511
391.01644,2.11713
390.77537,2.15255
390.53430,2.11823
390.29323,2.05827
390.05216,2.02459
389.81109,2.04193
389.57002,2.05635
389.32895,2.03996
389.08788,1.99072
388.84681,1.93517
388.60574,1.94203
388.36467,1.94788
388.12360,1.93460
387.88253,1.97761
387.64146,2.03587
387.40038,2.05370
387.15931,2.06037
386.91824,2.18340
386.67717,2.47353
386.43610,2.39386
386.19503,2.39073
385.95396,2.42624
385.71289,2.19988
385.47182,2.01315
385.23075,1.98981
384.98968,1.97492
384.74861,1.89785
384.50754,1.84961
384.26647,1.84434
384.02540,1.84799
383.78433,1.83666
383.54326,1.83065
383.30219,1.88209
383.06111,2.00063
382.82004,2.15639
382.57897,2.34095
382.33790,2.23651
382.09683,1.97539
381.85576,1.82515
381.61469,1.75051
381.37362,1.74879
381.13255,1.82582
380.89148,1.96165
380.65041,2.03789
380.40934,1.99607
380.16827,1.95383
379.92720,1.98026
379.68613,2.16805
379.44506,2.42765
379.20399,2.20716
378.96292,2.02192
378.72184,2.01489
378.48077,2.12867
378.23970,2.19386
377.99863,2.12692
377.75756,2.03395
377.51649,1.95966
377.27542,1.92877
377.03435,1.92850
376.79328,1.91316
376.55221,1.91077
376.31114,1.93445
376.07007,2.02258
375.82900,2.25606
375.58793,2.20153
375.34686,2.21212
375.10579,2.39541
374.86472,2.42843
374.62365,2.12824
374.38257,1.93469
374.14150,1.88086
373.90043,1.95097
373.65936,2.08707
373.41829,2.11763
373.17722,2.02778
372.93615,1.85508
372.69508,1.75509
372.45401,1.74309
372.21294,1.77788
371.97187,1.79790
371.73080,1.72013
371.48973,1.61398
371.24866,1.56136
371.00759,1.57271
370.76652,1.64783
370.52545,1.77258
370.28437,1.88983
370.04330,1.91482
369.80223,1.88031
369.56116,1.83331
369.32009,1.77572
369.07902,1.72435
368.83795,1.67504
368.59688,1.62351
368.35581,1.58770
368.11474,1.59040
367.87367,1.63167
367.63260,1.67715
367.39153,1.68444
367.15046,1.65572
366.90939,1.62721
366.66832,1.61132
366.42725,1.58931
366.18618,1.54338
365.94510,1.49391
365.70403,1.46500
365.46296,1.45468
365.22189,1.46152
364.98082,1.49117
364.73975,1.53766
364.49868,1.58129
364.25761,1.60813
364.01654,1.61753
363.77547,1.61084
363.53440,1.59624
363.29333,1.58759
363.05226,1.57956
362.81119,1.55536
362.57012,1.52188
362.32905,1.50327
362.08798,1.50709
361.84691,1.51809
361.60583,1.52550
361.36476,1.53626
361.12369,1.55119
360.88262,1.55017
360.64155,1.51506
360.40048,1.46374
360.15941,1.42689
359.91834,1.41795
359.67727,1.43156
359.43620,1.44790
359.19513,1.44809
358.95406,1.43590
358.71299,1.43277
358.47192,1.45179
358.23085,1.48532
357.98978,1.51322
357.74871,1.52615
357.50764,1.52937
357.26656,1.52335
357.02549,1.50701
356.78442,1.48449
356.54335,1.45879
356.30228,1.43108
356.06121,1.40693
355.82014,1.39468
355.57907,1.39722
355.33800,1.40975
355.09693,1.43120
354.85586,1.46320
354.61479,1.48875
354.37372,1.48523
354.13265,1.46416
353.89158,1.45703
353.65051,1.47369
353.40944,1.49175
353.16837,1.48658
352.92729,1.46322
352.68622,1.45468
352.44515,1.47883
352.20408,1.50589
351.96301,1.49585
351.72194,1.46639
351.48087,1.45041
351.23980,1.44483
350.99873,1.43130
350.75766,1.41078
350.51659,1.40714
350.27552,1.43248
350.03445,1.46487
349.79338,1.47373
349.55231,1.46492
349.31124,1.45553
349.07017,1.44806
348.82910,1.44399
348.58802,1.44023
348.34695,1.43603
348.10588,1.44396
347.86481,1.47038
347.62374,1.49144
347.38267,1.48036
347.14160,1.45181
346.90053,1.43945
346.65946,1.45273
346.41839,1.48201
346.17732,1.51518
345.93625,1.54239
345.69518,1.55496
345.45411,1.54538
345.21304,1.52416
344.97197,1.51571
344.73090,1.52818
344.48983,1.54806
344.24875,1.56214
344.00768,1.56249
343.76661,1.54321
343.52554,1.52395
343.28447,1.53404
343.04340,1.57409
342.80233,1.62212
342.56126,1.65070
342.32019,1.64127
342.07912,1.60701
341.83805,1.58030
341.59698,1.58031
341.35591,1.61584
341.11484,1.68775
340.87377,1.77297
340.63270,1.82440
340.39163,1.81431
340.15056,1.77307
339.90948,1.75059
339.66841,1.74436
339.42734,1.73192
339.18627,1.73660
338.94520,1.77300
338.70413,1.80990
338.46306,1.82384
338.22199,1.83472
337.98092,1.85269
337.73985,1.85076
337.49878,1.82224
337.25771,1.80258
337.01664,1.83216
336.77557,1.89378
336.53450,1.91970
336.29343,1.93221
336.05236,1.96660
335.81129,2.00182
335.57021,1.98905
335.32914,1.93650
335.08807,1.88443
334.84700,1.85847
334.60593,1.83345
334.36486,1.78546
334.12379,1.74646
333.88272,1.75058
333.64165,1.79185
333.40058,1.85390
333.15951,1.93104
332.91844,1.96896
332.67737,1.87089
332.43630,1.79718
332.19523,1.78133
331.95416,1.78482
331.71309,1.77817
331.47202,1.75522
331.23094,1.70713
330.98987,1.64640
330.74880,1.62483
330.50773,1.66120
330.26666,1.71000
330.02559,1.71670
329.78452,1.67120
329.54345,1.61377
329.30238,1.59833
329.06131,1.62637
328.82024,1.65189
328.57917,1.64829
328.33810,1.64863
328.09703,1.69056
327.85596,1.75048
327.61489,1.75714
327.37382,1.69376
327.13275,1.62015
326.89167,1.57487
326.65060,1.55115
326.40953,1.54303
326.16846,1.55968
325.92739,1.60014
325.68632,1.65702
325.44525,1.74232
325.20418,1.81875
324.96311,1.83590
324.72204,1.80483
324.48097,1.74771
324.23990,1.70598
323.99883,1.69772
323.75776,1.72053
323.51669,1.77077
323.27562,1.85814
323.03455,1.94553
322.79348,1.94012
322.55240,1.86506
322.31133,1.82602
322.07026,1.85616
321.82919,1.91086
321.58812,1.95402
321.34705,1.98770
321.10598,1.99604
320.86491,1.98154
320.62384,1.93845
320.38277,1.86063
320.14170,1.78080
319.90063,1.74789
319.65956,1.77843
319.41849,1.87142
319.17742,2.03636
318.93635,2.24313
318.69528,2.15715
318.45421,1.95425
318.21313,1.86289
317.97206,1.91475
317.73099,2.07034
317.48992,1.93046
317.24885,1.80144
317.00778,1.76499
316.76671,1.77543
316.52564,1.81911
316.28457,1.89960
316.04350,1.96727
315.80243,1.98833
315.56136,1.98564
315.32029,1.96058
315.07922,1.92111
314.83815,1.90369
314.59708,1.90948
314.35601,1.91197
314.11494,1.93055
313.87386,1.95086
313.63279,1.97704
313.39172,2.06433
313.15065,2.15633
312.90958,2.16710
312.66851,2.20764
312.42744,2.30240
312.18637,2.26834
311.94530,2.08086
311.70423,2.02635
311.46316,2.14216
311.22209,2.24452
310.98102,2.24396
310.73995,2.32522
310.49888,2.07386
310.25781,1.89709
310.01674,1.87866
309.77567,1.97341
309.53459,2.08473
309.29352,2.07421
309.05245,2.08015
308.81138,2.10982
308.57031,2.04043
308.32924,1.98874
308.08817,1.99943
307.84710,1.99149
307.60603,1.90478
307.36496,1.81256
307.12389,1.78478
306.88282,1.80287
306.64175,1.83034
306.40068,1.84813
306.15961,1.80068
305.91854,1.71848
305.67747,1.68672
305.43640,1.72690
305.19532,1.77315
304.95425,1.73306
304.71318,1.62169
304.47211,1.51698
304.23104,1.44766
303.98997,1.40750
303.74890,1.39077
303.50783,1.39326
303.26676,1.40271
303.02569,1.40325
302.78462,1.39308
302.54355,1.38609
302.30248,1.39102
302.06141,1.40404
301.82034,1.41293
301.57927,1.39907
301.33820,1.35917
301.09713,1.31508
300.85605,1.28639
300.61498,1.27634
300.37391,1.28007
300.13284,1.29094
299.89177,1.29936
299.65070,1.29704
299.40963,1.28388
299.16856,1.26561
298.92749,1.24824
298.68642,1.23885
298.44535,1.24227
298.20428,1.25174
297.96321,1.25226
297.72214,1.24036
297.48107,1.22953
297.24000,1.23133
296.99893,1.24350
296.75786,1.25637
296.51678,1.26249
296.27571,1.25615
296.03464,1.23451
295.79357,1.20755
295.55250,1.18978
295.31143,1.18148
295.07036,1.17314
294.82929,1.16404
294.58822,1.16091
294.34715,1.16453
294.10608,1.16979
293.86501,1.17219
293.62394,1.16767
293.38287,1.15432
293.14180,1.13796
292.90073,1.12771
292.65966,1.12552
292.41859,1.12684
292.17751,1.12940
291.93644,1.13380
291.69537,1.13798
291.45430,1.13713
291.21323,1.13066
290.97216,1.12417
290.73109,1.12003
290.49002,1.11447
290.24895,1.10340
290.00788,1.08736
289.76681,1.07202
289.52574,1.06275
289.28467,1.05963
289.04360,1.05930
288.80253,1.06092
288.56146,1.06660
288.32039,1.07580
288.07932,1.08442
287.83824,1.08976
287.59717,1.09097
287.35610,1.08577
287.11503,1.07448
286.87396,1.06410
286.63289,1.06211
286.39182,1.06989
286.15075,1.08236
285.90968,1.08854
285.66861,1.07947
285.42754,1.06099
285.18647,1.04762
284.94540,1.04542
284.70433,1.04898
284.46326,1.05188
284.22219,1.05284
283.98112,1.05280
283.74005,1.05261
283.49897,1.05337
283.25790,1.05603
283.01683,1.06011
282.77576,1.06335
282.53469,1.06246
282.29362,1.05640
282.05255,1.04812
281.81148,1.04047
281.57041,1.03380
281.32934,1.02700
281.08827,1.01951
280.84720,1.01325
280.60613,1.01146
280.36506,1.01484
280.12399,1.02004
279.88292,1.02318
279.64185,1.02364
279.40078,1.02391
279.15970,1.02762
278.91863,1.03646
278.67756,1.04778
278.43649,1.05626
278.19542,1.05853
277.95435,1.05438
277.71328,1.04563
277.47221,1.03737
277.23114,1.03536
276.99007,1.03815
276.74900,1.03710
276.50793,1.02810
276.26686,1.01763
276.02579,1.01384
275.78472,1.01744
275.54365,1.02193
275.30258,1.02011
275.06151,1.01234
274.82043,1.00647
274.57936,1.00879
274.33829,1.01897
274.09722,1.03302
273.85615,1.04571
273.61508,1.05102
273.37401,1.04711
273.13294,1.04000
272.89187,1.03690
272.65080,1.03940
272.40973,1.04422
272.16866,1.04679
271.92759,1.04432
271.68652,1.03840
271.44545,1.03452
271.20438,1.03741
270.96331,1.04577
270.72224,1.05237
270.48116,1.05180
270.24009,1.04589
269.99902,1.03971
269.75795,1.03688
269.51688,1.03937
269.27581,1.04597
269.03474,1.05167
268.79367,1.05428
268.55260,1.05949
268.31153,1.07235
268.07046,1.08655
267.82939,1.09079
267.58832,1.08500
267.34725,1.07870
267.10618,1.07624
266.86511,1.07383
266.62404,1.06980
266.38297,1.06868
266.14189,1.07285
265.90082,1.07838
265.65975,1.08101
265.41868,1.08154
265.17761,1.08461
264.93654,1.09373
264.69547,1.10749
264.45440,1.12145
264.21333,1.13301
263.97226,1.14233
263.73119,1.14911
263.49012,1.15204
263.24905,1.15202
263.00798,1.15402
262.76691,1.16418
262.52584,1.18343
262.28477,1.20334
262.04370,1.21431
261.80262,1.22038
261.56155,1.23215
261.32048,1.24590
261.07941,1.24844
260.83834,1.24128
260.59727,1.23961
260.35620,1.24944
260.11513,1.26373
259.87406,1.27732
259.63299,1.29130
259.39192,1.30541
259.15085,1.31954
258.90978,1.34029
258.66871,1.37463
258.42764,1.41775
258.18657,1.45552
257.94550,1.47771
257.70443,1.48533
257.46335,1.48778
257.22228,1.50069
256.98121,1.54155
256.74014,1.61060
256.49907,1.67955
256.25800,1.72291
256.01693,1.74729
255.77586,1.76224
255.53479,1.76824
255.29372,1.76569
255.05265,1.77411
254.81158,1.82643
254.57051,1.92065
254.32944,2.02887
254.08837,2.09804
253.84730,2.03031
253.60623,1.96548
253.36516,1.96881
253.12408,2.00875
252.88301,2.07416
252.64194,2.13508
252.40087,2.14408
252.15980,2.14885
251.91873,2.18323
251.67766,2.20142
251.43659,2.15296
251.19552,2.13045
250.95445,2.14488
250.71338,2.15890
250.47231,2.30119
250.23124,2.44447
249.99017,2.31291
249.74910,2.22336
249.50803,2.18909
249.26696,2.14111
249.02589,2.11293
248.78481,2.14855
248.54374,2.27849
248.30267,2.37463
248.06160,2.38836
247.82053,2.35102
247.57946,2.58016
247.33839,2.81843
247.09732,2.39309
246.85625,2.25421
246.61518,2.30458
246.37411,2.22112
246.13304,2.07507
245.89197,2.02517
245.65090,2.07010
245.40983,2.13069
245.16876,2.11144
244.92769,2.00992
244.68661,1.89292
244.44554,1.79536
244.20447,1.71368
243.96340,1.65202
243.72233,1.61569
243.48126,1.59146
243.24019,1.56477
242.99912,1.53226
242.75805,1.49359
242.51698,1.44631
242.27591,1.38947
242.03484,1.33092
241.79377,1.28203
241.55270,1.24801
241.31163,1.22587
241.07056,1.20638
240.82949,1.18242
240.58842,1.15796
240.34734,1.14016
240.10627,1.12424
239.86520,1.09874
239.62413,1.06296
239.38306,1.02750
239.14199,1.00060
238.90092,0.98261
238.65985,0.97077
238.41878,0.96146
238.17771,0.94954
237.93664,0.93212
237.69557,0.91227
237.45450,0.89482
237.21343,0.88053
236.97236,0.86747
236.73129,0.85573
236.49022,0.84675
236.24915,0.83971
236.00807,0.83242
235.76700,0.82406
235.52593,0.81424
235.28486,0.80320
235.04379,0.79403
234.80272,0.79032
234.56165,0.79070
234.32058,0.79004
234.07951,0.78664
233.83844,0.78268
233.59737,0.77860
233.35630,0.77316
233.11523,0.76781
232.87416,0.76572
232.63309,0.76695
232.39202,0.76797
232.15095,0.76616
231.90988,0.76237
231.66880,0.75860
231.42773,0.75546
231.18666,0.75247
230.94559,0.74927
230.70452,0.74536
230.46345,0.74050
230.22238,0.73577
229.98131,0.73314
229.74024,0.73327
229.49917,0.73430
229.25810,0.73376
229.01703,0.73029
228.77596,0.72385
228.53489,0.71589
228.29382,0.70926
228.05275,0.70687
227.81168,0.70944
227.57061,0.71368
227.32953,0.71466
227.08846,0.71136
226.84739,0.70755
226.60632,0.70645
226.36525,0.70684
226.12418,0.70601
225.88311,0.70417
225.64204,0.70342
225.40097,0.70453
225.15990,0.70676
224.91883,0.70938
224.67776,0.71170
224.43669,0.71272
224.19562,0.71204
223.95455,0.71102
223.71348,0.71144
223.47241,0.71321
223.23134,0.71538
222.99026,0.71892
222.74919,0.72537
222.50812,0.73346
222.26705,0.73997
222.02598,0.74333
221.78491,0.74406
221.54384,0.74290
221.30277,0.74116
221.06170,0.74175
220.82063,0.74739
220.57956,0.75757
220.33849,0.76804
220.09742,0.77427
219.85635,0.77664
219.61528,0.78077
219.37421,0.79114
219.13314,0.80509
218.89207,0.81545
218.65099,0.81898
218.40992,0.81933
218.16885,0.82237
217.92778,0.83156
217.68671,0.84574
217.44564,0.85995
217.20457,0.87045
216.96350,0.87894
216.72243,0.89000
216.48136,0.90463
216.24029,0.91831
215.99922,0.92658
215.75815,0.93080
215.51708,0.93633
215.27601,0.94529
215.03494,0.95385
214.79387,0.95689
214.55280,0.95301
214.31172,0.94624
214.07065,0.94479
213.82958,0.95464
213.58851,0.97300
213.34744,0.99090
213.10637,1.00273
212.86530,1.00989
212.62423,1.01498
212.38316,1.01744
212.14209,1.01640
211.90102,1.01436
211.65995,1.01460
211.41888,1.01626
211.17781,1.01569
210.93674,1.01378
210.69567,1.01610
210.45460,1.02405
210.21353,1.03198
209.97245,1.03331
209.73138,1.02664
209.49031,1.01637
209.24924,1.00822
209.00817,1.00474
208.76710,1.00481
208.52603,1.00624
208.28496,1.00740
208.04389,1.00705
207.80282,1.00390
207.56175,0.99651
207.32068,0.98574
207.07961,0.97582
206.83854,0.97016
206.59747,0.96823
206.35640,0.96794
206.11533,0.96645
205.87426,0.95845
205.63318,0.94142
205.39211,0.92156
205.15104,0.90759
204.90997,0.90177
204.66890,0.90008
204.42783,0.89772
204.18676,0.89238
203.94569,0.88497
203.70462,0.87914
203.46355,0.87642
203.22248,0.87158
202.98141,0.85831
202.74034,0.83813
202.49927,0.81841
202.25820,0.80392
202.01713,0.79512
201.77606,0.79133
201.53499,0.78952
201.29391,0.78399
201.05284,0.77231
200.81177,0.75811
200.57070,0.74586
200.32963,0.73631
200.08856,0.72770
199.84749,0.71857
199.60642,0.70860
199.36535,0.69825
199.12428,0.68848
198.88321,0.67987
198.64214,0.67130
198.40107,0.66079
198.16000,0.64836
197.91893,0.63698
197.67786,0.62944
197.43679,0.62534
197.19572,0.62197
196.95464,0.61747
196.71357,0.61200
196.47250,0.60658
196.23143,0.60180
195.99036,0.59731
195.74929,0.59218
195.50822,0.58601
195.26715,0.57972
195.02608,0.57466
194.78501,0.57104
194.54394,0.56771
194.30287,0.56330
194.06180,0.55739
193.82073,0.55106
193.57966,0.54627
193.33859,0.54373
193.09752,0.54176
192.85645,0.53862
192.61537,0.53502
192.37430,0.53243
192.13323,0.53047
191.89216,0.52754
191.65109,0.52297
191.41002,0.51740
191.16895,0.51206
190.92788,0.50781
190.68681,0.50427
190.44574,0.50048
190.20467,0.49660
189.96360,0.49378
189.72253,0.49191
189.48146,0.48947
189.24039,0.48618
188.99932,0.48392
188.75825,0.48421
188.51718,0.48591
188.27610,0.48605
188.03503,0.48281
187.79396,0.47746
187.55289,0.47319
187.31182,0.47198
187.07075,0.47295
186.82968,0.47421
186.58861,0.47504
186.34754,0.47528
186.10647,0.47427
185.86540,0.47212
185.62433,0.47048
185.38326,0.47053
185.14219,0.47129
184.90112,0.47154
184.66005,0.47194
184.41898,0.47364
184.17791,0.47592
183.93683,0.47701
183.69576,0.47713
183.45469,0.47892
183.21362,0.48405
182.97255,0.49040
182.73148,0.49355
182.49041,0.49145
182.24934,0.48684
182.00827,0.48442
181.76720,0.48630
181.52613,0.49068
181.28506,0.49469
181.04399,0.49753
180.80292,0.50015
180.56185,0.50305
180.32078,0.50571
180.07971,0.50800
179.83864,0.51065
179.59756,0.51386
179.35649,0.51655
179.11542,0.51837
178.87435,0.52108
178.63328,0.52626
178.39221,0.53266
178.15114,0.53805
177.91007,0.54288
177.66900,0.54973
177.42793,0.55983
177.18686,0.57180
176.94579,0.58325
176.70472,0.59303
176.46365,0.60232
176.22258,0.61330
175.98151,0.62660
175.74044,0.64078
175.49937,0.65486
175.25829,0.66968
175.01722,0.68541
174.77615,0.69996
174.53508,0.71214
174.29401,0.72430
174.05294,0.73851
173.81187,0.75310
173.57080,0.76609
173.32973,0.77854
173.08866,0.79074
172.84759,0.79950
172.60652,0.80389
172.36545,0.80828
172.12438,0.81545
171.88331,0.82159
171.64224,0.82124
171.40117,0.81433
171.16010,0.80573
170.91902,0.80037
170.67795,0.80011
170.43688,0.80243
170.19581,0.80160
169.95474,0.79490
169.71367,0.78621
169.47260,0.78002
169.23153,0.77556
168.99046,0.77047
168.74939,0.76580
168.50832,0.76321
168.26725,0.76126
168.02618,0.75798
167.78511,0.75318
167.54404,0.74760
167.30297,0.74304
167.06190,0.74174
166.82083,0.74443
166.57975,0.74999
166.33868,0.75719
166.09761,0.76525
165.85654,0.77322
165.61547,0.78029
165.37440,0.78576
165.13333,0.78900
164.89226,0.79035
164.65119,0.79059
164.41012,0.79018
164.16905,0.79126
163.92798,0.79778
163.68691,0.81076
163.44584,0.82509
163.20477,0.83443
162.96370,0.83848
162.72263,0.84265
162.48156,0.85082
162.24048,0.86037
161.99941,0.86512
161.75834,0.86347
161.51727,0.86031
161.27620,0.86019
161.03513,0.86200
160.79406,0.86111
160.55299,0.85553
160.31192,0.84801
160.07085,0.84225
159.82978,0.83952
159.58871,0.83854
159.34764,0.83692
159.10657,0.83280
158.86550,0.82652
158.62443,0.82101
158.38336,0.81844
158.14229,0.81812
157.90121,0.81835
157.66014,0.81782
157.41907,0.81523
157.17800,0.80978
156.93693,0.80243
156.69586,0.79521
156.45479,0.78890
156.21372,0.78317
155.97265,0.77788
155.73158,0.77260
155.49051,0.76685
155.24944,0.76092
155.00837,0.75425
154.76730,0.74515
154.52623,0.73430
154.28516,0.72497
154.04409,0.71845
153.80302,0.71284
153.56194,0.70604
153.32087,0.69684
153.07980,0.68473
152.83873,0.67059
152.59766,0.65585
152.35659,0.64103
152.11552,0.62705
151.87445,0.61562
151.63338,0.60691
151.39231,0.59886
151.15124,0.58988
150.91017,0.57989
150.66910,0.56843
150.42803,0.55461
150.18696,0.53950
149.94589,0.52620
149.70482,0.51697
149.46375,0.51131
149.22267,0.50692
148.98160,0.50181
148.74053,0.49514
148.49946,0.48703
148.25839,0.47871
148.01732,0.47206
147.77625,0.46826
147.53518,0.46700
147.29411,0.46673
147.05304,0.46614
146.81197,0.46534
146.57090,0.46541
146.32983,0.46693
146.08876,0.46984
145.84769,0.47382
145.60662,0.47823
145.36555,0.48232
145.12448,0.48629
144.88340,0.49066
144.64233,0.49521
144.40126,0.49991
144.16019,0.50525
143.91912,0.50992
143.67805,0.51099
143.43698,0.50785
143.19591,0.50289
142.95484,0.49765
142.71377,0.49138
142.47270,0.48385
142.23163,0.47667
141.99056,0.47095
141.74949,0.46557
141.50842,0.45844
141.26735,0.44921
141.02628,0.43971
140.78521,0.43233
140.54413,0.42843
140.30306,0.42799
140.06199,0.43006
139.82092,0.43366
139.57985,0.43801
139.33878,0.44192
139.09771,0.44407
138.85664,0.44483
138.61557,0.44623
138.37450,0.44961
138.13343,0.45488
137.89236,0.46178
137.65129,0.47022
137.41022,0.48046
137.16915,0.49338
136.92808,0.50902
136.68701,0.52503
136.44594,0.53903
136.20486,0.55186
135.96379,0.56662
135.72272,0.58565
135.48165,0.60933
135.24058,0.63529
134.99951,0.65865
134.75844,0.67698
134.51737,0.69413
134.27630,0.71507
134.03523,0.73880
133.79416,0.76039
133.55309,0.77870
133.31202,0.79725
133.07095,0.81797
132.82988,0.83778
132.58881,0.85278
132.34774,0.86406
132.10667,0.87624
131.86559,0.89069
131.62452,0.90333
131.38345,0.91022
131.14238,0.91282
130.90131,0.91441
130.66024,0.91440
130.41917,0.90782
130.17810,0.89014
129.93703,0.86264
129.69596,0.83161
129.45489,0.80273
129.21382,0.77767
128.97275,0.75388
128.73168,0.72800
128.49061,0.69949
128.24954,0.67092
128.00847,0.64526
127.76740,0.62383
127.52632,0.60623
127.28525,0.59040
127.04418,0.57337
126.80311,0.55444
126.56204,0.53623
126.32097,0.52078
126.07990,0.50648
125.83883,0.49091
125.59776,0.47486
125.35669,0.46133
125.11562,0.45149
124.87455,0.44365
124.63348,0.43583
124.39241,0.42756
124.15134,0.41903
123.91027,0.41019
123.66920,0.40143
123.42812,0.39340
123.18705,0.38599
122.94598,0.37912
122.70491,0.37411
122.46384,0.37217
122.22277,0.37222
121.98170,0.37175
121.74063,0.36955
121.49956,0.36700
121.25849,0.36673
121.01742,0.37013
120.77635,0.37605
120.53528,0.38212
120.29421,0.38750
120.05314,0.39398
119.81207,0.40435
119.57100,0.41965
119.32993,0.43777
119.08885,0.45557
118.84778,0.47275
118.60671,0.49214
118.36564,0.51523
118.12457,0.53952
117.88350,0.56128
117.64243,0.57962
117.40136,0.59606
117.16029,0.61072
116.91922,0.62093
116.67815,0.62449
116.43708,0.62276
116.19601,0.61810
115.95494,0.61051
115.71387,0.60011
115.47280,0.59000
115.23173,0.58312
114.99066,0.57892
114.74958,0.57595
114.50851,0.57311
114.26744,0.56732
114.02637,0.55646
113.78530,0.54444
113.54423,0.53835
113.30316,0.54064
113.06209,0.54671
112.82102,0.55006
112.57995,0.54915
112.33888,0.54821
112.09781,0.55083
111.85674,0.55442
111.61567,0.55393
111.37460,0.54939
111.13353,0.54572
110.89246,0.54612
110.65139,0.54869
110.41031,0.54980
110.16924,0.54827
109.92817,0.54410
109.68710,0.53582
109.44603,0.52356
109.20496,0.51174
108.96389,0.50390
108.72282,0.49800
108.48175,0.48920
108.24068,0.47490
107.99961,0.45614
107.75854,0.43614
107.51747,0.41816
107.27640,0.40348
107.03533,0.39113
106.79426,0.37967
106.55319,0.36838
106.31212,0.35695
106.07104,0.34555
105.82997,0.33492
105.58890,0.32553
105.34783,0.31720
105.10676,0.31005
104.86569,0.30484
104.62462,0.30132
104.38355,0.29754
104.14248,0.29158
103.90141,0.28329
103.66034,0.27397
103.41927,0.26522
103.17820,0.25831
102.93713,0.25362
102.69606,0.25013
102.45499,0.24580
102.21392,0.23962
101.97285,0.23306
101.73177,0.22851
101.49070,0.22651
101.24963,0.22525
101.00856,0.22300
100.76749,0.22000
100.52642,0.21765
100.28535,0.21662
100.04428,0.21612
99.80321,0.21509
99.56214,0.21354
99.32107,0.21223
99.08000,0.21114
98.83893,0.20920
98.59786,0.20592
98.35679,0.20265
98.11572,0.20122
97.87465,0.20179
97.63358,0.20281
97.39250,0.20353
97.15143,0.20471
96.91036,0.20649
96.66929,0.20773
96.42822,0.20840
96.18715,0.21032
95.94608,0.21461
95.70501,0.21995
95.46394,0.22448
95.22287,0.22781
94.98180,0.23010
94.74073,0.23098
94.49966,0.23100
94.25859,0.23258
94.01752,0.23721
93.77645,0.24311
93.53538,0.24722
93.29431,0.24893
93.05323,0.24992
92.81216,0.25087
92.57109,0.25057
92.33002,0.24868
92.08895,0.24714
91.84788,0.24752
91.60681,0.24921
91.36574,0.25182
91.12467,0.25745
90.88360,0.26911
90.64253,0.28785
90.40146,0.31212
90.16039,0.33963
89.91932,0.36924
89.67825,0.40106
89.43718,0.43492
89.19611,0.46936
88.95504,0.50150
88.71396,0.52722
88.47289,0.54217
88.23182,0.54416
87.99075,0.53506
87.74968,0.51931
87.50861,0.49990
87.26754,0.47678
87.02647,0.44965
86.78540,0.42073
86.54433,0.39325
86.30326,0.36855
86.06219,0.34581
85.82112,0.32410
85.58005,0.30371
85.33898,0.28526
85.09791,0.26814
84.85684,0.25114
84.61577,0.23457
84.37469,0.22033
84.13362,0.20948
83.89255,0.20114
83.65148,0.19394
83.41041,0.18713
83.16934,0.18015
82.92827,0.17287
82.68720,0.16628
82.44613,0.16170
82.20506,0.15927
81.96399,0.15779
81.72292,0.15568
81.48185,0.15207
81.24078,0.14759
80.99971,0.14400
80.75864,0.14259
80.51757,0.14297
80.27650,0.14401
80.03542,0.14480
79.79435,0.14484
79.55328,0.14399
79.31221,0.14230
79.07114,0.13934
78.83007,0.13463
78.58900,0.12932
78.34793,0.12546
78.10686,0.12294
77.86579,0.11969
77.62472,0.11511
77.38365,0.11087
77.14258,0.10852
76.90151,0.10801
76.66044,0.10835
76.41937,0.10838
76.17830,0.10727
75.93723,0.10513
75.69615,0.10292
75.45508,0.10159
75.21401,0.10143
74.97294,0.10214
74.73187,0.10337
74.49080,0.10525
74.24973,0.10772
74.00866,0.10938
73.76759,0.10811
73.52652,0.10376
73.28545,0.09881
73.04438,0.09565
72.80331,0.09449
72.56224,0.09474
72.32117,0.09658
72.08010,0.10010
71.83903,0.10406
71.59796,0.10716
71.35688,0.10932
71.11581,0.11043
70.87474,0.10959
70.63367,0.10755
70.39260,0.10786
70.15153,0.11354
69.91046,0.12376
69.66939,0.13508
69.42832,0.14459
69.18725,0.15080
68.94618,0.15296
68.70511,0.15125
68.46404,0.14727
68.22297,0.14264
67.98190,0.13675
67.74083,0.12801
67.49976,0.11781
67.25869,0.11040
67.01761,0.10753
66.77654,0.10584
66.53547,0.10163
66.29440,0.09555
66.05333,0.09068
65.81226,0.08829
65.57119,0.08726
65.33012,0.08656
65.08905,0.08720
64.84798,0.09123
64.60691,0.09891
64.36584,0.10779
64.12477,0.11513
63.88370,0.12013
63.64263,0.12282
63.40156,0.12244
63.16049,0.11877
62.91942,0.11352
62.67834,0.10863
62.43727,0.10353
62.19620,0.09635
61.95513,0.08738
61.71406,0.07960
61.47299,0.07517
61.23192,0.07276
60.99085,0.06979
60.74978,0.06616
60.50871,0.06430
60.26764,0.06608
60.02657,0.07116
59.78550,0.07782
59.54443,0.08372
59.30336,0.08586
59.06229,0.08219
58.82122,0.07435
58.58015,0.06734
58.33907,0.06526
58.09800,0.06800
57.85693,0.07226
57.61586,0.07484
57.37479,0.07535
57.13372,0.07591
56.89265,0.07776
56.65158,0.07916
56.41051,0.07782
56.16944,0.07376
55.92837,0.06900
55.68730,0.06573
55.44623,0.06472
55.20516,0.06450
54.96409,0.06334
54.72302,0.06220
54.48195,0.06336
54.24088,0.06649
53.99980,0.06936
53.75873,0.07140
53.51766,0.07350
53.27659,0.07525
53.03552,0.07476
52.79445,0.07107
52.55338,0.06606
52.31231,0.06302
52.07124,0.06260
51.83017,0.06202
51.58910,0.05981
51.34803,0.05790
51.10696,0.05827
50.86589,0.05996
50.62482,0.06033
50.38375,0.05869
50.14268,0.05727
49.90161,0.05786
49.66053,0.05842
49.41946,0.05593
49.17839,0.05176
48.93732,0.05078
48.69625,0.05449
48.45518,0.05839
48.21411,0.05842
47.97304,0.05656
47.73197,0.05700
47.49090,0.05877
47.24983,0.05671
47.00876,0.04901
46.76769,0.03878
46.52662,0.02947
46.28555,0.02270
46.04448,0.01911
45.80341,0.01912
45.56234,0.02302
45.32126,0.02964
45.08019,0.03508
44.83912,0.03598
44.59805,0.03341
44.35698,0.02919
44.11591,0.02212
43.87484,0.01377
43.63377,0.01184
43.39270,0.01984
43.15163,0.02890
42.91056,0.02972
42.66949,0.02505
42.42842,0.02206
42.18735,0.02264
41.94628,0.02651
41.70521,0.03400
41.46414,0.04115
41.22307,0.04186
40.98199,0.03906
40.74092,0.04216
40.49985,0.05208
40.25878,0.05975
40.01771,0.05962
39.77664,0.05873
39.53557,0.06971
39.29450,0.09360
39.05343,0.11350
38.81236,0.11452
38.57129,0.10492
38.33022,0.10242
38.08915,0.10842
37.84808,0.11000
37.60701,0.10047
37.36594,0.08489
37.12487,0.07234
36.88380,0.06999
36.64272,0.07789
36.40165,0.08704
36.16058,0.08712
35.91951,0.07803
35.67844,0.06868
35.43737,0.06388
35.19630,0.05927
34.95523,0.05378
34.71416,0.05663
34.47309,0.07214
34.23202,0.09005
33.99095,0.09527
33.74988,0.08442
33.50881,0.06988
33.26774,0.06624
33.02667,0.08085
32.78560,0.11379
32.54453,0.15653
32.30345,0.19367
32.06238,0.20916
31.82131,0.19546
31.58024,0.16904
31.33917,0.16095
31.09810,0.17855
30.85703,0.19952
30.61596,0.20504
30.37489,0.19998
30.13382,0.19570
29.89275,0.19416
29.65168,0.19773
29.41061,0.21386
29.16954,0.23959
28.92847,0.26055
28.68740,0.27178
28.44633,0.27795
28.20526,0.27875
27.96418,0.27230
27.72311,0.26986
27.48204,0.27746
27.24097,0.27676
26.99990,0.25486
26.75883,0.23525
26.51776,0.24318
26.27669,0.26716
26.03562,0.28499
25.79455,0.29085
25.55348,0.28480
25.31241,0.26232
25.07134,0.22649
24.83027,0.18819
24.58920,0.16955
24.34813,0.19012
24.10706,0.23537
23.86599,0.27301
23.62491,0.28946
23.38384,0.30665
23.14277,0.35092
22.90170,0.39024
22.66063,0.37925
22.41956,0.34421
22.17849,0.34032
21.93742,0.39579
21.69635,0.46003
21.45528,0.48590
21.21421,0.49891
20.97314,0.52792
20.73207,0.58468
20.49100,0.67749
20.24993,0.77210
20.00886,0.75848
19.76779,0.66643
19.52672,0.58859
19.28564,0.57459
19.04457,0.61233
18.80350,0.62351
18.56243,0.60381
18.32136,0.63479
18.08029,0.71030
17.83922,0.82515
17.59815,1.04752
17.35708,1.35930
17.11601,1.48384
16.87494,1.46336
16.63387,1.04468
16.39280,0.87189
16.15173,0.90872
15.91066,1.08184
15.66959,1.27599
15.42852,1.25310
15.18745,1.03803
14.94637,0.89761
14.70530,0.96949
14.46423,1.16389
14.22316,1.19985
13.98209,1.11649
13.74102,1.09748
13.49995,1.10162
13.25888,1.04040
13.01781,0.87795
12.77674,0.73207
12.53567,0.68019
12.29460,0.66781
12.05353,0.64940
11.81246,0.63857
11.57139,0.65411
11.33032,0.69361
11.08925,0.81284
10.84818,1.02519
10.60710,1.01488
10.36603,0.95405
10.12496,0.90574
9.88389,0.84782
9.64282,0.77642
9.40175,0.69913
9.16068,0.75779
8.91961,0.83979
8.67854,0.69354
8.43747,0.62014
8.19640,0.73656
7.95533,0.89411
7.71426,0.84192
7.47319,0.68578
7.23212,0.62583
6.99105,0.69645
6.74998,0.66573
6.50891,0.46787
6.26783,0.42149
6.02676,0.51718
5.78569,0.70540
5.54462,0.77188
5.30355,0.55859
5.06248,0.47707
4.82141,0.53512
4.58034,0.61266
4.33927,0.68640
4.09820,0.74396
3.85713,0.70569
3.61606,0.65770
3.37499,0.71153
3.13392,0.76544
2.89285,0.91245
2.65178,1.32717
2.41071,0.87084
2.16964,0.59590
1.92856,0.57475
1.68749,0.58592
1.44642,0.69873
1.20535,0.78849
0.96428,0.71602
0.72321,0.62923
0.48214,0.53000
0.24107,0.48102
-0.00000,0.49162
