399.69498,1.53565
399.45391,1.54951
399.21284,1.56098
398.97177,1.56744
398.73070,1.56882
398.48963,1.56367
398.24856,1.55255
398.00749,1.54009
397.76642,1.53107
397.52535,1.52734
397.28428,1.52678
397.04321,1.52660
396.80214,1.52902
396.56107,1.54016
396.32000,1.55677
396.07892,1.56258
395.83785,1.55201
395.59678,1.54027
395.35571,1.53716
395.11464,1.53475
394.87357,1.52338
394.63250,1.50401
394.39143,1.48775
394.15036,1.48591
393.90929,1.49932
393.66822,1.51682
393.42715,1.52647
393.18608,1.52746
392.94501,1.52653
392.70394,1.52582
392.46287,1.51974
392.22180,1.50661
391.98073,1.49370
391.73965,1.49001
391.49858,1.49750
391.25751,1.50820
391.01644,1.51287
390.77537,1.51125
390.53430,1.50848
390.29323,1.50381
390.05216,1.49230
389.81109,1.47790
389.57002,1.47159
389.32895,1.47663
389.08788,1.48628
388.84681,1.49179
388.60574,1.48634
388.36467,1.47021
388.12360,1.45161
387.88253,1.43749
387.64146,1.42888
387.40038,1.42594
387.15931,1.43229
386.91824,1.45159
386.67717,1.47835
386.43610,1.49344
386.19503,1.47892
385.95396,1.43820
385.71289,1.39618
385.47182,1.37191
385.23075,1.36259
384.98968,1.35568
384.74861,1.34504
384.50754,1.33363
384.26647,1.32604
384.02540,1.32429
383.78433,1.32791
383.54326,1.33358
383.30219,1.33824
383.06111,1.34208
382.82004,1.34575
382.57897,1.34873
382.33790,1.34995
382.09683,1.34422
381.85576,1.32418
381.61469,1.29500
381.37362,1.27132
381.13255,1.25865
380.89148,1.25244
380.65041,1.25091
380.40934,1.25591
380.16827,1.26578
379.92720,1.27745
379.68613,1.28712
379.44506,1.28955
379.20399,1.28234
378.96292,1.27013
378.72184,1.26168
378.48077,1.26211
378.23970,1.27356
377.99863,1.29622
377.75756,1.32033
377.51649,1.33027
377.27542,1.32469
377.03435,1.31937
376.79328,1.32743
376.55221,1.34895
376.31114,1.37635
376.07007,1.39910
375.82900,1.40643
375.58793,1.39596
375.34686,1.37946
375.10579,1.37171
374.86472,1.37675
374.62365,1.38831
374.38257,1.39755
374.14150,1.40111
373.90043,1.40245
373.65936,1.40794
373.41829,1.42094
373.17722,1.43449
372.93615,1.43567
372.69508,1.42270
372.45401,1.40873
372.21294,1.40569
371.97187,1.41203
371.73080,1.41601
371.48973,1.40966
371.24866,1.39762
371.00759,1.38859
370.76652,1.38302
370.52545,1.37510
370.28437,1.36330
370.04330,1.35269
369.80223,1.34839
369.56116,1.35196
369.32009,1.36141
369.07902,1.37060
368.83795,1.37095
368.59688,1.35976
368.35581,1.34558
368.11474,1.34002
367.87367,1.34820
367.63260,1.36586
367.39153,1.38115
367.15046,1.38294
366.90939,1.37188
366.66832,1.35970
366.42725,1.35614
366.18618,1.36054
365.94510,1.36374
365.70403,1.35637
365.46296,1.33894
365.22189,1.32301
364.98082,1.31804
364.73975,1.32136
364.49868,1.32316
364.25761,1.31922
364.01654,1.31389
363.77547,1.31063
363.53440,1.30788
363.29333,1.30315
363.05226,1.29588
362.81119,1.28802
362.57012,1.28342
362.32905,1.28605
362.08798,1.29640
361.84691,1.30780
361.60583,1.31088
361.36476,1.30318
361.12369,1.29281
360.88262,1.28981
360.64155,1.29413
360.40048,1.29709
360.15941,1.29371
359.91834,1.28776
359.67727,1.28493
359.43620,1.28730
359.19513,1.29333
358.95406,1.29782
358.71299,1.29410
358.47192,1.28214
358.23085,1.27075
357.98978,1.26831
357.74871,1.27597
357.50764,1.28737
357.26656,1.29384
357.02549,1.29156
356.78442,1.28312
356.54335,1.27376
356.30228,1.26696
356.06121,1.26191
355.82014,1.25537
355.57907,1.24743
355.33800,1.24311
355.09693,1.24638
354.85586,1.25647
354.61479,1.26833
354.37372,1.27561
354.13265,1.27623
353.89158,1.27325
353.65051,1.26987
353.40944,1.26763
353.16837,1.26810
352.92729,1.27058
352.68622,1.26960
352.44515,1.26129
352.20408,1.25028
351.96301,1.24480
351.72194,1.24736
351.48087,1.25352
351.23980,1.25708
350.99873,1.25449
350.75766,1.24779
350.51659,1.24394
350.27552,1.24866
350.03445,1.25978
349.79338,1.26753
349.55231,1.26447
349.31124,1.25461
349.07017,1.24836
348.82910,1.25121
348.58802,1.26030
348.34695,1.26863
348.10588,1.27053
347.86481,1.26501
347.62374,1.25727
347.38267,1.25547
347.14160,1.26194
346.90053,1.27076
346.65946,1.27411
346.41839,1.26856
346.17732,1.25879
345.93625,1.25433
345.69518,1.26077
345.45411,1.27385
345.21304,1.28378
344.97197,1.28798
344.73090,1.29391
344.48983,1.30675
344.24875,1.32096
344.00768,1.32778
343.76661,1.32747
343.52554,1.32704
343.28447,1.32955
343.04340,1.33284
342.80233,1.33475
342.56126,1.33474
342.32019,1.33361
342.07912,1.33350
341.83805,1.33513
341.59698,1.33555
341.35591,1.33345
341.11484,1.33409
340.87377,1.34244
340.63270,1.35407
340.39163,1.35932
340.15056,1.35562
339.90948,1.34846
339.66841,1.34222
339.42734,1.33803
339.18627,1.33825
338.94520,1.34554
338.70413,1.35780
338.46306,1.37049
338.22199,1.38265
337.98092,1.39407
337.73985,1.40007
337.49878,1.39802
337.25771,1.39400
337.01664,1.39218
336.77557,1.38708
336.53450,1.37642
336.29343,1.36860
336.05236,1.36933
335.81129,1.37269
335.57021,1.37223
335.32914,1.37347
335.08807,1.38562
334.84700,1.40438
334.60593,1.41294
334.36486,1.40408
334.12379,1.39033
333.88272,1.38361
333.64165,1.38129
333.40058,1.37730
333.15951,1.37085
332.91844,1.36241
332.67737,1.35276
332.43630,1.34421
332.19523,1.33944
331.95416,1.33939
331.71309,1.34136
331.47202,1.34174
331.23094,1.33982
330.98987,1.33459
330.74880,1.32463
330.50773,1.31247
330.26666,1.30297
330.02559,1.29789
329.78452,1.29752
329.54345,1.30325
329.30238,1.31121
329.06131,1.31205
328.82024,1.30250
328.57917,1.28916
328.33810,1.27889
328.09703,1.27334
327.85596,1.27299
327.61489,1.28028
327.37382,1.29517
327.13275,1.31160
326.89167,1.32198
326.65060,1.32270
326.40953,1.31493
326.16846,1.30156
325.92739,1.28538
325.68632,1.27158
325.44525,1.26757
325.20418,1.27638
324.96311,1.29198
324.72204,1.30460
324.48097,1.30978
324.23990,1.30892
323.99883,1.30355
323.75776,1.29511
323.51669,1.28456
323.27562,1.27095
323.03455,1.25567
322.79348,1.24564
322.55240,1.24776
322.31133,1.26137
322.07026,1.27701
321.82919,1.28401
321.58812,1.28249
321.34705,1.28145
321.10598,1.28679
320.86491,1.29661
320.62384,1.30367
320.38277,1.30371
320.14170,1.30030
319.90063,1.29958
319.65956,1.30276
319.41849,1.30789
319.17742,1.31470
318.93635,1.32175
318.69528,1.32340
318.45421,1.31614
318.21313,1.30529
317.97206,1.29890
317.73099,1.29913
317.48992,1.29858
317.24885,1.28979
317.00778,1.27960
316.76671,1.28204
316.52564,1.29863
316.28457,1.31418
316.04350,1.31887
315.80243,1.31975
315.56136,1.32291
315.32029,1.32674
315.07922,1.33206
314.83815,1.33952
314.59708,1.34205
314.35601,1.33557
314.11494,1.32762
313.87386,1.32675
313.63279,1.33172
313.39172,1.33800
313.15065,1.34468
312.90958,1.34910
312.66851,1.34749
312.42744,1.33903
312.18637,1.32567
311.94530,1.31295
311.70423,1.30805
311.46316,1.31257
311.22209,1.31993
310.98102,1.32481
310.73995,1.33135
310.49888,1.34685
310.25781,1.36812
310.01674,1.38071
309.77567,1.37867
309.53459,1.37459
309.29352,1.37990
309.05245,1.39042
308.81138,1.39546
308.57031,1.39057
308.32924,1.37709
308.08817,1.35837
307.84710,1.34237
307.60603,1.33960
307.36496,1.35404
307.12389,1.37830
306.88282,1.40026
306.64175,1.41434
306.40068,1.42111
306.15961,1.41974
305.91854,1.41085
305.67747,1.40028
305.43640,1.39179
305.19532,1.38273
304.95425,1.37269
304.71318,1.36783
304.47211,1.37143
304.23104,1.37829
303.98997,1.38224
303.74890,1.38087
303.50783,1.37119
303.26676,1.35165
303.02569,1.33029
302.78462,1.31892
302.54355,1.31992
302.30248,1.32642
302.06141,1.33234
301.82034,1.33595
301.57927,1.33553
301.33820,1.33037
301.09713,1.32520
300.85605,1.32646
300.61498,1.33376
300.37391,1.33719
300.13284,1.32824
299.89177,1.31013
299.65070,1.29290
299.40963,1.28312
299.16856,1.28011
298.92749,1.27826
298.68642,1.27260
298.44535,1.26341
298.20428,1.25540
297.96321,1.25307
297.72214,1.25718
297.48107,1.26505
297.24000,1.27252
296.99893,1.27515
296.75786,1.27091
296.51678,1.26164
296.27571,1.25027
296.03464,1.23783
295.79357,1.22404
295.55250,1.20937
295.31143,1.19661
295.07036,1.19095
294.82929,1.19610
294.58822,1.20843
294.34715,1.21751
294.10608,1.21605
293.86501,1.20707
293.62394,1.19825
293.38287,1.19371
293.14180,1.19319
292.90073,1.19455
292.65966,1.19515
292.41859,1.19285
292.17751,1.18764
291.93644,1.18162
291.69537,1.17663
291.45430,1.17334
291.21323,1.17117
290.97216,1.16839
290.73109,1.16405
290.49002,1.16035
290.24895,1.16011
290.00788,1.16260
289.76681,1.16527
289.52574,1.16740
289.28467,1.16920
289.04360,1.16964
288.80253,1.16776
288.56146,1.16427
288.32039,1.16010
288.07932,1.15612
287.83824,1.15379
287.59717,1.15349
287.35610,1.15382
287.11503,1.15398
286.87396,1.15543
286.63289,1.15859
286.39182,1.15970
286.15075,1.15515
285.90968,1.14717
285.66861,1.14024
285.42754,1.13507
285.18647,1.13076
284.94540,1.12908
284.70433,1.13180
284.46326,1.13598
284.22219,1.13624
283.98112,1.13150
283.74005,1.12615
283.49897,1.12432
283.25790,1.12561
283.01683,1.12712
282.77576,1.12746
282.53469,1.12736
282.29362,1.12869
282.05255,1.13366
281.81148,1.14202
281.57041,1.14877
281.32934,1.14821
281.08827,1.14098
280.84720,1.13333
280.60613,1.12914
280.36506,1.12735
280.12399,1.12643
279.88292,1.12723
279.64185,1.13087
279.40078,1.13607
279.15970,1.13947
278.91863,1.13893
278.67756,1.13562
278.43649,1.13200
278.19542,1.12878
277.95435,1.12575
277.71328,1.12409
277.47221,1.12567
277.23114,1.13029
276.99007,1.13488
276.74900,1.13705
276.50793,1.13719
276.26686,1.13593
276.02579,1.13318
275.78472,1.12989
275.54365,1.12831
275.30258,1.13009
275.06151,1.13473
274.82043,1.14017
274.57936,1.14440
274.33829,1.14675
274.09722,1.14781
273.85615,1.14866
273.61508,1.14995
273.37401,1.15108
273.13294,1.15121
272.89187,1.15090
272.65080,1.15093
272.40973,1.15076
272.16866,1.15021
271.92759,1.15112
271.68652,1.15548
271.44545,1.16264
271.20438,1.16946
270.96331,1.17297
270.72224,1.17321
270.48116,1.17342
270.24009,1.17681
269.99902,1.18283
269.75795,1.18748
269.51688,1.18810
269.27581,1.18645
269.03474,1.18642
268.79367,1.19006
268.55260,1.19624
268.31153,1.20292
268.07046,1.20936
267.82939,1.21580
267.58832,1.22197
267.34725,1.22677
267.10618,1.22987
266.86511,1.23252
266.62404,1.23622
266.38297,1.24217
266.14189,1.25073
265.90082,1.26028
265.65975,1.26775
265.41868,1.27230
265.17761,1.27721
264.93654,1.28589
264.69547,1.29813
264.45440,1.31205
264.21333,1.32678
263.97226,1.34165
263.73119,1.35597
263.49012,1.37018
263.24905,1.38435
263.00798,1.39592
262.76691,1.40199
262.52584,1.40447
262.28477,1.41015
262.04370,1.42335
261.80262,1.44215
261.56155,1.46302
261.32048,1.48389
261.07941,1.50332
260.83834,1.52056
260.59727,1.53909
260.35620,1.56420
260.11513,1.59534
259.87406,1.62672
259.63299,1.65333
259.39192,1.67347
259.15085,1.68610
258.90978,1.69455
258.66871,1.70951
258.42764,1.74061
258.18657,1.78494
257.94550,1.82690
257.70443,1.85548
257.46335,1.87157
257.22228,1.87455
256.98121,1.85816
256.74014,1.82445
256.49907,1.78528
256.25800,1.75218
256.01693,1.73278
255.77586,1.73039
255.53479,1.73743
255.29372,1.73875
255.05265,1.72964
254.81158,1.71722
254.57051,1.70266
254.32944,1.67914
254.08837,1.64583
253.84730,1.61495
253.60623,1.59936
253.36516,1.59912
253.12408,1.60596
252.88301,1.61390
252.64194,1.62092
252.40087,1.62689
252.15980,1.63376
251.91873,1.64119
251.67766,1.64167
251.43659,1.62929
251.19552,1.61130
250.95445,1.59836
250.71338,1.58865
250.47231,1.57135
250.23124,1.54471
249.99017,1.52323
249.74910,1.51911
249.50803,1.52690
249.26696,1.53464
249.02589,1.53860
248.78481,1.54088
248.54374,1.54335
248.30267,1.54747
248.06160,1.55327
247.82053,1.55843
247.57946,1.56221
247.33839,1.56610
247.09732,1.56940
246.85625,1.57153
246.61518,1.57670
246.37411,1.58871
246.13304,1.60444
245.89197,1.61825
245.65090,1.62942
245.40983,1.64010
245.16876,1.64853
244.92769,1.65078
244.68661,1.64906
244.44554,1.65284
244.20447,1.66995
243.96340,1.70021
243.72233,1.73685
243.48126,1.77411
243.24019,1.81192
242.99912,1.84935
242.75805,1.88289
242.51698,1.91143
242.27591,1.91450
242.03484,1.85256
241.79377,1.76280
241.55270,1.67463
241.31163,1.59159
241.07056,1.51624
240.82949,1.45361
240.58842,1.40480
240.34734,1.36669
240.10627,1.33527
239.86520,1.30568
239.62413,1.27274
239.38306,1.23686
239.14199,1.20524
238.90092,1.18266
238.65985,1.16497
238.41878,1.14578
238.17771,1.12510
237.93664,1.10626
237.69557,1.08917
237.45450,1.07157
237.21343,1.05401
236.97236,1.03971
236.73129,1.03010
236.49022,1.02167
236.24915,1.00875
236.00807,0.99071
235.76700,0.97332
235.52593,0.96172
235.28486,0.95567
235.04379,0.95167
234.80272,0.94719
234.56165,0.94218
234.32058,0.93739
234.07951,0.93285
233.83844,0.92864
233.59737,0.92542
233.35630,0.92292
233.11523,0.91917
232.87416,0.91297
232.63309,0.90587
232.39202,0.90063
232.15095,0.89809
231.90988,0.89610
231.66880,0.89199
231.42773,0.88664
231.18666,0.88319
230.94559,0.88135
230.70452,0.87739
230.46345,0.87079
230.22238,0.86508
229.98131,0.86143
229.74024,0.85772
229.49917,0.85382
229.25810,0.85223
229.01703,0.85300
228.77596,0.85302
228.53489,0.85155
228.29382,0.85124
228.05275,0.85231
227.81168,0.85134
227.57061,0.84767
227.32953,0.84494
227.08846,0.84462
226.84739,0.84371
226.60632,0.83987
226.36525,0.83421
226.12418,0.82886
225.88311,0.82531
225.64204,0.82469
225.40097,0.82728
225.15990,0.83159
224.91883,0.83540
224.67776,0.83773
224.43669,0.83911
224.19562,0.84021
223.95455,0.84111
223.71348,0.84145
223.47241,0.84096
223.23134,0.83978
222.99026,0.83827
222.74919,0.83725
222.50812,0.83902
222.26705,0.84633
222.02598,0.85870
221.78491,0.87160
221.54384,0.87999
221.30277,0.88196
221.06170,0.87943
220.82063,0.87749
220.57956,0.88115
220.33849,0.89096
220.09742,0.90290
219.85635,0.91332
219.61528,0.92190
219.37421,0.93002
219.13314,0.93899
218.89207,0.94961
218.65099,0.96152
218.40992,0.97296
218.16885,0.98225
217.92778,0.98993
217.68671,0.99908
217.44564,1.01260
217.20457,1.02974
216.96350,1.04607
216.72243,1.05765
216.48136,1.06475
216.24029,1.07087
215.99922,1.07889
215.75815,1.08935
215.51708,1.10264
215.27601,1.11978
215.03494,1.13913
214.79387,1.15568
214.55280,1.16659
214.31172,1.17387
214.07065,1.18069
213.82958,1.18848
213.58851,1.19700
213.34744,1.20523
213.10637,1.21301
212.86530,1.22178
212.62423,1.23262
212.38316,1.24453
212.14209,1.25458
211.90102,1.25907
211.65995,1.25699
211.41888,1.25268
211.17781,1.25128
210.93674,1.25301
210.69567,1.25616
210.45460,1.26086
210.21353,1.26617
209.97245,1.26781
209.73138,1.26297
209.49031,1.25435
209.24924,1.24622
209.00817,1.24033
208.76710,1.23807
208.52603,1.24135
208.28496,1.24817
208.04389,1.25182
207.80282,1.24688
207.56175,1.23259
207.32068,1.21221
207.07961,1.19256
206.83854,1.17978
206.59747,1.17373
206.35640,1.16939
206.11533,1.16281
205.87426,1.15308
205.63318,1.14086
205.39211,1.12722
205.15104,1.11229
204.90997,1.09616
204.66890,1.08121
204.42783,1.06995
204.18676,1.06157
203.94569,1.05292
203.70462,1.04205
203.46355,1.02993
203.22248,1.01911
202.98141,1.01029
202.74034,1.00051
202.49927,0.98564
202.25820,0.96555
202.01713,0.94462
201.77606,0.92705
201.53499,0.91435
201.29391,0.90577
201.05284,0.89854
200.81177,0.88855
200.57070,0.87304
200.32963,0.85392
200.08856,0.83705
199.84749,0.82690
199.60642,0.82237
199.36535,0.81837
199.12428,0.81032
198.88321,0.79750
198.64214,0.78363
198.40107,0.77334
198.16000,0.76757
197.91893,0.76315
197.67786,0.75676
197.43679,0.74797
197.19572,0.73847
196.95464,0.73010
196.71357,0.72332
196.47250,0.71699
196.23143,0.70988
195.99036,0.70198
195.74929,0.69405
195.50822,0.68619
195.26715,0.67786
195.02608,0.66876
194.78501,0.65949
194.54394,0.65139
194.30287,0.64591
194.06180,0.64374
193.82073,0.64389
193.57966,0.64351
193.33859,0.63991
193.09752,0.63327
192.85645,0.62629
192.61537,0.62109
192.37430,0.61738
192.13323,0.61368
191.89216,0.60928
191.65109,0.60490
191.41002,0.60156
191.16895,0.59912
190.92788,0.59600
190.68681,0.59099
190.44574,0.58549
190.20467,0.58260
189.96360,0.58313
189.72253,0.58377
189.48146,0.58106
189.24039,0.57612
188.99932,0.57274
188.75825,0.57196
188.51718,0.57098
188.27610,0.56756
188.03503,0.56350
187.79396,0.56203
187.55289,0.56320
187.31182,0.56383
187.07075,0.56202
186.82968,0.55964
186.58861,0.55944
186.34754,0.56148
186.10647,0.56317
185.86540,0.56278
185.62433,0.56145
185.38326,0.56095
185.14219,0.56113
184.90112,0.56087
184.66005,0.56036
184.41898,0.56071
184.17791,0.56216
183.93683,0.56421
183.69576,0.56671
183.45469,0.56933
183.21362,0.57076
182.97255,0.57023
182.73148,0.56884
182.49041,0.56780
182.24934,0.56674
182.00827,0.56589
181.76720,0.56734
181.52613,0.57137
181.28506,0.57470
181.04399,0.57504
180.80292,0.57436
180.56185,0.57510
180.32078,0.57725
180.07971,0.58052
179.83864,0.58522
179.59756,0.59035
179.35649,0.59429
179.11542,0.59754
178.87435,0.60202
178.63328,0.60852
178.39221,0.61654
178.15114,0.62583
177.91007,0.63680
177.66900,0.64947
177.42793,0.66249
177.18686,0.67408
176.94579,0.68440
176.70472,0.69548
176.46365,0.70848
176.22258,0.72311
175.98151,0.73928
175.74044,0.75636
175.49937,0.77217
175.25829,0.78609
175.01722,0.80137
174.77615,0.82120
174.53508,0.84405
174.29401,0.86561
174.05294,0.88398
173.81187,0.90062
173.57080,0.91651
173.32973,0.93007
173.08866,0.93965
172.84759,0.94614
172.60652,0.95116
172.36545,0.95460
172.12438,0.95535
171.88331,0.95378
171.64224,0.95242
171.40117,0.95361
171.16010,0.95637
170.91902,0.95743
170.67795,0.95596
170.43688,0.95433
170.19581,0.95313
169.95474,0.94972
169.71367,0.94299
169.47260,0.93564
169.23153,0.93040
168.99046,0.92622
168.74939,0.91968
168.50832,0.90999
168.26725,0.90134
168.02618,0.89871
167.78511,0.90208
167.54404,0.90654
167.30297,0.90781
167.06190,0.90597
166.82083,0.90357
166.57975,0.90235
166.33868,0.90294
166.09761,0.90604
165.85654,0.91209
165.61547,0.91983
165.37440,0.92660
165.13333,0.93157
164.89226,0.93695
164.65119,0.94408
164.41012,0.95118
164.16905,0.95677
163.92798,0.96254
163.68691,0.97077
163.44584,0.98154
163.20477,0.99319
162.96370,1.00325
162.72263,1.00963
162.48156,1.01259
162.24048,1.01442
161.99941,1.01664
161.75834,1.01945
161.51727,1.02298
161.27620,1.02641
161.03513,1.02688
160.79406,1.02217
160.55299,1.01426
160.31192,1.00792
160.07085,1.00581
159.82978,1.00625
159.58871,1.00613
159.34764,1.00377
159.10657,0.99857
158.86550,0.99042
158.62443,0.98092
158.38336,0.97332
158.14229,0.97051
157.90121,0.97350
157.66014,0.98002
157.41907,0.98431
157.17800,0.98145
156.93693,0.97214
156.69586,0.96042
156.45479,0.94908
156.21372,0.93925
155.97265,0.93178
155.73158,0.92694
155.49051,0.92364
155.24944,0.91953
155.00837,0.91199
154.76730,0.89973
154.52623,0.88431
154.28516,0.86963
154.04409,0.85828
153.80302,0.84878
153.56194,0.83740
153.32087,0.82202
153.07980,0.80326
152.83873,0.78312
152.59766,0.76409
152.35659,0.74832
152.11552,0.73581
151.87445,0.72393
151.63338,0.70941
151.39231,0.69184
151.15124,0.67514
150.91017,0.66367
150.66910,0.65715
150.42803,0.65089
150.18696,0.64076
149.94589,0.62655
149.70482,0.61119
149.46375,0.59822
149.22267,0.58941
148.98160,0.58345
148.74053,0.57743
148.49946,0.56981
148.25839,0.56140
148.01732,0.55402
147.77625,0.54908
147.53518,0.54696
147.29411,0.54674
147.05304,0.54692
146.81197,0.54727
146.57090,0.54892
146.32983,0.55207
146.08876,0.55519
145.84769,0.55740
145.60662,0.55984
145.36555,0.56364
145.12448,0.56832
144.88340,0.57297
144.64233,0.57731
144.40126,0.58135
144.16019,0.58498
143.91912,0.58802
143.67805,0.58969
143.43698,0.58848
143.19591,0.58365
142.95484,0.57655
142.71377,0.56950
142.47270,0.56345
142.23163,0.55703
141.99056,0.54836
141.74949,0.53753
141.50842,0.52690
141.26735,0.51878
141.02628,0.51324
140.78521,0.50874
140.54413,0.50471
140.30306,0.50213
140.06199,0.50165
139.82092,0.50259
139.57985,0.50414
139.33878,0.50653
139.09771,0.51016
138.85664,0.51452
138.61557,0.51880
138.37450,0.52354
138.13343,0.53050
137.89236,0.54051
137.65129,0.55251
137.41022,0.56538
137.16915,0.57946
136.92808,0.59521
136.68701,0.61192
136.44594,0.62908
136.20486,0.64746
135.96379,0.66785
135.72272,0.69014
135.48165,0.71405
135.24058,0.73905
134.99951,0.76418
134.75844,0.78992
134.51737,0.81869
134.27630,0.85116
134.03523,0.88488
133.79416,0.91829
133.55309,0.95266
133.31202,0.98851
133.07095,1.02277
132.82988,1.05048
132.58881,1.07012
132.34774,1.08755
132.10667,1.10960
131.86559,1.13411
131.62452,1.15321
131.38345,1.16367
131.14238,1.16521
130.90131,1.15496
130.66024,1.13426
130.41917,1.11082
130.17810,1.08761
129.93703,1.05963
129.69596,1.02471
129.45489,0.98867
129.21382,0.95781
128.97275,0.93174
128.73168,0.90534
128.49061,0.87523
128.24954,0.84206
128.00847,0.80822
127.76740,0.77653
127.52632,0.74931
127.28525,0.72620
127.04418,0.70438
126.80311,0.68164
126.56204,0.65824
126.32097,0.63590
126.07990,0.61617
125.83883,0.59920
125.59776,0.58368
125.35669,0.56859
125.11562,0.55413
124.87455,0.54053
124.63348,0.52704
124.39241,0.51278
124.15134,0.49812
123.91027,0.48470
123.66920,0.47429
123.42812,0.46726
123.18705,0.46214
122.94598,0.45721
122.70491,0.45234
122.46384,0.44885
122.22277,0.44746
121.98170,0.44727
121.74063,0.44713
121.49956,0.44731
121.25849,0.44916
121.01742,0.45337
120.77635,0.45954
120.53528,0.46690
120.29421,0.47507
120.05314,0.48409
119.81207,0.49452
119.57100,0.50741
119.32993,0.52416
119.08885,0.54566
118.84778,0.57141
118.60671,0.59989
118.36564,0.62983
118.12457,0.66011
117.88350,0.68922
117.64243,0.71670
117.40136,0.74340
117.16029,0.76836
116.91922,0.78752
116.67815,0.79806
116.43708,0.80157
116.19601,0.80058
115.95494,0.79484
115.71387,0.78342
115.47280,0.76788
115.23173,0.75078
114.99066,0.73321
114.74958,0.71627
114.50851,0.70326
114.26744,0.69707
114.02637,0.69602
113.78530,0.69487
113.54423,0.69018
113.30316,0.68271
113.06209,0.67476
112.82102,0.66750
112.57995,0.66127
112.33888,0.65676
112.09781,0.65547
111.85674,0.65925
111.61567,0.66887
111.37460,0.68223
111.13353,0.69507
110.89246,0.70468
110.65139,0.71132
110.41031,0.71500
110.16924,0.71334
109.92817,0.70419
109.68710,0.68876
109.44603,0.67064
109.20496,0.65271
108.96389,0.63603
108.72282,0.62043
108.48175,0.60526
108.24068,0.58993
107.99961,0.57379
107.75854,0.55605
107.51747,0.53664
107.27640,0.51682
107.03533,0.49844
106.79426,0.48274
106.55319,0.47009
106.31212,0.45999
106.07104,0.45155
105.82997,0.44410
105.58890,0.43673
105.34783,0.42731
105.10676,0.41415
104.86569,0.39856
104.62462,0.38434
104.38355,0.37475
104.14248,0.37014
103.90141,0.36759
103.66034,0.36278
103.41927,0.35325
103.17820,0.34027
102.93713,0.32709
102.69606,0.31637
102.45499,0.30941
102.21392,0.30625
101.97285,0.30507
101.73177,0.30258
101.49070,0.29681
101.24963,0.28896
101.00856,0.28195
100.76749,0.27771
100.52642,0.27597
100.28535,0.27457
100.04428,0.27136
99.80321,0.26644
99.56214,0.26219
99.32107,0.26083
99.08000,0.26185
98.83893,0.26195
98.59786,0.25860
98.35679,0.25322
98.11572,0.24930
97.87465,0.24883
97.63358,0.25147
97.39250,0.25526
97.15143,0.25753
96.91036,0.25719
96.66929,0.25679
96.42822,0.26013
96.18715,0.26763
95.94608,0.27543
95.70501,0.28039
95.46394,0.28467
95.22287,0.29227
94.98180,0.30243
94.74073,0.30923
94.49966,0.30902
94.25859,0.30628
94.01752,0.30814
93.77645,0.31505
93.53538,0.31962
93.29431,0.31655
93.05323,0.31120
92.81216,0.31164
92.57109,0.31645
92.33002,0.31738
92.08895,0.31322
91.84788,0.31136
91.60681,0.31538
91.36574,0.32225
91.12467,0.33096
90.88360,0.34494
90.64253,0.36474
90.40146,0.38754
90.16039,0.41458
89.91932,0.44992
89.67825,0.49185
89.43718,0.53517
89.19611,0.57903
88.95504,0.62270
88.71396,0.65951
88.47289,0.68392
88.23182,0.69490
87.99075,0.69041
87.74968,0.67019
87.50861,0.63969
87.26754,0.60529
87.02647,0.57052
86.78540,0.53618
86.54433,0.50133
86.30326,0.46677
86.06219,0.43616
85.82112,0.41146
85.58005,0.39040
85.33898,0.36980
85.09791,0.34842
84.85684,0.32649
84.61577,0.30570
84.37469,0.28867
84.13362,0.27627
83.89255,0.26643
83.65148,0.25664
83.41041,0.24657
83.16934,0.23751
82.92827,0.23012
82.68720,0.22399
82.44613,0.21874
82.20506,0.21435
81.96399,0.21023
81.72292,0.20579
81.48185,0.20148
81.24078,0.19810
80.99971,0.19543
80.75864,0.19276
80.51757,0.19011
80.27650,0.18809
80.03542,0.18685
79.79435,0.18600
79.55328,0.18540
79.31221,0.18520
79.07114,0.18490
78.83007,0.18345
78.58900,0.18065
78.34793,0.17743
78.10686,0.17426
77.86579,0.17058
77.62472,0.16603
77.38365,0.16082
77.14258,0.15547
76.90151,0.15118
76.66044,0.14946
76.41937,0.15050
76.17830,0.15253
75.93723,0.15344
75.69615,0.15242
75.45508,0.15004
75.21401,0.14751
74.97294,0.14596
74.73187,0.14597
74.49080,0.14760
74.24973,0.15038
74.00866,0.15333
73.76759,0.15545
73.52652,0.15629
73.28545,0.15597
73.04438,0.15444
72.80331,0.15180
72.56224,0.14927
72.32117,0.14871
72.08010,0.15034
71.83903,0.15209
71.59796,0.15187
71.35688,0.14994
71.11581,0.14808
70.87474,0.14744
70.63367,0.14835
70.39260,0.15192
70.15153,0.16018
69.91046,0.17439
69.66939,0.19337
69.42832,0.21348
69.18725,0.22970
68.94618,0.23718
68.70511,0.23343
68.46404,0.22024
68.22297,0.20256
67.98190,0.18506
67.74083,0.17012
67.49976,0.15863
67.25869,0.15130
67.01761,0.14829
66.77654,0.14787
66.53547,0.14697
66.29440,0.14392
66.05333,0.14033
65.81226,0.13941
65.57119,0.14239
65.33012,0.14769
65.08905,0.15364
64.84798,0.16076
64.60691,0.17049
64.36584,0.18226
64.12477,0.19248
63.88370,0.19697
63.64263,0.19422
63.40156,0.18575
63.16049,0.17437
62.91942,0.16280
62.67834,0.15265
62.43727,0.14374
62.19620,0.13504
61.95513,0.12643
61.71406,0.11864
61.47299,0.11223
61.23192,0.10728
60.99085,0.10390
60.74978,0.10270
60.50871,0.10519
60.26764,0.11260
60.02657,0.12363
59.78550,0.13456
59.54443,0.14297
59.30336,0.14969
59.06229,0.15529
58.82122,0.15683
58.58015,0.15089
58.33907,0.13894
58.09800,0.12653
57.85693,0.11770
57.61586,0.11298
57.37479,0.11167
57.13372,0.11344
56.89265,0.11813
56.65158,0.12524
56.41051,0.13385
56.16944,0.14254
55.92837,0.14937
55.68730,0.15143
55.44623,0.14588
55.20516,0.13334
54.96409,0.11914
54.72302,0.10950
54.48195,0.10675
54.24088,0.10921
53.99980,0.11558
53.75873,0.12747
53.51766,0.14540
53.27659,0.16241
53.03552,0.16637
52.79445,0.15238
52.55338,0.12810
52.31231,0.10692
52.07124,0.10046
51.83017,0.11385
51.58910,0.14195
51.34803,0.16470
51.10696,0.15792
50.86589,0.12702
50.62482,0.09822
50.38375,0.08768
50.14268,0.10010
49.90161,0.13125
49.66053,0.16078
49.41946,0.16046
49.17839,0.13515
48.93732,0.11586
48.69625,0.12004
48.45518,0.14366
48.21411,0.16060
47.97304,0.14709
47.73197,0.12495
47.49090,0.12498
47.24983,0.14808
47.00876,0.15945
46.76769,0.13040
46.52662,0.09837
46.28555,0.09782
46.04448,0.11584
45.80341,0.11482
45.56234,0.09583
45.32126,0.09321
45.08019,0.11176
44.83912,0.12543
44.59805,0.12391
44.35698,0.11925
44.11591,0.11374
43.87484,0.10654
43.63377,0.10464
43.39270,0.10900
43.15163,0.11281
42.91056,0.11536
42.66949,0.11897
42.42842,0.12024
42.18735,0.11613
41.94628,0.10889
41.70521,0.10457
41.46414,0.10877
41.22307,0.11974
40.98199,0.13087
40.74092,0.14121
40.49985,0.15314
40.25878,0.16215
40.01771,0.16298
39.77664,0.16153
39.53557,0.16673
39.29450,0.17765
39.05343,0.18673
38.81236,0.19036
38.57129,0.19275
38.33022,0.19934
38.08915,0.20978
37.84808,0.22020
37.60701,0.22698
37.36594,0.22610
37.12487,0.21742
36.88380,0.20839
36.64272,0.20508
36.40165,0.20543
36.16058,0.20540
35.91951,0.20645
35.67844,0.21185
35.43737,0.21783
35.19630,0.21565
34.95523,0.20422
34.71416,0.19172
34.47309,0.18406
34.23202,0.18177
33.99095,0.18429
33.74988,0.18862
33.50881,0.18912
33.26774,0.18419
33.02667,0.17855
32.78560,0.17738
32.54453,0.18029
32.30345,0.18073
32.06238,0.17351
31.82131,0.16129
31.58024,0.14999
31.33917,0.14262
31.09810,0.13864
30.85703,0.13402
30.61596,0.12318
30.37489,0.10598
30.13382,0.08908
29.89275,0.07732
29.65168,0.06754
29.41061,0.05579
29.16954,0.04605
28.92847,0.04516
28.68740,0.05031
28.44633,0.04991
28.20526,0.03996
27.96418,0.02556
27.72311,0.00854
27.48204,-0.01005
27.24097,-0.02164
26.99990,-0.01933
26.75883,-0.01335
26.51776,-0.02532
26.27669,-0.05903
26.03562,-0.09115
25.79455,-0.10040
25.55348,-0.09429
25.31241,-0.09330
25.07134,-0.10006
24.83027,-0.10467
24.58920,-0.10879
24.34813,-0.12281
24.10706,-0.14923
23.86599,-0.17790
23.62491,-0.19241
23.38384,-0.18569
23.14277,-0.17148
22.90170,-0.16961
22.66063,-0.18252
22.41956,-0.19989
22.17849,-0.21933
21.93742,-0.23873
21.69635,-0.24387
21.45528,-0.22842
21.21421,-0.21148
20.97314,-0.21340
20.73207,-0.23321
20.49100,-0.25659
20.24993,-0.26992
20.00886,-0.27159
19.76779,-0.26684
19.52672,-0.26109
19.28564,-0.25465
19.04457,-0.24274
18.80350,-0.24013
18.56243,-0.25850
18.32136,-0.29007
18.08029,-0.31502
17.83922,-0.31841
17.59815,-0.30647
17.35708,-0.29429
17.11601,-0.29577
16.87494,-0.30891
16.63387,-0.32273
16.39280,-0.33268
16.15173,-0.33875
15.91066,-0.33170
15.66959,-0.31541
15.42852,-0.30099
15.18745,-0.29421
14.94637,-0.30215
14.70530,-0.32770
14.46423,-0.35756
14.22316,-0.36805
13.98209,-0.34573
13.74102,-0.33216
13.49995,-0.34144
13.25888,-0.36109
13.01781,-0.37961
12.77674,-0.39660
12.53567,-0.41370
12.29460,-0.42554
12.05353,-0.41728
11.81246,-0.38877
11.57139,-0.35718
11.33032,-0.35170
11.08925,-0.37654
10.84818,-0.40098
10.60710,-0.39116
10.36603,-0.36635
10.12496,-0.34333
9.88389,-0.33129
9.64282,-0.33558
9.40175,-0.35633
9.16068,-0.37832
8.91961,-0.38182
8.67854,-0.36741
8.43747,-0.34974
8.19640,-0.34354
7.95533,-0.34053
7.71426,-0.32428
7.47319,-0.31463
7.23212,-0.32029
6.99105,-0.32806
6.74998,-0.32701
6.50891,-0.32019
6.26783,-0.31553
6.02676,-0.31588
5.78569,-0.31802
5.54462,-0.32299
5.30355,-0.33639
5.06248,-0.34789
4.82141,-0.34435
4.58034,-0.33399
4.33927,-0.33178
4.09820,-0.33268
3.85713,-0.33113
3.61606,-0.33250
3.37499,-0.33583
3.13392,-0.35183
2.89285,-0.38025
2.65178,-0.40123
2.41071,-0.40343
2.16964,-0.38940
1.92856,-0.37972
1.68749,-0.38271
1.44642,-0.38845
1.20535,-0.38245
0.96428,-0.36580
0.72321,-0.36220
0.48214,-0.36790
0.24107,-0.37200
-0.00000,-0.32729
