399.69498,1.91860
399.45391,1.94206
399.21284,1.92401
398.97177,1.89072
398.73070,1.88258
398.48963,1.90655
398.24856,1.94214
398.00749,1.96057
397.76642,1.94838
397.52535,1.92946
397.28428,1.93578
397.04321,1.96550
396.80214,2.00426
396.56107,2.02998
396.32000,1.99767
396.07892,1.97399
395.83785,2.01534
395.59678,2.07498
395.35571,2.08295
395.11464,2.03914
394.87357,1.98119
394.63250,1.94403
394.39143,1.94467
394.15036,1.98902
393.90929,2.06305
393.66822,2.13251
393.42715,2.18217
393.18608,2.20717
392.94501,2.18276
392.70394,2.11926
392.46287,2.06626
392.22180,2.04181
391.98073,2.03702
391.73965,2.04103
391.49858,2.03782
391.25751,2.03207
391.01644,2.04653
390.77537,2.06557
390.53430,2.06164
390.29323,2.09978
390.05216,2.22502
389.81109,2.29670
389.57002,2.33147
389.32895,2.31922
389.08788,2.26498
388.84681,2.16932
388.60574,2.08334
388.36467,2.03230
388.12360,2.02380
387.88253,2.05062
387.64146,2.10962
387.40038,2.22566
387.15931,2.42002
386.91824,2.63861
386.67717,2.67097
386.43610,2.41419
386.19503,2.20901
385.95396,2.12592
385.71289,2.14642
385.47182,2.25622
385.23075,2.28215
384.98968,2.23333
384.74861,2.31896
384.50754,2.33251
384.26647,2.34180
384.02540,2.48944
383.78433,2.58443
383.54326,2.49899
383.30219,2.36850
383.06111,2.26145
382.82004,2.25883
382.57897,2.30553
382.33790,2.29993
382.09683,2.23959
381.85576,2.19387
381.61469,2.09276
381.37362,1.94880
381.13255,1.86907
380.89148,1.88899
380.65041,1.98463
380.40934,1.95424
380.16827,2.01192
379.92720,2.17861
379.68613,2.11766
379.44506,2.14205
379.20399,2.32355
378.96292,2.66835
378.72184,2.49429
378.48077,2.20271
378.23970,2.09505
377.99863,2.07965
377.75756,2.10921
377.51649,2.17332
377.27542,2.19019
377.03435,2.13016
376.79328,2.12749
376.55221,2.22331
376.31114,2.22325
376.07007,2.07017
375.82900,2.00302
375.58793,2.05348
375.34686,1.97952
375.10579,1.92160
374.86472,1.97255
374.62365,2.10039
374.38257,2.22760
374.14150,2.33002
373.90043,2.40991
373.65936,2.37401
373.41829,2.36292
373.17722,2.27792
372.93615,2.11659
372.69508,2.02119
372.45401,1.98119
372.21294,1.93599
371.97187,1.86446
371.73080,1.81302
371.48973,1.82296
371.24866,1.88027
371.00759,1.93754
370.76652,1.95227
370.52545,1.91009
370.28437,1.83758
370.04330,1.76771
369.80223,1.72056
369.56116,1.70708
369.32009,1.72463
369.07902,1.75097
368.83795,1.75169
368.59688,1.71561
368.35581,1.66684
368.11474,1.62835
367.87367,1.60180
367.63260,1.58306
367.39153,1.57920
367.15046,1.59716
366.90939,1.62132
366.66832,1.62666
366.42725,1.61715
366.18618,1.61902
365.94510,1.63863
365.70403,1.65339
365.46296,1.63972
365.22189,1.59691
364.98082,1.54694
364.73975,1.51240
364.49868,1.50100
364.25761,1.50500
364.01654,1.50927
363.77547,1.50428
363.53440,1.49309
363.29333,1.48744
363.05226,1.49439
362.81119,1.50586
362.57012,1.51011
362.32905,1.50814
362.08798,1.50577
361.84691,1.50113
361.60583,1.49310
361.36476,1.49547
361.12369,1.52569
360.88262,1.57405
360.64155,1.59856
360.40048,1.57447
360.15941,1.52865
359.91834,1.49613
359.67727,1.48591
359.43620,1.48919
359.19513,1.49573
358.95406,1.50006
358.71299,1.50016
358.47192,1.49504
358.23085,1.48340
357.98978,1.46532
357.74871,1.44696
357.50764,1.43695
357.26656,1.43629
357.02549,1.43614
356.78442,1.43185
356.54335,1.43295
356.30228,1.44747
356.06121,1.46721
355.82014,1.48094
355.57907,1.49124
355.33800,1.50298
355.09693,1.50759
354.85586,1.49704
354.61479,1.48212
354.37372,1.47665
354.13265,1.47758
353.89158,1.47300
353.65051,1.46085
353.40944,1.44993
353.16837,1.44816
352.92729,1.45611
352.68622,1.46652
352.44515,1.46968
352.20408,1.46400
351.96301,1.45631
351.72194,1.45083
351.48087,1.44862
351.23980,1.45434
350.99873,1.46717
350.75766,1.47344
350.51659,1.46532
350.27552,1.45210
350.03445,1.44391
349.79338,1.44280
349.55231,1.44959
349.31124,1.46097
349.07017,1.46489
348.82910,1.45537
348.58802,1.44452
348.34695,1.44814
348.10588,1.46989
347.86481,1.50126
347.62374,1.52720
347.38267,1.53340
347.14160,1.51967
346.90053,1.50156
346.65946,1.49473
346.41839,1.50276
346.17732,1.51631
345.93625,1.52396
345.69518,1.52695
345.45411,1.53436
345.21304,1.55065
344.97197,1.56943
344.73090,1.58112
344.48983,1.58941
344.24875,1.60345
344.00768,1.62399
343.76661,1.64584
343.52554,1.66702
343.28447,1.68903
343.04340,1.70394
342.80233,1.69799
342.56126,1.67669
342.32019,1.66167
342.07912,1.66529
341.83805,1.67981
341.59698,1.68659
341.35591,1.68681
341.11484,1.69733
340.87377,1.71747
340.63270,1.73404
340.39163,1.73971
340.15056,1.73454
339.90948,1.73189
339.66841,1.74637
339.42734,1.77545
339.18627,1.81163
338.94520,1.84623
338.70413,1.87595
338.46306,1.91479
338.22199,1.96553
337.98092,1.99492
337.73985,1.97858
337.49878,1.93896
337.25771,1.90700
337.01664,1.89428
336.77557,1.89624
336.53450,1.90725
336.29343,1.92133
336.05236,1.92387
335.81129,1.90456
335.57021,1.88109
335.32914,1.88695
335.08807,1.93474
334.84700,1.98068
334.60593,1.96130
334.36486,1.87656
334.12379,1.79159
333.88272,1.76215
333.64165,1.79733
333.40058,1.86950
333.15951,1.93106
332.91844,1.94205
332.67737,1.90054
332.43630,1.83191
332.19523,1.76864
331.95416,1.73231
331.71309,1.72391
331.47202,1.72754
331.23094,1.72228
330.98987,1.69885
330.74880,1.66433
330.50773,1.63843
330.26666,1.63975
330.02559,1.67247
329.78452,1.72373
329.54345,1.76603
329.30238,1.77299
329.06131,1.73829
328.82024,1.67942
328.57917,1.62595
328.33810,1.59339
328.09703,1.58663
327.85596,1.60686
327.61489,1.64717
327.37382,1.69853
327.13275,1.75895
326.89167,1.81076
326.65060,1.81173
326.40953,1.75239
326.16846,1.67817
325.92739,1.62267
325.68632,1.59492
325.44525,1.59487
325.20418,1.61244
324.96311,1.63291
324.72204,1.65717
324.48097,1.70246
324.23990,1.77791
323.99883,1.87539
323.75776,1.98475
323.51669,2.08260
323.27562,2.10417
323.03455,2.03956
322.79348,1.96164
322.55240,1.89286
322.31133,1.82403
322.07026,1.77832
321.82919,1.78480
321.58812,1.83695
321.34705,1.90289
321.10598,1.95744
320.86491,1.99762
320.62384,2.03586
320.38277,2.05507
320.14170,2.02978
319.90063,2.00907
319.65956,2.04655
319.41849,2.10350
319.17742,2.06981
318.93635,1.97180
318.69528,1.91326
318.45421,1.93882
318.21313,2.01165
317.97206,2.04280
317.73099,2.01470
317.48992,2.00085
317.24885,2.02476
317.00778,2.03177
316.76671,1.98630
316.52564,1.94473
316.28457,1.94768
316.04350,1.96033
315.80243,1.94015
315.56136,1.93134
315.32029,1.98964
315.07922,2.02922
314.83815,2.01761
314.59708,2.17120
314.35601,2.32166
314.11494,2.22602
313.87386,2.12574
313.63279,2.07583
313.39172,2.05974
313.15065,2.11032
312.90958,2.21621
312.66851,2.28534
312.42744,2.29255
312.18637,2.32147
311.94530,2.31982
311.70423,2.22870
311.46316,2.16929
311.22209,2.18398
310.98102,2.26582
310.73995,2.34479
310.49888,2.24342
310.25781,2.10136
310.01674,2.03600
309.77567,2.02444
309.53459,2.01522
309.29352,1.99382
309.05245,1.96515
308.81138,1.91080
308.57031,1.85106
308.32924,1.82476
308.08817,1.83494
307.84710,1.84887
307.60603,1.84513
307.36496,1.83902
307.12389,1.83946
306.88282,1.82557
306.64175,1.78311
306.40068,1.73645
306.15961,1.71131
305.91854,1.70825
305.67747,1.71621
305.43640,1.71475
305.19532,1.68230
304.95425,1.62000
304.71318,1.55764
304.47211,1.52006
304.23104,1.50816
303.98997,1.50829
303.74890,1.50355
303.50783,1.48442
303.26676,1.45473
303.02569,1.42604
302.78462,1.40959
302.54355,1.40867
302.30248,1.41278
302.06141,1.40723
301.82034,1.39078
301.57927,1.37691
301.33820,1.37723
301.09713,1.38850
300.85605,1.39674
300.61498,1.38987
300.37391,1.36713
300.13284,1.33947
299.89177,1.31946
299.65070,1.31129
299.40963,1.30851
299.16856,1.30321
298.92749,1.29628
298.68642,1.29264
298.44535,1.29113
298.20428,1.28387
297.96321,1.26626
297.72214,1.24555
297.48107,1.23319
297.24000,1.23190
296.99893,1.23394
296.75786,1.23082
296.51678,1.22080
296.27571,1.20815
296.03464,1.19980
295.79357,1.20138
295.55250,1.21197
295.31143,1.22301
295.07036,1.22521
294.82929,1.21649
294.58822,1.20116
294.34715,1.18536
294.10608,1.17417
293.86501,1.16919
293.62394,1.16843
293.38287,1.16899
293.14180,1.16779
292.90073,1.16164
292.65966,1.14998
292.41859,1.13746
292.17751,1.13009
291.93644,1.12804
291.69537,1.12547
291.45430,1.11844
291.21323,1.11032
290.97216,1.10731
290.73109,1.11013
290.49002,1.11274
290.24895,1.10964
290.00788,1.10332
289.76681,1.10104
289.52574,1.10512
289.28467,1.11082
289.04360,1.11326
288.80253,1.11217
288.56146,1.10909
288.32039,1.10423
288.07932,1.09753
287.83824,1.08966
287.59717,1.08142
287.35610,1.07391
287.11503,1.06821
286.87396,1.06537
286.63289,1.06668
286.39182,1.07182
286.15075,1.07688
285.90968,1.07738
285.66861,1.07381
285.42754,1.07078
285.18647,1.07087
284.94540,1.07295
284.70433,1.07498
284.46326,1.07484
284.22219,1.07048
283.98112,1.06331
283.74005,1.05895
283.49897,1.06102
283.25790,1.06605
283.01683,1.06699
282.77576,1.06080
282.53469,1.05091
282.29362,1.04378
282.05255,1.04402
281.81148,1.05109
281.57041,1.05964
281.32934,1.06346
281.08827,1.06012
280.84720,1.05313
280.60613,1.04881
280.36506,1.04935
280.12399,1.05015
279.88292,1.04703
279.64185,1.04369
279.40078,1.04623
279.15970,1.05298
278.91863,1.05629
278.67756,1.05358
278.43649,1.04977
278.19542,1.04861
277.95435,1.04826
277.71328,1.04566
277.47221,1.04087
277.23114,1.03679
276.99007,1.03704
276.74900,1.04272
276.50793,1.04938
276.26686,1.05055
276.02579,1.04580
275.78472,1.04053
275.54365,1.03782
275.30258,1.03635
275.06151,1.03570
274.82043,1.03714
274.57936,1.03989
274.33829,1.04177
274.09722,1.04313
273.85615,1.04572
273.61508,1.04868
273.37401,1.04969
273.13294,1.04859
272.89187,1.04688
272.65080,1.04474
272.40973,1.04198
272.16866,1.04124
271.92759,1.04622
271.68652,1.05616
271.44545,1.06581
271.20438,1.07141
270.96331,1.07386
270.72224,1.07486
270.48116,1.07326
270.24009,1.06762
269.99902,1.06033
269.75795,1.05603
269.51688,1.05705
269.27581,1.06265
269.03474,1.07068
268.79367,1.07840
268.55260,1.08329
268.31153,1.08400
268.07046,1.08000
267.82939,1.07220
267.58832,1.06401
267.34725,1.06007
267.10618,1.06280
266.86511,1.07073
266.62404,1.08055
266.38297,1.09047
266.14189,1.10112
265.90082,1.11257
265.65975,1.12139
265.41868,1.12354
265.17761,1.12028
264.93654,1.11821
264.69547,1.12300
264.45440,1.13474
264.21333,1.14952
263.97226,1.16408
263.73119,1.17732
263.49012,1.18819
263.24905,1.19590
263.00798,1.20201
262.76691,1.20856
262.52584,1.21516
262.28477,1.22016
262.04370,1.22265
261.80262,1.22283
261.56155,1.22305
261.32048,1.22738
261.07941,1.23775
260.83834,1.25210
260.59727,1.26718
260.35620,1.28141
260.11513,1.29435
259.87406,1.30554
259.63299,1.31590
259.39192,1.32943
259.15085,1.35030
258.90978,1.37718
258.66871,1.40383
258.42764,1.42801
258.18657,1.45389
257.94550,1.48276
257.70443,1.50836
257.46335,1.52536
257.22228,1.53797
256.98121,1.55283
256.74014,1.57085
256.49907,1.59026
256.25800,1.61156
256.01693,1.63902
255.77586,1.67601
255.53479,1.71919
255.29372,1.76057
255.05265,1.79237
254.81158,1.81075
254.57051,1.82675
254.32944,1.85449
254.08837,1.89022
253.84730,1.92881
253.60623,1.97011
253.36516,2.00477
253.12408,2.02832
252.88301,2.05307
252.64194,2.09192
252.40087,2.17221
252.15980,2.29314
251.91873,2.37128
251.67766,2.36262
251.43659,2.32293
251.19552,2.27335
250.95445,2.21702
250.71338,2.20946
250.47231,2.29534
250.23124,2.31326
249.99017,2.29626
249.74910,2.35511
249.50803,2.46359
249.26696,2.44797
249.02589,2.31192
248.78481,2.21899
248.54374,2.18624
248.30267,2.15441
248.06160,2.13007
247.82053,2.12852
247.57946,2.13053
247.33839,2.10413
247.09732,2.05545
246.85625,2.02784
246.61518,2.03989
246.37411,2.06567
246.13304,2.05949
245.89197,2.00903
245.65090,1.94867
245.40983,1.90072
245.16876,1.85944
244.92769,1.82234
244.68661,1.78590
244.44554,1.74325
244.20447,1.69658
243.96340,1.65698
243.72233,1.62907
243.48126,1.60220
243.24019,1.56295
242.99912,1.51099
242.75805,1.45558
242.51698,1.40441
242.27591,1.36045
242.03484,1.32167
241.79377,1.28309
241.55270,1.24309
241.31163,1.20577
241.07056,1.17606
240.82949,1.15461
240.58842,1.13695
240.34734,1.11737
240.10627,1.09412
239.86520,1.07027
239.62413,1.04966
239.38306,1.03351
239.14199,1.01997
238.90092,1.00571
238.65985,0.98886
238.41878,0.97044
238.17771,0.95254
237.93664,0.93624
237.69557,0.92124
237.45450,0.90693
237.21343,0.89372
236.97236,0.88322
236.73129,0.87592
236.49022,0.86967
236.24915,0.86225
236.00807,0.85413
235.76700,0.84716
235.52593,0.84215
235.28486,0.83852
235.04379,0.83434
234.80272,0.82732
234.56165,0.81799
234.32058,0.81008
234.07951,0.80629
233.83844,0.80558
233.59737,0.80498
233.35630,0.80217
233.11523,0.79577
232.87416,0.78597
232.63309,0.77584
232.39202,0.76959
232.15095,0.76821
231.90988,0.76867
231.66880,0.76779
231.42773,0.76507
231.18666,0.76126
230.94559,0.75678
230.70452,0.75225
230.46345,0.74883
230.22238,0.74732
229.98131,0.74726
229.74024,0.74737
229.49917,0.74699
229.25810,0.74598
229.01703,0.74360
228.77596,0.73925
228.53489,0.73414
228.29382,0.73065
228.05275,0.73014
227.81168,0.73197
227.57061,0.73424
227.32953,0.73525
227.08846,0.73458
226.84739,0.73318
226.60632,0.73242
226.36525,0.73271
226.12418,0.73266
225.88311,0.73048
225.64204,0.72658
225.40097,0.72290
225.15990,0.72033
224.91883,0.71884
224.67776,0.71906
224.43669,0.72107
224.19562,0.72306
223.95455,0.72354
223.71348,0.72368
223.47241,0.72547
223.23134,0.72875
222.99026,0.73182
222.74919,0.73374
222.50812,0.73541
222.26705,0.73863
222.02598,0.74399
221.78491,0.74979
221.54384,0.75402
221.30277,0.75733
221.06170,0.76192
220.82063,0.76795
220.57956,0.77371
220.33849,0.77881
220.09742,0.78462
219.85635,0.79123
219.61528,0.79659
219.37421,0.79985
219.13314,0.80329
218.89207,0.80958
218.65099,0.81836
218.40992,0.82731
218.16885,0.83551
217.92778,0.84387
217.68671,0.85296
217.44564,0.86213
217.20457,0.87035
216.96350,0.87750
216.72243,0.88489
216.48136,0.89361
216.24029,0.90257
215.99922,0.90983
215.75815,0.91561
215.51708,0.92249
215.27601,0.93231
215.03494,0.94371
214.79387,0.95312
214.55280,0.95827
214.31172,0.96099
214.07065,0.96546
213.82958,0.97374
213.58851,0.98392
213.34744,0.99260
213.10637,0.99832
212.86530,1.00199
212.62423,1.00515
212.38316,1.00872
212.14209,1.01247
211.90102,1.01489
211.65995,1.01538
211.41888,1.01644
211.17781,1.02072
210.93674,1.02588
210.69567,1.02674
210.45460,1.02256
210.21353,1.01787
209.97245,1.01663
209.73138,1.01840
209.49031,1.01991
209.24924,1.01838
209.00817,1.01337
208.76710,1.00708
208.52603,1.00265
208.28496,1.00096
208.04389,0.99983
207.80282,0.99701
207.56175,0.99209
207.32068,0.98550
207.07961,0.97768
206.83854,0.96918
206.59747,0.96069
206.35640,0.95312
206.11533,0.94740
205.87426,0.94333
205.63318,0.93921
205.39211,0.93365
205.15104,0.92655
204.90997,0.91793
204.66890,0.90755
204.42783,0.89627
204.18676,0.88624
203.94569,0.87858
203.70462,0.87177
203.46355,0.86379
203.22248,0.85494
202.98141,0.84667
202.74034,0.83885
202.49927,0.83003
202.25820,0.81986
202.01713,0.80941
201.77606,0.79981
201.53499,0.79112
201.29391,0.78223
201.05284,0.77197
200.81177,0.76098
200.57070,0.75155
200.32963,0.74461
200.08856,0.73816
199.84749,0.72972
199.60642,0.71924
199.36535,0.70853
199.12428,0.69878
198.88321,0.68997
198.64214,0.68198
198.40107,0.67461
198.16000,0.66693
197.91893,0.65817
197.67786,0.64938
197.43679,0.64255
197.19572,0.63785
196.95464,0.63305
196.71357,0.62648
196.47250,0.61936
196.23143,0.61396
195.99036,0.61029
195.74929,0.60605
195.50822,0.59988
195.26715,0.59309
195.02608,0.58763
194.78501,0.58332
194.54394,0.57847
194.30287,0.57248
194.06180,0.56663
193.82073,0.56236
193.57966,0.55960
193.33859,0.55702
193.09752,0.55337
192.85645,0.54851
192.61537,0.54357
192.37430,0.53987
192.13323,0.53775
191.89216,0.53616
191.65109,0.53373
191.41002,0.53049
191.16895,0.52756
190.92788,0.52522
190.68681,0.52255
190.44574,0.51919
190.20467,0.51618
189.96360,0.51442
189.72253,0.51338
189.48146,0.51164
189.24039,0.50837
188.99932,0.50422
188.75825,0.50038
188.51718,0.49725
188.27610,0.49468
188.03503,0.49326
187.79396,0.49369
187.55289,0.49500
187.31182,0.49490
187.07075,0.49244
186.82968,0.48912
186.58861,0.48700
186.34754,0.48664
186.10647,0.48734
185.86540,0.48840
185.62433,0.48947
185.38326,0.49049
185.14219,0.49172
184.90112,0.49336
184.66005,0.49485
184.41898,0.49522
184.17791,0.49454
183.93683,0.49417
183.69576,0.49523
183.45469,0.49733
183.21362,0.49911
182.97255,0.49974
182.73148,0.49952
182.49041,0.49941
182.24934,0.50028
182.00827,0.50218
181.76720,0.50414
181.52613,0.50504
181.28506,0.50492
181.04399,0.50495
180.80292,0.50593
180.56185,0.50749
180.32078,0.50896
180.07971,0.51052
179.83864,0.51295
179.59756,0.51671
179.35649,0.52165
179.11542,0.52741
178.87435,0.53367
178.63328,0.54002
178.39221,0.54595
178.15114,0.55123
177.91007,0.55631
177.66900,0.56220
177.42793,0.56982
177.18686,0.57936
176.94579,0.59011
176.70472,0.60079
176.46365,0.61050
176.22258,0.61967
175.98151,0.62961
175.74044,0.64117
175.49937,0.65440
175.25829,0.66899
175.01722,0.68447
174.77615,0.70032
174.53508,0.71592
174.29401,0.73025
174.05294,0.74249
173.81187,0.75336
173.57080,0.76441
173.32973,0.77568
173.08866,0.78553
172.84759,0.79289
172.60652,0.79790
172.36545,0.80095
172.12438,0.80265
171.88331,0.80393
171.64224,0.80513
171.40117,0.80587
171.16010,0.80598
170.91902,0.80562
170.67795,0.80439
170.43688,0.80133
170.19581,0.79629
169.95474,0.79051
169.71367,0.78522
169.47260,0.78060
169.23153,0.77684
168.99046,0.77419
168.74939,0.77153
168.50832,0.76719
168.26725,0.76180
168.02618,0.75798
167.78511,0.75680
167.54404,0.75675
167.30297,0.75637
167.06190,0.75621
166.82083,0.75788
166.57975,0.76205
166.33868,0.76742
166.09761,0.77176
165.85654,0.77391
165.61547,0.77433
165.37440,0.77394
165.13333,0.77401
164.89226,0.77670
164.65119,0.78341
164.41012,0.79243
164.16905,0.80016
163.92798,0.80490
163.68691,0.80802
163.44584,0.81159
163.20477,0.81693
162.96370,0.82488
162.72263,0.83469
162.48156,0.84289
162.24048,0.84578
161.99941,0.84370
161.75834,0.84126
161.51727,0.84280
161.27620,0.84872
161.03513,0.85579
160.79406,0.85993
160.55299,0.85837
160.31192,0.85084
160.07085,0.84016
159.82978,0.83083
159.58871,0.82590
159.34764,0.82502
159.10657,0.82603
158.86550,0.82728
158.62443,0.82802
158.38336,0.82754
158.14229,0.82500
157.90121,0.81982
157.66014,0.81220
157.41907,0.80333
157.17800,0.79473
156.93693,0.78731
156.69586,0.78126
156.45479,0.77659
156.21372,0.77330
155.97265,0.77109
155.73158,0.76915
155.49051,0.76597
155.24944,0.76024
155.00837,0.75233
154.76730,0.74388
154.52623,0.73603
154.28516,0.72918
154.04409,0.72337
153.80302,0.71707
153.56194,0.70714
153.32087,0.69233
153.07980,0.67546
152.83873,0.66035
152.59766,0.64837
152.35659,0.63851
152.11552,0.62926
151.87445,0.61951
151.63338,0.60874
151.39231,0.59723
151.15124,0.58582
150.91017,0.57505
150.66910,0.56475
150.42803,0.55462
150.18696,0.54484
149.94589,0.53589
149.70482,0.52816
149.46375,0.52163
149.22267,0.51584
148.98160,0.50997
148.74053,0.50347
148.49946,0.49660
148.25839,0.49034
148.01732,0.48541
147.77625,0.48174
147.53518,0.47932
147.29411,0.47876
147.05304,0.47993
146.81197,0.48111
146.57090,0.48081
146.32983,0.47982
146.08876,0.48039
145.84769,0.48374
145.60662,0.48887
145.36555,0.49380
145.12448,0.49769
144.88340,0.50141
144.64233,0.50617
144.40126,0.51193
144.16019,0.51712
143.91912,0.51995
143.67805,0.51975
143.43698,0.51693
143.19591,0.51216
142.95484,0.50580
142.71377,0.49804
142.47270,0.48903
142.23163,0.47944
141.99056,0.47058
141.74949,0.46346
141.50842,0.45793
141.26735,0.45310
141.02628,0.44847
140.78521,0.44429
140.54413,0.44125
140.30306,0.43953
140.06199,0.43865
139.82092,0.43851
139.57985,0.43980
139.33878,0.44263
139.09771,0.44598
138.85664,0.44906
138.61557,0.45232
138.37450,0.45656
138.13343,0.46213
137.89236,0.46885
137.65129,0.47639
137.41022,0.48464
137.16915,0.49411
136.92808,0.50572
136.68701,0.52019
136.44594,0.53728
136.20486,0.55559
135.96379,0.57334
135.72272,0.59010
135.48165,0.60753
135.24058,0.62780
134.99951,0.65139
134.75844,0.67645
134.51737,0.70038
134.27630,0.72189
134.03523,0.74171
133.79416,0.76099
133.55309,0.77991
133.31202,0.79838
133.07095,0.81703
132.82988,0.83571
132.58881,0.85240
132.34774,0.86538
132.10667,0.87525
131.86559,0.88331
131.62452,0.89004
131.38345,0.89536
131.14238,0.89827
130.90131,0.89662
130.66024,0.88899
130.41917,0.87557
130.17810,0.85753
129.93703,0.83695
129.69596,0.81662
129.45489,0.79811
129.21382,0.78001
128.97275,0.75953
128.73168,0.73588
128.49061,0.71117
128.24954,0.68759
128.00847,0.66510
127.76740,0.64257
127.52632,0.61987
127.28525,0.59815
127.04418,0.57877
126.80311,0.56205
126.56204,0.54644
126.32097,0.53007
126.07990,0.51329
125.83883,0.49820
125.59776,0.48546
125.35669,0.47339
125.11562,0.46063
124.87455,0.44792
124.63348,0.43675
124.39241,0.42757
124.15134,0.41981
123.91027,0.41269
123.66920,0.40556
123.42812,0.39807
123.18705,0.39048
122.94598,0.38374
122.70491,0.37922
122.46384,0.37757
122.22277,0.37788
121.98170,0.37817
121.74063,0.37695
121.49956,0.37450
121.25849,0.37303
121.01742,0.37515
120.77635,0.38153
120.53528,0.39030
120.29421,0.39901
120.05314,0.40695
119.81207,0.41546
119.57100,0.42664
119.32993,0.44146
119.08885,0.45880
118.84778,0.47695
118.60671,0.49553
118.36564,0.51524
118.12457,0.53634
117.88350,0.55788
117.64243,0.57810
117.40136,0.59571
117.16029,0.61051
116.91922,0.62173
116.67815,0.62726
116.43708,0.62646
116.19601,0.62156
115.95494,0.61479
115.71387,0.60683
115.47280,0.59819
115.23173,0.58940
114.99066,0.58026
114.74958,0.57097
114.50851,0.56256
114.26744,0.55583
114.02637,0.55097
113.78530,0.54781
113.54423,0.54535
113.30316,0.54234
113.06209,0.53943
112.82102,0.53877
112.57995,0.54079
112.33888,0.54341
112.09781,0.54481
111.85674,0.54488
111.61567,0.54426
111.37460,0.54402
111.13353,0.54555
110.89246,0.54864
110.65139,0.55059
110.41031,0.54976
110.16924,0.54779
109.92817,0.54561
109.68710,0.54005
109.44603,0.52800
109.20496,0.51182
108.96389,0.49679
108.72282,0.48482
108.48175,0.47377
108.24068,0.46189
107.99961,0.44954
107.75854,0.43704
107.51747,0.42403
107.27640,0.41116
107.03533,0.39997
106.79426,0.39094
106.55319,0.38310
106.31212,0.37510
106.07104,0.36589
105.82997,0.35566
105.58890,0.34622
105.34783,0.33893
105.10676,0.33237
104.86569,0.32420
104.62462,0.31443
104.38355,0.30485
104.14248,0.29621
103.90141,0.28814
103.66034,0.28122
103.41927,0.27661
103.17820,0.27397
102.93713,0.27115
102.69606,0.26617
102.45499,0.25904
102.21392,0.25198
101.97285,0.24735
101.73177,0.24536
101.49070,0.24409
101.24963,0.24179
101.00856,0.23825
100.76749,0.23408
100.52642,0.22987
100.28535,0.22642
100.04428,0.22445
99.80321,0.22355
99.56214,0.22237
99.32107,0.22022
99.08000,0.21737
98.83893,0.21442
98.59786,0.21221
98.35679,0.21190
98.11572,0.21383
97.87465,0.21684
97.63358,0.21940
97.39250,0.22101
97.15143,0.22199
96.91036,0.22271
96.66929,0.22337
96.42822,0.22426
96.18715,0.22568
95.94608,0.22790
95.70501,0.23084
95.46394,0.23408
95.22287,0.23725
94.98180,0.24061
94.74073,0.24483
94.49966,0.24991
94.25859,0.25479
94.01752,0.25859
93.77645,0.26123
93.53538,0.26247
93.29431,0.26163
93.05323,0.25868
92.81216,0.25486
92.57109,0.25178
92.33002,0.25036
92.08895,0.25086
91.84788,0.25345
91.60681,0.25836
91.36574,0.26561
91.12467,0.27504
90.88360,0.28659
90.64253,0.30087
90.40146,0.31945
90.16039,0.34372
89.91932,0.37292
89.67825,0.40420
89.43718,0.43567
89.19611,0.46778
88.95504,0.50014
88.71396,0.52902
88.47289,0.54925
88.23182,0.55759
87.99075,0.55375
87.74968,0.53962
87.50861,0.51782
87.26754,0.49091
87.02647,0.46130
86.78540,0.43113
86.54433,0.40213
86.30326,0.37582
86.06219,0.35332
85.82112,0.33453
85.58005,0.31770
85.33898,0.30049
85.09791,0.28190
84.85684,0.26314
84.61577,0.24650
84.37469,0.23369
84.13362,0.22506
83.89255,0.21943
83.65148,0.21456
83.41041,0.20862
83.16934,0.20100
82.92827,0.19208
82.68720,0.18330
82.44613,0.17697
82.20506,0.17412
81.96399,0.17289
81.72292,0.17044
81.48185,0.16615
81.24078,0.16158
80.99971,0.15802
80.75864,0.15529
80.51757,0.15269
80.27650,0.15000
80.03542,0.14751
79.79435,0.14576
79.55328,0.14494
79.31221,0.14452
79.07114,0.14371
78.83007,0.14213
78.58900,0.13981
78.34793,0.13715
78.10686,0.13490
77.86579,0.13350
77.62472,0.13231
77.38365,0.13036
77.14258,0.12792
76.90151,0.12616
76.66044,0.12534
76.41937,0.12467
76.17830,0.12374
75.93723,0.12285
75.69615,0.12194
75.45508,0.12047
75.21401,0.11854
74.97294,0.11696
74.73187,0.11634
74.49080,0.11677
74.24973,0.11805
74.00866,0.11976
73.76759,0.12110
73.52652,0.12109
73.28545,0.11925
73.04438,0.11629
72.80331,0.11382
72.56224,0.11283
72.32117,0.11287
72.08010,0.11329
71.83903,0.11429
71.59796,0.11615
71.35688,0.11821
71.11581,0.11982
70.87474,0.12151
70.63367,0.12444
70.39260,0.12913
70.15153,0.13551
69.91046,0.14365
69.66939,0.15341
69.42832,0.16318
69.18725,0.17024
68.94618,0.17269
68.70511,0.17028
68.46404,0.16366
68.22297,0.15418
67.98190,0.14395
67.74083,0.13501
67.49976,0.12859
67.25869,0.12491
67.01761,0.12271
66.77654,0.11958
66.53547,0.11414
66.29440,0.10754
66.05333,0.10209
65.81226,0.09926
65.57119,0.09918
65.33012,0.10092
65.08905,0.10345
64.84798,0.10692
64.60691,0.11243
64.36584,0.11985
64.12477,0.12690
63.88370,0.13126
63.64263,0.13254
63.40156,0.13169
63.16049,0.12965
62.91942,0.12718
62.67834,0.12470
62.43727,0.12197
62.19620,0.11858
61.95513,0.11466
61.71406,0.11045
61.47299,0.10578
61.23192,0.10085
60.99085,0.09691
60.74978,0.09516
60.50871,0.09538
60.26764,0.09644
60.02657,0.09750
59.78550,0.09804
59.54443,0.09743
59.30336,0.09541
59.06229,0.09230
58.82122,0.08869
58.58015,0.08548
58.33907,0.08352
58.09800,0.08251
57.85693,0.08169
57.61586,0.08142
57.37479,0.08190
57.13372,0.08140
56.89265,0.07858
56.65158,0.07518
56.41051,0.07329
56.16944,0.07239
55.92837,0.07110
55.68730,0.06961
55.44623,0.06879
55.20516,0.06853
54.96409,0.06804
54.72302,0.06716
54.48195,0.06675
54.24088,0.06808
53.99980,0.07179
53.75873,0.07717
53.51766,0.08241
53.27659,0.08605
53.03552,0.08800
52.79445,0.08884
52.55338,0.08836
52.31231,0.08630
52.07124,0.08395
51.83017,0.08344
51.58910,0.08529
51.34803,0.08763
51.10696,0.08843
50.86589,0.08780
50.62482,0.08683
50.38375,0.08516
50.14268,0.08210
49.90161,0.07914
49.66053,0.07807
49.41946,0.07715
49.17839,0.07323
48.93732,0.06713
48.69625,0.06329
48.45518,0.06412
48.21411,0.06664
47.97304,0.06557
47.73197,0.05974
47.49090,0.05391
47.24983,0.05215
47.00876,0.05200
46.76769,0.04904
46.52662,0.04384
46.28555,0.04040
46.04448,0.04068
45.80341,0.04302
45.56234,0.04455
45.32126,0.04394
45.08019,0.04229
44.83912,0.04152
44.59805,0.04216
44.35698,0.04366
44.11591,0.04548
43.87484,0.04643
43.63377,0.04526
43.39270,0.04190
43.15163,0.03704
42.91056,0.03163
42.66949,0.02753
42.42842,0.02698
42.18735,0.03040
41.94628,0.03529
41.70521,0.03758
41.46414,0.03480
41.22307,0.02910
40.98199,0.02641
40.74092,0.03029
40.49985,0.03662
40.25878,0.03848
40.01771,0.03648
39.77664,0.03846
39.53557,0.04819
39.29450,0.06083
39.05343,0.07034
38.81236,0.07496
38.57129,0.07664
38.33022,0.07885
38.08915,0.08223
37.84808,0.08374
37.60701,0.08190
37.36594,0.07801
37.12487,0.07300
36.88380,0.06849
36.64272,0.06713
36.40165,0.06865
36.16058,0.06975
35.91951,0.06745
35.67844,0.06048
35.43737,0.05104
35.19630,0.04625
34.95523,0.05152
34.71416,0.06293
34.47309,0.07229
34.23202,0.07587
33.99095,0.07380
33.74988,0.07009
33.50881,0.07558
33.26774,0.09813
33.02667,0.12955
32.78560,0.15308
32.54453,0.16008
32.30345,0.15534
32.06238,0.14686
31.82131,0.13575
31.58024,0.12093
31.33917,0.10628
31.09810,0.09695
30.85703,0.09032
30.61596,0.07849
30.37489,0.06230
30.13382,0.05296
29.89275,0.05756
29.65168,0.07112
29.41061,0.08470
29.16954,0.09679
28.92847,0.11315
28.68740,0.13730
28.44633,0.16724
28.20526,0.19592
27.96418,0.21290
27.72311,0.21565
27.48204,0.21183
27.24097,0.20912
26.99990,0.20761
26.75883,0.20164
26.51776,0.18687
26.27669,0.16443
26.03562,0.14737
25.79455,0.14995
25.55348,0.16286
25.31241,0.16903
25.07134,0.16545
24.83027,0.15784
24.58920,0.15242
24.34813,0.15736
24.10706,0.18007
23.86599,0.21763
23.62491,0.26094
23.38384,0.30996
23.14277,0.36598
22.90170,0.41092
22.66063,0.42754
22.41956,0.41905
22.17849,0.40093
21.93742,0.39203
21.69635,0.39514
21.45528,0.41576
21.21421,0.44779
20.97314,0.46108
20.73207,0.44654
20.49100,0.42236
20.24993,0.40172
20.00886,0.40282
19.76779,0.43286
19.52672,0.47734
19.28564,0.52331
19.04457,0.57453
18.80350,0.62411
18.56243,0.65039
18.32136,0.64390
18.08029,0.62432
17.83922,0.62131
17.59815,0.63911
17.35708,0.64951
17.11601,0.66153
16.87494,0.69968
16.63387,0.72851
16.39280,0.76481
16.15173,0.84578
15.91066,0.85634
15.66959,0.72717
15.42852,0.63074
15.18745,0.60817
14.94637,0.61489
14.70530,0.60048
14.46423,0.55615
14.22316,0.52483
13.98209,0.56191
13.74102,0.65805
13.49995,0.73409
13.25888,0.75949
13.01781,0.79915
12.77674,0.86421
12.53567,0.78981
12.29460,0.66945
12.05353,0.69998
11.81246,0.79486
11.57139,0.82215
11.33032,0.94780
11.08925,1.00684
10.84818,0.95236
10.60710,0.99992
10.36603,1.13099
10.12496,1.10240
9.88389,1.02216
9.64282,0.89972
9.40175,0.87715
9.16068,0.88617
8.91961,0.82631
8.67854,0.79365
8.43747,0.82560
8.19640,0.83439
7.95533,0.78055
7.71426,0.76452
7.47319,0.87836
7.23212,1.09673
6.99105,1.30901
6.74998,1.50419
6.50891,1.04700
6.26783,0.79549
6.02676,0.70482
5.78569,0.73538
5.54462,0.92008
5.30355,1.06477
5.06248,1.20917
4.82141,1.31354
4.58034,1.31407
4.33927,1.26717
4.09820,1.16864
3.85713,0.96426
3.61606,0.86825
3.37499,0.84577
3.13392,0.83247
2.89285,0.83810
2.65178,0.84373
2.41071,0.83457
2.16964,0.82898
1.92856,0.80372
1.68749,0.81328
1.44642,1.04540
1.20535,1.52913
0.96428,1.26059
0.72321,1.03179
0.48214,0.96455
0.24107,0.99636
-0.00000,0.67325
