399.69498,1.57300
399.45391,1.57354
399.21284,1.57940
398.97177,1.58835
398.73070,1.59604
398.48963,1.59592
398.24856,1.58530
398.00749,1.57129
397.76642,1.56479
397.52535,1.57046
397.28428,1.58418
397.04321,1.59793
396.80214,1.60310
396.56107,1.59486
396.32000,1.58147
396.07892,1.57953
395.83785,1.59175
395.59678,1.60063
395.35571,1.59166
395.11464,1.57157
394.87357,1.55400
394.63250,1.54302
394.39143,1.53844
394.15036,1.54342
393.90929,1.55742
393.66822,1.56925
393.42715,1.56967
393.18608,1.56494
392.94501,1.56311
392.70394,1.55856
392.46287,1.54355
392.22180,1.52309
391.98073,1.50635
391.73965,1.49920
391.49858,1.50590
391.25751,1.52299
391.01644,1.53566
390.77537,1.53190
390.53430,1.51604
390.29323,1.50054
390.05216,1.49210
389.81109,1.48887
389.57002,1.48536
389.32895,1.47967
389.08788,1.47664
388.84681,1.48194
388.60574,1.49440
388.36467,1.50561
388.12360,1.50551
387.88253,1.49201
387.64146,1.47375
387.40038,1.46126
387.15931,1.45809
386.91824,1.46065
386.67717,1.46120
386.43610,1.45168
386.19503,1.43422
385.95396,1.42016
385.71289,1.41322
385.47182,1.40514
385.23075,1.38966
384.98968,1.37117
384.74861,1.35634
384.50754,1.34541
384.26647,1.33745
384.02540,1.33690
383.78433,1.34502
383.54326,1.35096
383.30219,1.34154
383.06111,1.31863
382.82004,1.29842
382.57897,1.29465
382.33790,1.30538
382.09683,1.31550
381.85576,1.31364
381.61469,1.30517
381.37362,1.30045
381.13255,1.29726
380.89148,1.28952
380.65041,1.28170
380.40934,1.27957
380.16827,1.27996
379.92720,1.27878
379.68613,1.28037
379.44506,1.28982
379.20399,1.30150
378.96292,1.30427
378.72184,1.29681
378.48077,1.28982
378.23970,1.29410
377.99863,1.31030
377.75756,1.32775
377.51649,1.33623
377.27542,1.33926
377.03435,1.34510
376.79328,1.35246
376.55221,1.35793
376.31114,1.36560
376.07007,1.37891
375.82900,1.39476
375.58793,1.40928
375.34686,1.42181
375.10579,1.43126
374.86472,1.43564
374.62365,1.43452
374.38257,1.42922
374.14150,1.42112
373.90043,1.41329
373.65936,1.40925
373.41829,1.40898
373.17722,1.41183
372.93615,1.41744
372.69508,1.42136
372.45401,1.41917
372.21294,1.41564
371.97187,1.41968
371.73080,1.42939
371.48973,1.43210
371.24866,1.42329
371.00759,1.41432
370.76652,1.41666
370.52545,1.42930
370.28437,1.44181
370.04330,1.44389
369.80223,1.43313
369.56116,1.41590
369.32009,1.40116
369.07902,1.39341
368.83795,1.38981
368.59688,1.38401
368.35581,1.37533
368.11474,1.37171
367.87367,1.37982
367.63260,1.39544
367.39153,1.40712
367.15046,1.40815
366.90939,1.40011
366.66832,1.38788
366.42725,1.37542
366.18618,1.36450
365.94510,1.35629
365.70403,1.35345
365.46296,1.35858
365.22189,1.37043
364.98082,1.38352
364.73975,1.38940
364.49868,1.38330
364.25761,1.37144
364.01654,1.36296
363.77547,1.36013
363.53440,1.35925
363.29333,1.35708
363.05226,1.35368
362.81119,1.34944
362.57012,1.34565
362.32905,1.34549
362.08798,1.34951
361.84691,1.35386
361.60583,1.35570
361.36476,1.35600
361.12369,1.35508
360.88262,1.35104
360.64155,1.34339
360.40048,1.33230
360.15941,1.31740
359.91834,1.30211
359.67727,1.29472
359.43620,1.29996
359.19513,1.31263
358.95406,1.32262
358.71299,1.32505
358.47192,1.32210
358.23085,1.31751
357.98978,1.31434
357.74871,1.31286
357.50764,1.31080
357.26656,1.30749
357.02549,1.30461
356.78442,1.30385
356.54335,1.30464
356.30228,1.30480
356.06121,1.30420
355.82014,1.30564
355.57907,1.31031
355.33800,1.31407
355.09693,1.31134
354.85586,1.30265
354.61479,1.29417
354.37372,1.29123
354.13265,1.29634
353.89158,1.30955
353.65051,1.32517
353.40944,1.33459
353.16837,1.33551
352.92729,1.33120
352.68622,1.32264
352.44515,1.30940
352.20408,1.29500
351.96301,1.28614
351.72194,1.28690
351.48087,1.29472
351.23980,1.30178
350.99873,1.30176
350.75766,1.29562
350.51659,1.28843
350.27552,1.28416
350.03445,1.28423
349.79338,1.28668
349.55231,1.28704
349.31124,1.28485
349.07017,1.28693
348.82910,1.29940
348.58802,1.31829
348.34695,1.33108
348.10588,1.33071
347.86481,1.32310
347.62374,1.31828
347.38267,1.31977
347.14160,1.32312
346.90053,1.32170
346.65946,1.31430
346.41839,1.30597
346.17732,1.30181
345.93625,1.30310
345.69518,1.30938
345.45411,1.31985
345.21304,1.33089
344.97197,1.33893
344.73090,1.34440
344.48983,1.34832
344.24875,1.34948
344.00768,1.34837
343.76661,1.34930
343.52554,1.35285
343.28447,1.35224
343.04340,1.34432
342.80233,1.33616
342.56126,1.33690
342.32019,1.34787
342.07912,1.36201
341.83805,1.37187
341.59698,1.37589
341.35591,1.37718
341.11484,1.37678
340.87377,1.37021
340.63270,1.35568
340.39163,1.34307
340.15056,1.34634
339.90948,1.36789
339.66841,1.39537
339.42734,1.41615
339.18627,1.42971
338.94520,1.44076
338.70413,1.44856
338.46306,1.44888
338.22199,1.44130
337.98092,1.43018
337.73985,1.41864
337.49878,1.40536
337.25771,1.39057
337.01664,1.38018
336.77557,1.38004
336.53450,1.38909
336.29343,1.40085
336.05236,1.40992
335.81129,1.41493
335.57021,1.41597
335.32914,1.41429
335.08807,1.41460
334.84700,1.41797
334.60593,1.41699
334.36486,1.40652
334.12379,1.39289
333.88272,1.38746
333.64165,1.39393
333.40058,1.40437
333.15951,1.40390
332.91844,1.38347
332.67737,1.35229
332.43630,1.33012
332.19523,1.32790
331.95416,1.34181
331.71309,1.36023
331.47202,1.37135
331.23094,1.36926
330.98987,1.35796
330.74880,1.34438
330.50773,1.33122
330.26666,1.31974
330.02559,1.31214
329.78452,1.30997
329.54345,1.31169
329.30238,1.31445
329.06131,1.31843
328.82024,1.32387
328.57917,1.32575
328.33810,1.31886
328.09703,1.30796
327.85596,1.30424
327.61489,1.31021
327.37382,1.31638
327.13275,1.31402
326.89167,1.30379
326.65060,1.29213
326.40953,1.28622
326.16846,1.28895
325.92739,1.29601
325.68632,1.30291
325.44525,1.31035
325.20418,1.31798
324.96311,1.32117
324.72204,1.31928
324.48097,1.31848
324.23990,1.31941
323.99883,1.31470
323.75776,1.30330
323.51669,1.29395
323.27562,1.29158
323.03455,1.29406
322.79348,1.29923
322.55240,1.30578
322.31133,1.31183
322.07026,1.31824
321.82919,1.32915
321.58812,1.34415
321.34705,1.35474
321.10598,1.35251
320.86491,1.33854
320.62384,1.32192
320.38277,1.31320
320.14170,1.31801
319.90063,1.33247
319.65956,1.34569
319.41849,1.34781
319.17742,1.33725
318.93635,1.32308
318.69528,1.31755
318.45421,1.32279
318.21313,1.32863
317.97206,1.32626
317.73099,1.31783
317.48992,1.30912
317.24885,1.30197
317.00778,1.29658
316.76671,1.29420
316.52564,1.29685
316.28457,1.30467
316.04350,1.31540
315.80243,1.32784
315.56136,1.34138
315.32029,1.35033
315.07922,1.34722
314.83815,1.33517
314.59708,1.32625
314.35601,1.32754
314.11494,1.33699
313.87386,1.34890
313.63279,1.35874
313.39172,1.36520
313.15065,1.36974
312.90958,1.37323
312.66851,1.37471
312.42744,1.37603
312.18637,1.38232
311.94530,1.39071
311.70423,1.38907
311.46316,1.37576
311.22209,1.36648
310.98102,1.37031
310.73995,1.37544
310.49888,1.36974
310.25781,1.35899
310.01674,1.35770
309.77567,1.36825
309.53459,1.38101
309.29352,1.39242
309.05245,1.40590
308.81138,1.41777
308.57031,1.42037
308.32924,1.41646
308.08817,1.41220
307.84710,1.40585
307.60603,1.39638
307.36496,1.39013
307.12389,1.39625
306.88282,1.41718
306.64175,1.44161
306.40068,1.45210
306.15961,1.44517
305.91854,1.43402
305.67747,1.42819
305.43640,1.42515
305.19532,1.41934
304.95425,1.40894
304.71318,1.39654
304.47211,1.38650
304.23104,1.38162
303.98997,1.38233
303.74890,1.38715
303.50783,1.39097
303.26676,1.38723
303.02569,1.37681
302.78462,1.36797
302.54355,1.36488
302.30248,1.36235
302.06141,1.35342
301.82034,1.33958
301.57927,1.32821
301.33820,1.32324
301.09713,1.32540
300.85605,1.33457
300.61498,1.34383
300.37391,1.34081
300.13284,1.32464
299.89177,1.30910
299.65070,1.30313
299.40963,1.30274
299.16856,1.30344
298.92749,1.30707
298.68642,1.31423
298.44535,1.31995
298.20428,1.31877
297.96321,1.30883
297.72214,1.29234
297.48107,1.27683
297.24000,1.27079
296.99893,1.27411
296.75786,1.27700
296.51678,1.27262
296.27571,1.26562
296.03464,1.26323
295.79357,1.26404
295.55250,1.26080
295.31143,1.25125
295.07036,1.24153
294.82929,1.23860
294.58822,1.24268
294.34715,1.24761
294.10608,1.24822
293.86501,1.24636
293.62394,1.24740
293.38287,1.25234
293.14180,1.25583
292.90073,1.25243
292.65966,1.24317
292.41859,1.23381
292.17751,1.22860
291.93644,1.22758
291.69537,1.22723
291.45430,1.22336
291.21323,1.21602
290.97216,1.21054
290.73109,1.21098
290.49002,1.21601
290.24895,1.22266
290.00788,1.22838
289.76681,1.22970
289.52574,1.22574
289.28467,1.22127
289.04360,1.22094
288.80253,1.22285
288.56146,1.22136
288.32039,1.21451
288.07932,1.20577
287.83824,1.19914
287.59717,1.19528
287.35610,1.19233
287.11503,1.18918
286.87396,1.18687
286.63289,1.18655
286.39182,1.18724
286.15075,1.18631
285.90968,1.18263
285.66861,1.17858
285.42754,1.17660
285.18647,1.17561
284.94540,1.17291
284.70433,1.16913
284.46326,1.16893
284.22219,1.17494
283.98112,1.18295
283.74005,1.18644
283.49897,1.18509
283.25790,1.18376
283.01683,1.18441
282.77576,1.18518
282.53469,1.18577
282.29362,1.18727
282.05255,1.18799
281.81148,1.18574
281.57041,1.18214
281.32934,1.17966
281.08827,1.17745
280.84720,1.17375
280.60613,1.16955
280.36506,1.16652
280.12399,1.16547
279.88292,1.16826
279.64185,1.17624
279.40078,1.18617
279.15970,1.19299
278.91863,1.19590
278.67756,1.19729
278.43649,1.19681
278.19542,1.19177
277.95435,1.18317
277.71328,1.17607
277.47221,1.17358
277.23114,1.17411
276.99007,1.17474
276.74900,1.17534
276.50793,1.17708
276.26686,1.17893
276.02579,1.17892
275.78472,1.17748
275.54365,1.17679
275.30258,1.17851
275.06151,1.18321
274.82043,1.18936
274.57936,1.19384
274.33829,1.19586
274.09722,1.19769
273.85615,1.19952
273.61508,1.19774
273.37401,1.19145
273.13294,1.18605
272.89187,1.18619
272.65080,1.19004
272.40973,1.19364
272.16866,1.19623
271.92759,1.19915
271.68652,1.20257
271.44545,1.20580
271.20438,1.20862
270.96331,1.21106
270.72224,1.21412
270.48116,1.22002
270.24009,1.22867
269.99902,1.23553
269.75795,1.23690
269.51688,1.23575
269.27581,1.23785
269.03474,1.24338
268.79367,1.24656
268.55260,1.24380
268.31153,1.23949
268.07046,1.24104
267.82939,1.25050
267.58832,1.26298
267.34725,1.27237
267.10618,1.27765
266.86511,1.28305
266.62404,1.29160
266.38297,1.30017
266.14189,1.30421
265.90082,1.30495
265.65975,1.30748
265.41868,1.31437
265.17761,1.32381
264.93654,1.33241
264.69547,1.33848
264.45440,1.34371
264.21333,1.35181
263.97226,1.36442
263.73119,1.37933
263.49012,1.39417
263.24905,1.41010
263.00798,1.42713
262.76691,1.43879
262.52584,1.43912
262.28477,1.43362
262.04370,1.43593
261.80262,1.45467
261.56155,1.48621
261.32048,1.51736
261.07941,1.53738
260.83834,1.54961
260.59727,1.56296
260.35620,1.58119
260.11513,1.60745
259.87406,1.64313
259.63299,1.68211
259.39192,1.71659
259.15085,1.74595
258.90978,1.77357
258.66871,1.79906
258.42764,1.81903
258.18657,1.82892
257.94550,1.82622
257.70443,1.81345
257.46335,1.79622
257.22228,1.77872
256.98121,1.76373
256.74014,1.75702
256.49907,1.76083
256.25800,1.76825
256.01693,1.77162
255.77586,1.77103
255.53479,1.76864
255.29372,1.75880
255.05265,1.73715
254.81158,1.71091
254.57051,1.69067
254.32944,1.68182
254.08837,1.67984
253.84730,1.67338
253.60623,1.66012
253.36516,1.65078
253.12408,1.65001
252.88301,1.64972
252.64194,1.64390
252.40087,1.63707
252.15980,1.63221
251.91873,1.62218
251.67766,1.60465
251.43659,1.58980
251.19552,1.58311
250.95445,1.57956
250.71338,1.57725
250.47231,1.58246
250.23124,1.59619
249.99017,1.60565
249.74910,1.59887
249.50803,1.58021
249.26696,1.56190
249.02589,1.54944
248.78481,1.54396
248.54374,1.54883
248.30267,1.56344
248.06160,1.57731
247.82053,1.58338
247.57946,1.58883
247.33839,1.59940
247.09732,1.60702
246.85625,1.60557
246.61518,1.60412
246.37411,1.61059
246.13304,1.61821
245.89197,1.61913
245.65090,1.62275
245.40983,1.64689
245.16876,1.69152
244.92769,1.73178
244.68661,1.74312
244.44554,1.73642
244.20447,1.74328
243.96340,1.77601
243.72233,1.82360
243.48126,1.87417
243.24019,1.93004
242.99912,1.99492
242.75805,2.05033
242.51698,2.05010
242.27591,1.97998
242.03484,1.88630
241.79377,1.80798
241.55270,1.74692
241.31163,1.68343
241.07056,1.60724
240.82949,1.52776
240.58842,1.46013
240.34734,1.41109
240.10627,1.37454
239.86520,1.33794
239.62413,1.29539
239.38306,1.25313
239.14199,1.22076
238.90092,1.20026
238.65985,1.18512
238.41878,1.16802
238.17771,1.14701
237.93664,1.12420
237.69557,1.10222
237.45450,1.08402
237.21343,1.07211
236.97236,1.06526
236.73129,1.05800
236.49022,1.04589
236.24915,1.03026
236.00807,1.01587
235.76700,1.00561
235.52593,0.99839
235.28486,0.99158
235.04379,0.98454
234.80272,0.97897
234.56165,0.97584
234.32058,0.97377
234.07951,0.97115
233.83844,0.96757
233.59737,0.96268
233.35630,0.95573
233.11523,0.94721
232.87416,0.93903
232.63309,0.93276
232.39202,0.92848
232.15095,0.92512
231.90988,0.92167
231.66880,0.91809
231.42773,0.91473
231.18666,0.91156
230.94559,0.90889
230.70452,0.90761
230.46345,0.90735
230.22238,0.90627
229.98131,0.90363
229.74024,0.90082
229.49917,0.89813
229.25810,0.89361
229.01703,0.88673
228.77596,0.88007
228.53489,0.87651
228.29382,0.87645
228.05275,0.87782
227.81168,0.87770
227.57061,0.87478
227.32953,0.87085
227.08846,0.86885
226.84739,0.86980
226.60632,0.87194
226.36525,0.87267
226.12418,0.87079
225.88311,0.86739
225.64204,0.86448
225.40097,0.86291
225.15990,0.86260
224.91883,0.86376
224.67776,0.86573
224.43669,0.86623
224.19562,0.86465
223.95455,0.86393
223.71348,0.86581
223.47241,0.86751
223.23134,0.86670
222.99026,0.86563
222.74919,0.86703
222.50812,0.87048
222.26705,0.87532
222.02598,0.88263
221.78491,0.89213
221.54384,0.90058
221.30277,0.90542
221.06170,0.90734
220.82063,0.90904
220.57956,0.91281
220.33849,0.91933
220.09742,0.92760
219.85635,0.93628
219.61528,0.94535
219.37421,0.95586
219.13314,0.96775
218.89207,0.97869
218.65099,0.98655
218.40992,0.99283
218.16885,1.00115
217.92778,1.01252
217.68671,1.02521
217.44564,1.03861
217.20457,1.05308
216.96350,1.06693
216.72243,1.07816
216.48136,1.08768
216.24029,1.09685
215.99922,1.10492
215.75815,1.11239
215.51708,1.12252
215.27601,1.13740
215.03494,1.15554
214.79387,1.17369
214.55280,1.18998
214.31172,1.20490
214.07065,1.21921
213.82958,1.23124
213.58851,1.23893
213.34744,1.24457
213.10637,1.25338
212.86530,1.26582
212.62423,1.27535
212.38316,1.27672
212.14209,1.27255
211.90102,1.26992
211.65995,1.27280
211.41888,1.27963
211.17781,1.28674
210.93674,1.29131
210.69567,1.29218
210.45460,1.28984
210.21353,1.28572
209.97245,1.28208
209.73138,1.27986
209.49031,1.27716
209.24924,1.27338
209.00817,1.27192
208.76710,1.27422
208.52603,1.27474
208.28496,1.26715
208.04389,1.25320
207.80282,1.24036
207.56175,1.23305
207.32068,1.22869
207.07961,1.22198
206.83854,1.21269
206.59747,1.20461
206.35640,1.19696
206.11533,1.18505
205.87426,1.16966
205.63318,1.15656
205.39211,1.14703
205.15104,1.13607
204.90997,1.11938
204.66890,1.09867
204.42783,1.08009
204.18676,1.06830
203.94569,1.06256
203.70462,1.05724
203.46355,1.04714
203.22248,1.03274
202.98141,1.01842
202.74034,1.00642
202.49927,0.99523
202.25820,0.98287
202.01713,0.96876
201.77606,0.95305
201.53499,0.93678
201.29391,0.92186
201.05284,0.90917
200.81177,0.89743
200.57070,0.88521
200.32963,0.87301
200.08856,0.86219
199.84749,0.85305
199.60642,0.84492
199.36535,0.83721
199.12428,0.82961
198.88321,0.82134
198.64214,0.81096
198.40107,0.79787
198.16000,0.78421
197.91893,0.77363
197.67786,0.76741
197.43679,0.76263
197.19572,0.75470
196.95464,0.74245
196.71357,0.72982
196.47250,0.72126
196.23143,0.71659
195.99036,0.71197
195.74929,0.70478
195.50822,0.69609
195.26715,0.68814
195.02608,0.68191
194.78501,0.67754
194.54394,0.67458
194.30287,0.67156
194.06180,0.66691
193.82073,0.66059
193.57966,0.65418
193.33859,0.64928
193.09752,0.64582
192.85645,0.64203
192.61537,0.63654
192.37430,0.63002
192.13323,0.62416
191.89216,0.61982
191.65109,0.61691
191.41002,0.61488
191.16895,0.61270
190.92788,0.60943
190.68681,0.60548
190.44574,0.60227
190.20467,0.60029
189.96360,0.59851
189.72253,0.59625
189.48146,0.59436
189.24039,0.59341
188.99932,0.59220
188.75825,0.58926
188.51718,0.58549
188.27610,0.58279
188.03503,0.58099
187.79396,0.57856
187.55289,0.57545
187.31182,0.57320
187.07075,0.57265
186.82968,0.57306
186.58861,0.57348
186.34754,0.57386
186.10647,0.57431
185.86540,0.57372
185.62433,0.57071
185.38326,0.56637
185.14219,0.56369
184.90112,0.56390
184.66005,0.56600
184.41898,0.56916
184.17791,0.57294
183.93683,0.57593
183.69576,0.57690
183.45469,0.57649
183.21362,0.57640
182.97255,0.57775
182.73148,0.58055
182.49041,0.58385
182.24934,0.58672
182.00827,0.58933
181.76720,0.59211
181.52613,0.59426
181.28506,0.59429
181.04399,0.59204
180.80292,0.58916
180.56185,0.58759
180.32078,0.58817
180.07971,0.59080
179.83864,0.59496
179.59756,0.60021
179.35649,0.60623
179.11542,0.61228
178.87435,0.61771
178.63328,0.62344
178.39221,0.63121
178.15114,0.64072
177.91007,0.64980
177.66900,0.65785
177.42793,0.66602
177.18686,0.67483
176.94579,0.68468
176.70472,0.69740
176.46365,0.71382
176.22258,0.73187
175.98151,0.74942
175.74044,0.76673
175.49937,0.78450
175.25829,0.80204
175.01722,0.81890
174.77615,0.83576
174.53508,0.85280
174.29401,0.86936
174.05294,0.88579
173.81187,0.90301
173.57080,0.91937
173.32973,0.93164
173.08866,0.94019
172.84759,0.94891
172.60652,0.95891
172.36545,0.96726
172.12438,0.97228
171.88331,0.97559
171.64224,0.97826
171.40117,0.97892
171.16010,0.97638
170.91902,0.97178
170.67795,0.96739
170.43688,0.96410
170.19581,0.96061
169.95474,0.95450
169.71367,0.94394
169.47260,0.92982
169.23153,0.91640
168.99046,0.90805
168.74939,0.90510
168.50832,0.90439
168.26725,0.90352
168.02618,0.90248
167.78511,0.90151
167.54404,0.90000
167.30297,0.89799
167.06190,0.89695
166.82083,0.89822
166.57975,0.90137
166.33868,0.90516
166.09761,0.90972
165.85654,0.91673
165.61547,0.92696
165.37440,0.93837
165.13333,0.94758
164.89226,0.95261
164.65119,0.95393
164.41012,0.95335
164.16905,0.95304
163.92798,0.95540
163.68691,0.96191
163.44584,0.97227
163.20477,0.98510
162.96370,0.99861
162.72263,1.01034
162.48156,1.01801
162.24048,1.02128
161.99941,1.02164
161.75834,1.02133
161.51727,1.02306
161.27620,1.02864
161.03513,1.03663
160.79406,1.04259
160.55299,1.04272
160.31192,1.03696
160.07085,1.02839
159.82978,1.01980
159.58871,1.01225
159.34764,1.00692
159.10657,1.00578
158.86550,1.00821
158.62443,1.00920
158.38336,1.00374
158.14229,0.99229
157.90121,0.97968
157.66014,0.97027
157.41907,0.96458
157.17800,0.96000
156.93693,0.95465
156.69586,0.94958
156.45479,0.94583
156.21372,0.94163
155.97265,0.93488
155.73158,0.92641
155.49051,0.91844
155.24944,0.91170
155.00837,0.90501
154.76730,0.89609
154.52623,0.88338
154.28516,0.86842
154.04409,0.85522
153.80302,0.84544
153.56194,0.83543
153.32087,0.82065
153.07980,0.80188
152.83873,0.78395
152.59766,0.76934
152.35659,0.75642
152.11552,0.74342
151.87445,0.73081
151.63338,0.71855
151.39231,0.70433
151.15124,0.68711
150.91017,0.66987
150.66910,0.65625
150.42803,0.64637
150.18696,0.63709
149.94589,0.62557
149.70482,0.61197
149.46375,0.59918
149.22267,0.58989
148.98160,0.58395
148.74053,0.57873
148.49946,0.57205
148.25839,0.56417
148.01732,0.55706
147.77625,0.55205
147.53518,0.54853
147.29411,0.54498
147.05304,0.54163
146.81197,0.54077
146.57090,0.54390
146.32983,0.54948
146.08876,0.55454
145.84769,0.55770
145.60662,0.55994
145.36555,0.56317
145.12448,0.56848
144.88340,0.57515
144.64233,0.58098
144.40126,0.58421
144.16019,0.58497
143.91912,0.58434
143.67805,0.58278
143.43698,0.58039
143.19591,0.57744
142.95484,0.57378
142.71377,0.56866
142.47270,0.56168
142.23163,0.55344
141.99056,0.54486
141.74949,0.53643
141.50842,0.52826
141.26735,0.52070
141.02628,0.51465
140.78521,0.51067
140.54413,0.50834
140.30306,0.50699
140.06199,0.50643
139.82092,0.50637
139.57985,0.50667
139.33878,0.50821
139.09771,0.51187
138.85664,0.51676
138.61557,0.52128
138.37450,0.52580
138.13343,0.53228
137.89236,0.54167
137.65129,0.55298
137.41022,0.56470
137.16915,0.57661
136.92808,0.59031
136.68701,0.60774
136.44594,0.62877
136.20486,0.65061
135.96379,0.67057
135.72272,0.68922
135.48165,0.70990
135.24058,0.73522
134.99951,0.76516
134.75844,0.79781
134.51737,0.83089
134.27630,0.86276
134.03523,0.89286
133.79416,0.92185
133.55309,0.95140
133.31202,0.98321
133.07095,1.01608
132.82988,1.04433
132.58881,1.06454
132.34774,1.08223
132.10667,1.10357
131.86559,1.12416
131.62452,1.13539
131.38345,1.13770
131.14238,1.13694
130.90131,1.13427
130.66024,1.12753
130.41917,1.11531
130.17810,1.09609
129.93703,1.06972
129.69596,1.03954
129.45489,1.00913
129.21382,0.97893
128.97275,0.94769
128.73168,0.91404
128.49061,0.87633
128.24954,0.83505
128.00847,0.79487
127.76740,0.76135
127.52632,0.73533
127.28525,0.71222
127.04418,0.68733
126.80311,0.66092
126.56204,0.63666
126.32097,0.61654
126.07990,0.59950
125.83883,0.58345
125.59776,0.56755
125.35669,0.55266
125.11562,0.53993
124.87455,0.52926
124.63348,0.51938
124.39241,0.50923
124.15134,0.49862
123.91027,0.48799
123.66920,0.47810
123.42812,0.46955
123.18705,0.46221
122.94598,0.45573
122.70491,0.45032
122.46384,0.44665
122.22277,0.44473
121.98170,0.44381
121.74063,0.44353
121.49956,0.44470
121.25849,0.44797
121.01742,0.45261
120.77635,0.45749
120.53528,0.46287
120.29421,0.47007
120.05314,0.47988
119.81207,0.49185
119.57100,0.50502
119.32993,0.51939
119.08885,0.53661
118.84778,0.55850
118.60671,0.58509
118.36564,0.61469
118.12457,0.64582
117.88350,0.67811
117.64243,0.71115
117.40136,0.74270
117.16029,0.76822
116.91922,0.78365
116.67815,0.78958
116.43708,0.79016
116.19601,0.78765
115.95494,0.78107
115.71387,0.77005
115.47280,0.75582
115.23173,0.73890
114.99066,0.71977
114.74958,0.70098
114.50851,0.68591
114.26744,0.67590
114.02637,0.66984
113.78530,0.66621
113.54423,0.66469
113.30316,0.66594
113.06209,0.67009
112.82102,0.67543
112.57995,0.67862
112.33888,0.67772
112.09781,0.67473
111.85674,0.67339
111.61567,0.67548
111.37460,0.68071
111.13353,0.68865
110.89246,0.69844
110.65139,0.70707
110.41031,0.71007
110.16924,0.70491
109.92817,0.69284
109.68710,0.67682
109.44603,0.65907
109.20496,0.64126
108.96389,0.62478
108.72282,0.61016
108.48175,0.59724
108.24068,0.58545
107.99961,0.57287
107.75854,0.55682
107.51747,0.53715
107.27640,0.51684
107.03533,0.49878
106.79426,0.48363
106.55319,0.47066
106.31212,0.45898
106.07104,0.44776
105.82997,0.43594
105.58890,0.42275
105.34783,0.40879
105.10676,0.39596
104.86569,0.38573
104.62462,0.37830
104.38355,0.37265
104.14248,0.36641
103.90141,0.35700
103.66034,0.34428
103.41927,0.33141
103.17820,0.32206
102.93713,0.31734
102.69606,0.31523
102.45499,0.31259
102.21392,0.30770
101.97285,0.30115
101.73177,0.29441
101.49070,0.28872
101.24963,0.28503
101.00856,0.28339
100.76749,0.28194
100.52642,0.27772
100.28535,0.27001
100.04428,0.26221
99.80321,0.25851
99.56214,0.25945
99.32107,0.26138
99.08000,0.25982
98.83893,0.25419
98.59786,0.24861
98.35679,0.24751
98.11572,0.25120
97.87465,0.25536
97.63358,0.25523
97.39250,0.25135
97.15143,0.24922
96.91036,0.25257
96.66929,0.25893
96.42822,0.26319
96.18715,0.26465
95.94608,0.26727
95.70501,0.27353
95.46394,0.28140
95.22287,0.28767
94.98180,0.29282
94.74073,0.29970
94.49966,0.30730
94.25859,0.31103
94.01752,0.31063
93.77645,0.31107
93.53538,0.31389
93.29431,0.31521
93.05323,0.31321
92.81216,0.31123
92.57109,0.31182
92.33002,0.31291
92.08895,0.31118
91.84788,0.30816
91.60681,0.30960
91.36574,0.31737
91.12467,0.32712
90.88360,0.33700
90.64253,0.35197
90.40146,0.37548
90.16039,0.40494
89.91932,0.43842
89.67825,0.47736
89.43718,0.52066
89.19611,0.56510
88.95504,0.61071
88.71396,0.65588
88.47289,0.68988
88.23182,0.70140
87.99075,0.69100
87.74968,0.66525
87.50861,0.62946
87.26754,0.59013
87.02647,0.55322
86.78540,0.51881
86.54433,0.48410
86.30326,0.45026
86.06219,0.42051
85.82112,0.39443
85.58005,0.36991
85.33898,0.34756
85.09791,0.32895
84.85684,0.31310
84.61577,0.29790
84.37469,0.28289
84.13362,0.26900
83.89255,0.25690
83.65148,0.24674
83.41041,0.23864
83.16934,0.23228
82.92827,0.22632
82.68720,0.21977
82.44613,0.21330
82.20506,0.20806
81.96399,0.20392
81.72292,0.20033
81.48185,0.19735
81.24078,0.19505
80.99971,0.19284
80.75864,0.19022
80.51757,0.18733
80.27650,0.18456
80.03542,0.18207
79.79435,0.17958
79.55328,0.17707
79.31221,0.17523
79.07114,0.17467
78.83007,0.17481
78.58900,0.17428
78.34793,0.17219
78.10686,0.16824
77.86579,0.16260
77.62472,0.15640
77.38365,0.15174
77.14258,0.15012
76.90151,0.15071
76.66044,0.15113
76.41937,0.15005
76.17830,0.14808
75.93723,0.14599
75.69615,0.14388
75.45508,0.14206
75.21401,0.14093
74.97294,0.13986
74.73187,0.13803
74.49080,0.13619
74.24973,0.13598
74.00866,0.13781
73.76759,0.14047
73.52652,0.14250
73.28545,0.14316
73.04438,0.14267
72.80331,0.14243
72.56224,0.14387
72.32117,0.14687
72.08010,0.14973
71.83903,0.15088
71.59796,0.14987
71.35688,0.14739
71.11581,0.14486
70.87474,0.14414
70.63367,0.14697
70.39260,0.15450
70.15153,0.16710
69.91046,0.18381
69.66939,0.20203
69.42832,0.21787
69.18725,0.22740
68.94618,0.22847
68.70511,0.22157
68.46404,0.20887
68.22297,0.19338
67.98190,0.17860
67.74083,0.16723
67.49976,0.15940
67.25869,0.15280
67.01761,0.14522
66.77654,0.13631
66.53547,0.12704
66.29440,0.11877
66.05333,0.11315
65.81226,0.11150
65.57119,0.11388
65.33012,0.11973
65.08905,0.12901
64.84798,0.14139
64.60691,0.15489
64.36584,0.16685
64.12477,0.17540
63.88370,0.17940
63.64263,0.17857
63.40156,0.17430
63.16049,0.16831
62.91942,0.16114
62.67834,0.15284
62.43727,0.14411
62.19620,0.13630
61.95513,0.13053
61.71406,0.12684
61.47299,0.12419
61.23192,0.12155
60.99085,0.11843
60.74978,0.11451
60.50871,0.11000
60.26764,0.10636
60.02657,0.10533
59.78550,0.10686
59.54443,0.10855
59.30336,0.10790
59.06229,0.10515
58.82122,0.10316
58.58015,0.10451
58.33907,0.10963
58.09800,0.11762
57.85693,0.12772
57.61586,0.13942
57.37479,0.15093
57.13372,0.15754
56.89265,0.15380
56.65158,0.13922
56.41051,0.11897
56.16944,0.09918
55.92837,0.08424
55.68730,0.07683
55.44623,0.07797
55.20516,0.08735
54.96409,0.10385
54.72302,0.12495
54.48195,0.14376
54.24088,0.14892
53.99980,0.13581
53.75873,0.11402
53.51766,0.09665
53.27659,0.09155
53.03552,0.10074
52.79445,0.12112
52.55338,0.14447
52.31231,0.15774
52.07124,0.15015
51.83017,0.12589
51.58910,0.10125
51.34803,0.09010
51.10696,0.09728
50.86589,0.11716
50.62482,0.13111
50.38375,0.11947
50.14268,0.09061
49.90161,0.07106
49.66053,0.07765
49.41946,0.10884
49.17839,0.13597
48.93732,0.12294
48.69625,0.09096
48.45518,0.08233
48.21411,0.10522
47.97304,0.13212
47.73197,0.12630
47.49090,0.09999
47.24983,0.08922
47.00876,0.09785
46.76769,0.10039
46.52662,0.08319
46.28555,0.06797
46.04448,0.06981
45.80341,0.07394
45.56234,0.06797
45.32126,0.06864
45.08019,0.08461
44.83912,0.09421
44.59805,0.08349
44.35698,0.07208
44.11591,0.07207
43.87484,0.07501
43.63377,0.07552
43.39270,0.07772
43.15163,0.08097
42.91056,0.08276
42.66949,0.08597
42.42842,0.08941
42.18735,0.08549
41.94628,0.07558
41.70521,0.07260
41.46414,0.08126
41.22307,0.09046
40.98199,0.09085
40.74092,0.08787
40.49985,0.08915
40.25878,0.09313
40.01771,0.09609
39.77664,0.09982
39.53557,0.10713
39.29450,0.11769
39.05343,0.12975
38.81236,0.14219
38.57129,0.15460
38.33022,0.16483
38.08915,0.16821
37.84808,0.16187
37.60701,0.14798
37.36594,0.13322
37.12487,0.12497
36.88380,0.12528
36.64272,0.12998
36.40165,0.13357
36.16058,0.13336
35.91951,0.12936
35.67844,0.12488
35.43737,0.12494
35.19630,0.12983
34.95523,0.13399
34.71416,0.13340
34.47309,0.12910
34.23202,0.12363
33.99095,0.11850
33.74988,0.11302
33.50881,0.10672
33.26774,0.10526
33.02667,0.11499
32.78560,0.13039
32.54453,0.13916
32.30345,0.13685
32.06238,0.12920
31.82131,0.12120
31.58024,0.10774
31.33917,0.08430
31.09810,0.05756
30.85703,0.03559
30.61596,0.01696
30.37489,-0.00255
30.13382,-0.02084
29.89275,-0.03451
29.65168,-0.04450
29.41061,-0.05312
29.16954,-0.06014
28.92847,-0.06344
28.68740,-0.06380
28.44633,-0.06701
28.20526,-0.07647
27.96418,-0.08770
27.72311,-0.09321
27.48204,-0.09084
27.24097,-0.08634
26.99990,-0.08647
26.75883,-0.09166
26.51776,-0.09834
26.27669,-0.10661
26.03562,-0.12286
25.79455,-0.15338
25.55348,-0.19300
25.31241,-0.22564
25.07134,-0.23884
24.83027,-0.23252
24.58920,-0.21801
24.34813,-0.20496
24.10706,-0.19972
23.86599,-0.20687
23.62491,-0.21765
23.38384,-0.21773
23.14277,-0.21004
22.90170,-0.21256
22.66063,-0.23012
22.41956,-0.24911
22.17849,-0.25453
21.93742,-0.24513
21.69635,-0.23585
21.45528,-0.24247
21.21421,-0.26436
20.97314,-0.28741
20.73207,-0.29438
20.49100,-0.28155
20.24993,-0.26517
20.00886,-0.26430
19.76779,-0.28079
19.52672,-0.29688
19.28564,-0.29735
19.04457,-0.28928
18.80350,-0.28745
18.56243,-0.29536
18.32136,-0.30390
18.08029,-0.29952
17.83922,-0.28022
17.59815,-0.26238
17.35708,-0.26170
17.11601,-0.27295
16.87494,-0.27675
16.63387,-0.26737
16.39280,-0.25739
16.15173,-0.25040
15.91066,-0.23537
15.66959,-0.20924
15.42852,-0.18606
15.18745,-0.18067
14.94637,-0.19423
14.70530,-0.21449
14.46423,-0.22618
14.22316,-0.22493
13.98209,-0.22061
13.74102,-0.22490
13.49995,-0.24218
13.25888,-0.26808
13.01781,-0.29432
12.77674,-0.31595
12.53567,-0.32475
12.29460,-0.31722
12.05353,-0.31048
11.81246,-0.32210
11.57139,-0.34692
11.33032,-0.36878
11.08925,-0.37833
10.84818,-0.37326
10.60710,-0.35331
10.36603,-0.31773
10.12496,-0.27615
9.88389,-0.24690
9.64282,-0.23830
9.40175,-0.24223
9.16068,-0.24807
8.91961,-0.25177
8.67854,-0.25244
8.43747,-0.25213
8.19640,-0.25538
7.95533,-0.26048
7.71426,-0.25697
7.47319,-0.24893
7.23212,-0.25313
6.99105,-0.27081
6.74998,-0.28920
6.50891,-0.30011
6.26783,-0.30602
6.02676,-0.31261
5.78569,-0.31524
5.54462,-0.30830
5.30355,-0.30114
5.06248,-0.30092
4.82141,-0.30064
4.58034,-0.30072
4.33927,-0.30640
4.09820,-0.30209
3.85713,-0.28214
3.61606,-0.26394
3.37499,-0.25757
3.13392,-0.26794
2.89285,-0.29338
2.65178,-0.31620
2.41071,-0.32129
2.16964,-0.31221
1.92856,-0.29068
1.68749,-0.26061
1.44642,-0.24425
1.20535,-0.25053
0.96428,-0.26668
0.72321,-0.30922
0.48214,-0.40681
0.24107,-0.42860
-0.00000,-0.32185
