399.69498,1.61471
399.45391,1.59886
399.21284,1.58479
398.97177,1.58046
398.73070,1.59221
398.48963,1.61693
398.24856,1.64115
398.00749,1.64967
397.76642,1.63419
397.52535,1.60127
397.28428,1.57329
397.04321,1.56930
396.80214,1.58985
396.56107,1.61938
396.32000,1.64193
396.07892,1.65453
395.83785,1.66212
395.59678,1.66704
395.35571,1.66750
395.11464,1.66249
394.87357,1.65078
394.63250,1.62698
394.39143,1.59423
394.15036,1.57605
393.90929,1.59670
393.66822,1.65204
393.42715,1.69600
393.18608,1.67633
392.94501,1.60967
392.70394,1.55340
392.46287,1.53491
392.22180,1.55173
391.98073,1.58811
391.73965,1.61813
391.49858,1.61888
391.25751,1.59610
391.01644,1.57397
390.77537,1.56417
390.53430,1.56427
390.29323,1.56756
390.05216,1.56088
389.81109,1.53971
389.57002,1.51712
389.32895,1.50548
389.08788,1.50407
388.84681,1.50570
388.60574,1.51107
388.36467,1.52741
388.12360,1.55655
387.88253,1.58760
387.64146,1.60422
387.40038,1.60703
387.15931,1.61068
386.91824,1.60874
386.67717,1.57582
386.43610,1.52001
386.19503,1.48195
385.95396,1.47980
385.71289,1.49543
385.47182,1.50388
385.23075,1.50275
384.98968,1.49461
384.74861,1.47399
384.50754,1.45219
384.26647,1.45015
384.02540,1.46469
383.78433,1.46911
383.54326,1.45404
383.30219,1.43335
383.06111,1.41352
382.82004,1.39263
382.57897,1.37344
382.33790,1.35939
382.09683,1.34761
381.85576,1.34144
381.61469,1.35295
381.37362,1.38612
381.13255,1.42602
380.89148,1.43968
380.65041,1.40117
380.40934,1.33152
380.16827,1.28213
379.92720,1.27889
379.68613,1.30688
379.44506,1.32924
379.20399,1.32393
378.96292,1.30284
378.72184,1.28567
378.48077,1.27894
378.23970,1.28686
377.99863,1.31904
377.75756,1.37691
377.51649,1.44329
377.27542,1.49395
377.03435,1.51493
376.79328,1.51324
376.55221,1.50910
376.31114,1.51606
376.07007,1.53407
375.82900,1.55146
375.58793,1.55613
375.34686,1.54490
375.10579,1.52147
374.86472,1.49289
374.62365,1.46960
374.38257,1.46832
374.14150,1.50123
373.90043,1.55555
373.65936,1.59173
373.41829,1.58346
373.17722,1.55273
372.93615,1.53313
372.69508,1.52882
372.45401,1.52069
372.21294,1.49585
371.97187,1.46677
371.73080,1.45563
371.48973,1.46927
371.24866,1.49439
371.00759,1.51073
370.76652,1.50954
370.52545,1.49544
370.28437,1.47857
370.04330,1.46207
369.80223,1.44265
369.56116,1.42650
369.32009,1.42629
369.07902,1.44259
368.83795,1.45748
368.59688,1.45474
368.35581,1.44068
368.11474,1.43430
367.87367,1.44350
367.63260,1.45688
367.39153,1.46111
367.15046,1.45951
366.90939,1.46148
366.66832,1.46654
366.42725,1.46782
366.18618,1.46557
365.94510,1.46355
365.70403,1.45562
365.46296,1.43387
365.22189,1.40656
364.98082,1.39405
364.73975,1.40967
364.49868,1.44631
364.25761,1.47536
364.01654,1.46882
363.77547,1.43034
363.53440,1.39182
363.29333,1.37944
363.05226,1.39458
362.81119,1.41897
362.57012,1.43211
362.32905,1.42841
362.08798,1.41840
361.84691,1.40985
361.60583,1.39787
361.36476,1.37713
361.12369,1.35300
360.88262,1.33875
360.64155,1.34167
360.40048,1.35341
360.15941,1.35876
359.91834,1.35491
359.67727,1.35316
359.43620,1.36059
359.19513,1.37148
358.95406,1.37841
358.71299,1.38186
358.47192,1.38452
358.23085,1.38258
357.98978,1.37182
357.74871,1.35938
357.50764,1.35720
357.26656,1.36631
357.02549,1.37716
356.78442,1.38364
356.54335,1.38691
356.30228,1.38667
356.06121,1.37938
355.82014,1.36520
355.57907,1.34861
355.33800,1.33439
355.09693,1.32892
354.85586,1.33923
354.61479,1.36441
354.37372,1.39151
354.13265,1.40596
353.89158,1.40346
353.65051,1.38781
353.40944,1.36589
353.16837,1.34797
352.92729,1.34107
352.68622,1.34197
352.44515,1.34568
352.20408,1.35604
351.96301,1.37460
351.72194,1.38725
351.48087,1.38251
351.23980,1.36976
350.99873,1.36118
350.75766,1.35771
350.51659,1.35581
350.27552,1.35625
350.03445,1.36085
349.79338,1.36537
349.55231,1.36390
349.31124,1.35993
349.07017,1.36201
348.82910,1.37034
348.58802,1.37825
348.34695,1.38572
348.10588,1.39758
347.86481,1.40585
347.62374,1.39625
347.38267,1.37812
347.14160,1.37621
346.90053,1.39167
346.65946,1.39804
346.41839,1.38264
346.17732,1.36378
345.93625,1.35806
345.69518,1.36350
345.45411,1.37360
345.21304,1.38663
344.97197,1.39876
344.73090,1.40520
344.48983,1.40290
344.24875,1.38900
344.00768,1.37024
343.76661,1.36145
343.52554,1.37166
343.28447,1.39982
343.04340,1.43776
342.80233,1.47108
342.56126,1.48324
342.32019,1.47056
342.07912,1.45042
341.83805,1.44406
341.59698,1.46052
341.35591,1.49364
341.11484,1.52108
340.87377,1.52288
340.63270,1.50400
340.39163,1.47942
340.15056,1.45557
339.90948,1.43640
339.66841,1.42901
339.42734,1.43817
339.18627,1.46183
338.94520,1.48958
338.70413,1.50575
338.46306,1.50417
338.22199,1.49737
337.98092,1.49997
337.73985,1.50675
337.49878,1.49948
337.25771,1.47795
337.01664,1.46502
336.77557,1.47833
336.53450,1.51253
336.29343,1.54732
336.05236,1.56777
335.81129,1.57109
335.57021,1.55165
335.32914,1.50586
335.08807,1.45185
334.84700,1.41276
334.60593,1.39908
334.36486,1.41331
334.12379,1.45339
333.88272,1.50525
333.64165,1.53747
333.40058,1.53231
333.15951,1.51522
332.91844,1.50248
332.67737,1.48475
332.43630,1.44932
332.19523,1.40212
331.95416,1.36691
331.71309,1.35663
331.47202,1.36506
331.23094,1.37929
330.98987,1.39272
330.74880,1.40174
330.50773,1.40504
330.26666,1.41517
330.02559,1.43804
329.78452,1.45332
329.54345,1.43821
329.30238,1.41019
329.06131,1.40515
328.82024,1.42963
328.57917,1.46125
328.33810,1.47712
328.09703,1.47583
327.85596,1.46787
327.61489,1.45429
327.37382,1.43509
327.13275,1.41289
326.89167,1.39154
326.65060,1.37991
326.40953,1.38331
326.16846,1.39488
325.92739,1.40230
325.68632,1.40004
325.44525,1.39547
325.20418,1.39466
324.96311,1.38772
324.72204,1.37865
324.48097,1.38976
324.23990,1.42229
323.99883,1.43965
323.75776,1.42617
323.51669,1.41139
323.27562,1.41209
323.03455,1.42593
322.79348,1.43920
322.55240,1.43904
322.31133,1.42598
322.07026,1.41092
321.82919,1.39685
321.58812,1.38007
321.34705,1.36275
321.10598,1.34532
320.86491,1.33212
320.62384,1.33329
320.38277,1.35260
320.14170,1.38532
319.90063,1.42674
319.65956,1.46916
319.41849,1.49356
319.17742,1.48169
318.93635,1.44166
318.69528,1.39660
318.45421,1.36206
318.21313,1.34127
317.97206,1.32839
317.73099,1.32105
317.48992,1.32395
317.24885,1.34059
317.00778,1.36911
316.76671,1.40584
316.52564,1.43957
316.28457,1.45135
316.04350,1.43962
315.80243,1.42435
315.56136,1.41460
315.32029,1.40209
315.07922,1.39303
314.83815,1.40400
314.59708,1.43232
314.35601,1.44995
314.11494,1.43198
313.87386,1.39513
313.63279,1.37615
313.39172,1.38181
313.15065,1.39643
312.90958,1.41221
312.66851,1.43500
312.42744,1.46536
312.18637,1.49086
311.94530,1.50012
311.70423,1.49935
311.46316,1.49309
311.22209,1.47302
310.98102,1.44775
310.73995,1.44318
310.49888,1.47020
310.25781,1.51496
310.01674,1.54795
309.77567,1.54395
309.53459,1.50315
309.29352,1.45516
309.05245,1.42659
308.81138,1.41778
308.57031,1.41958
308.32924,1.43729
308.08817,1.47516
307.84710,1.50969
307.60603,1.51558
307.36496,1.50446
307.12389,1.49331
306.88282,1.47935
306.64175,1.45799
306.40068,1.43396
306.15961,1.41650
305.91854,1.42002
305.67747,1.44896
305.43640,1.48637
305.19532,1.50415
304.95425,1.49317
304.71318,1.47080
304.47211,1.45388
304.23104,1.44742
303.98997,1.45041
303.74890,1.45518
303.50783,1.45100
303.26676,1.43839
303.02569,1.42908
302.78462,1.42789
302.54355,1.42812
302.30248,1.42838
302.06141,1.43711
301.82034,1.45374
301.57927,1.45811
301.33820,1.43898
301.09713,1.41608
300.85605,1.41106
300.61498,1.42355
300.37391,1.43385
300.13284,1.42744
299.89177,1.41407
299.65070,1.40921
299.40963,1.40901
299.16856,1.40108
298.92749,1.38610
298.68642,1.37263
298.44535,1.37020
298.20428,1.38442
297.96321,1.40862
297.72214,1.42248
297.48107,1.40995
297.24000,1.37974
296.99893,1.35274
296.75786,1.34033
296.51678,1.34183
296.27571,1.35089
296.03464,1.35900
295.79357,1.35771
295.55250,1.34351
295.31143,1.32249
295.07036,1.30634
294.82929,1.30271
294.58822,1.31312
294.34715,1.33179
294.10608,1.34226
293.86501,1.33333
293.62394,1.31339
293.38287,1.29790
293.14180,1.29671
292.90073,1.30598
292.65966,1.31122
292.41859,1.30402
292.17751,1.29175
291.93644,1.28555
291.69537,1.28591
291.45430,1.28436
291.21323,1.27640
290.97216,1.26712
290.73109,1.26156
290.49002,1.25822
290.24895,1.25640
290.00788,1.25919
289.76681,1.26734
289.52574,1.27663
289.28467,1.28031
289.04360,1.27412
288.80253,1.26050
288.56146,1.24709
288.32039,1.24036
288.07932,1.24095
287.83824,1.24258
287.59717,1.23838
287.35610,1.22975
287.11503,1.22515
286.87396,1.22812
286.63289,1.23103
286.39182,1.22839
286.15075,1.22680
285.90968,1.23245
285.66861,1.23977
285.42754,1.23944
285.18647,1.23074
284.94540,1.22093
284.70433,1.21609
284.46326,1.21679
284.22219,1.21901
283.98112,1.21851
283.74005,1.21474
283.49897,1.20904
283.25790,1.20254
283.01683,1.19891
282.77576,1.20341
282.53469,1.21504
282.29362,1.22454
282.05255,1.22544
281.81148,1.22284
281.57041,1.22430
281.32934,1.22846
281.08827,1.22862
280.84720,1.22405
280.60613,1.22184
280.36506,1.22770
280.12399,1.23947
279.88292,1.25010
279.64185,1.25475
279.40078,1.25377
279.15970,1.25034
278.91863,1.24750
278.67756,1.24665
278.43649,1.24543
278.19542,1.24083
277.95435,1.23525
277.71328,1.23283
277.47221,1.23302
277.23114,1.23198
276.99007,1.22869
276.74900,1.22624
276.50793,1.22634
276.26686,1.22552
276.02579,1.21913
275.78472,1.20861
275.54365,1.20153
275.30258,1.20311
275.06151,1.21000
274.82043,1.21352
274.57936,1.21004
274.33829,1.20534
274.09722,1.20650
273.85615,1.21398
273.61508,1.22385
273.37401,1.23368
273.13294,1.24270
272.89187,1.24825
272.65080,1.24855
272.40973,1.24732
272.16866,1.24858
271.92759,1.24975
271.68652,1.24686
271.44545,1.24439
271.20438,1.25048
270.96331,1.26271
270.72224,1.26898
270.48116,1.26411
270.24009,1.25631
269.99902,1.25497
269.75795,1.26176
269.51688,1.27334
269.27581,1.28605
269.03474,1.29695
268.79367,1.30322
268.55260,1.30338
268.31153,1.29888
268.07046,1.29453
267.82939,1.29420
267.58832,1.29700
267.34725,1.30153
267.10618,1.31055
266.86511,1.32672
266.62404,1.34616
266.38297,1.36124
266.14189,1.36853
265.90082,1.37046
265.65975,1.37018
265.41868,1.36741
265.17761,1.36254
264.93654,1.36074
264.69547,1.36579
264.45440,1.37583
264.21333,1.39068
263.97226,1.41048
263.73119,1.42671
263.49012,1.43159
263.24905,1.43257
263.00798,1.44263
262.76691,1.46408
262.52584,1.49107
262.28477,1.52039
262.04370,1.55132
261.80262,1.58032
261.56155,1.60237
261.32048,1.61362
261.07941,1.61166
260.83834,1.60573
260.59727,1.61545
260.35620,1.64261
260.11513,1.67042
259.87406,1.68479
259.63299,1.68586
259.39192,1.69214
259.15085,1.71899
258.90978,1.76172
258.66871,1.81225
258.42764,1.87485
258.18657,1.94182
257.94550,1.97302
257.70443,1.94619
257.46335,1.89591
257.22228,1.86945
256.98121,1.88430
256.74014,1.91633
256.49907,1.92641
256.25800,1.90407
256.01693,1.87199
255.77586,1.86641
255.53479,1.90539
255.29372,1.95407
255.05265,1.94992
254.81158,1.90044
254.57051,1.86018
254.32944,1.84512
254.08837,1.84219
253.84730,1.83452
253.60623,1.80645
253.36516,1.77245
253.12408,1.75899
252.88301,1.76505
252.64194,1.76562
252.40087,1.73943
252.15980,1.69110
251.91873,1.64448
251.67766,1.61561
251.43659,1.60722
251.19552,1.61580
250.95445,1.63315
250.71338,1.64796
250.47231,1.65418
250.23124,1.65658
249.99017,1.66198
249.74910,1.67079
249.50803,1.67837
249.26696,1.67803
249.02589,1.66942
248.78481,1.65918
248.54374,1.65279
248.30267,1.65076
248.06160,1.65056
247.82053,1.65342
247.57946,1.66592
247.33839,1.69342
247.09732,1.72942
246.85625,1.75897
246.61518,1.76008
246.37411,1.72410
246.13304,1.68352
245.89197,1.66392
245.65090,1.67001
245.40983,1.69281
245.16876,1.71263
244.92769,1.72113
244.68661,1.73294
244.44554,1.76534
244.20447,1.81953
243.96340,1.87328
243.72233,1.89582
243.48126,1.89637
243.24019,1.91923
242.99912,1.97702
242.75805,2.02576
242.51698,2.01088
242.27591,1.95750
242.03484,1.89996
241.79377,1.83236
241.55270,1.74282
241.31163,1.63764
241.07056,1.53839
240.82949,1.46558
240.58842,1.41864
240.34734,1.38286
240.10627,1.34874
239.86520,1.31586
239.62413,1.28554
239.38306,1.25935
239.14199,1.24051
238.90092,1.22867
238.65985,1.21894
238.41878,1.20693
238.17771,1.19042
237.93664,1.16857
237.69557,1.14349
237.45450,1.11993
237.21343,1.10187
236.97236,1.09114
236.73129,1.08734
236.49022,1.08611
236.24915,1.07992
236.00807,1.06436
235.76700,1.04320
235.52593,1.02465
235.28486,1.01387
235.04379,1.00940
234.80272,1.00309
234.56165,0.98649
234.32058,0.96315
234.07951,0.94614
233.83844,0.94350
233.59737,0.95139
233.35630,0.95835
233.11523,0.95692
232.87416,0.95100
232.63309,0.94903
232.39202,0.95262
232.15095,0.95626
231.90988,0.95622
231.66880,0.95341
231.42773,0.94773
231.18666,0.93840
230.94559,0.92935
230.70452,0.92616
230.46345,0.92869
230.22238,0.93088
229.98131,0.92931
229.74024,0.92660
229.49917,0.92483
229.25810,0.92166
229.01703,0.91454
228.77596,0.90642
228.53489,0.90173
228.29382,0.89993
228.05275,0.89795
227.81168,0.89568
227.57061,0.89534
227.32953,0.89726
227.08846,0.89917
226.84739,0.89855
226.60632,0.89384
226.36525,0.88527
226.12418,0.87614
225.88311,0.87041
225.64204,0.86823
225.40097,0.86706
225.15990,0.86749
224.91883,0.87335
224.67776,0.88423
224.43669,0.89352
224.19562,0.89750
223.95455,0.89954
223.71348,0.90217
223.47241,0.90287
223.23134,0.90020
222.99026,0.89695
222.74919,0.89476
222.50812,0.89153
222.26705,0.88659
222.02598,0.88427
221.78491,0.88839
221.54384,0.89679
221.30277,0.90553
221.06170,0.91410
220.82063,0.92272
220.57956,0.93154
220.33849,0.94367
220.09742,0.96043
219.85635,0.97581
219.61528,0.98369
219.37421,0.98567
219.13314,0.98586
218.89207,0.98685
218.65099,0.99171
218.40992,1.00033
218.16885,1.00925
217.92778,1.02030
217.68671,1.03857
217.44564,1.06041
217.20457,1.07701
216.96350,1.08855
216.72243,1.10160
216.48136,1.11670
216.24029,1.12923
215.99922,1.13848
215.75815,1.14828
215.51708,1.15983
215.27601,1.16903
215.03494,1.17299
214.79387,1.17636
214.55280,1.18641
214.31172,1.20223
214.07065,1.21534
213.82958,1.22281
213.58851,1.23315
213.34744,1.25409
213.10637,1.27882
212.86530,1.29142
212.62423,1.28520
212.38316,1.26831
212.14209,1.25099
211.90102,1.23740
211.65995,1.23043
211.41888,1.23733
211.17781,1.26471
210.93674,1.30746
210.69567,1.34834
210.45460,1.37202
210.21353,1.37309
209.97245,1.35372
209.73138,1.32079
209.49031,1.28309
209.24924,1.25303
209.00817,1.24153
208.76710,1.25013
208.52603,1.26951
208.28496,1.28512
208.04389,1.28755
207.80282,1.27659
207.56175,1.25745
207.32068,1.23778
207.07961,1.22285
206.83854,1.21285
206.59747,1.20630
206.35640,1.20401
206.11533,1.20644
205.87426,1.20779
205.63318,1.19729
205.39211,1.17142
205.15104,1.14029
204.90997,1.11677
204.66890,1.10578
204.42783,1.10501
204.18676,1.10917
203.94569,1.11093
203.70462,1.10248
203.46355,1.08264
203.22248,1.05893
202.98141,1.03855
202.74034,1.02314
202.49927,1.01152
202.25820,1.00258
202.01713,0.99519
201.77606,0.98648
201.53499,0.97282
201.29391,0.95458
201.05284,0.93674
200.81177,0.92253
200.57070,0.91026
200.32963,0.89782
200.08856,0.88652
199.84749,0.87793
199.60642,0.86956
199.36535,0.85690
199.12428,0.83966
198.88321,0.82365
198.64214,0.81607
198.40107,0.81922
198.16000,0.82646
197.91893,0.82569
197.67786,0.81108
197.43679,0.78876
197.19572,0.76942
196.95464,0.76017
196.71357,0.76106
196.47250,0.76433
196.23143,0.75958
195.99036,0.74427
195.74929,0.72563
195.50822,0.71083
195.26715,0.70165
195.02608,0.69724
194.78501,0.69632
194.54394,0.69635
194.30287,0.69342
194.06180,0.68612
193.82073,0.67860
193.57966,0.67633
193.33859,0.67945
193.09752,0.68191
192.85645,0.67779
192.61537,0.66763
192.37430,0.65679
192.13323,0.64949
191.89216,0.64599
191.65109,0.64357
191.41002,0.63982
191.16895,0.63562
190.92788,0.63364
190.68681,0.63450
190.44574,0.63557
190.20467,0.63299
189.96360,0.62580
189.72253,0.61819
189.48146,0.61559
189.24039,0.61816
188.99932,0.61974
188.75825,0.61492
188.51718,0.60642
188.27610,0.60152
188.03503,0.60309
187.79396,0.60625
187.55289,0.60451
187.31182,0.59928
187.07075,0.59733
186.82968,0.60040
186.58861,0.60317
186.34754,0.60063
186.10647,0.59488
185.86540,0.59141
185.62433,0.59170
185.38326,0.59276
185.14219,0.59217
184.90112,0.59087
184.66005,0.59002
184.41898,0.58860
184.17791,0.58696
183.93683,0.58879
183.69576,0.59574
183.45469,0.60350
183.21362,0.60701
182.97255,0.60700
182.73148,0.60736
182.49041,0.60917
182.24934,0.61078
182.00827,0.61129
181.76720,0.61120
181.52613,0.61047
181.28506,0.60894
181.04399,0.60818
180.80292,0.60977
180.56185,0.61264
180.32078,0.61551
180.07971,0.61988
179.83864,0.62629
179.59756,0.63136
179.35649,0.63286
179.11542,0.63440
178.87435,0.64043
178.63328,0.65000
178.39221,0.65921
178.15114,0.66729
177.91007,0.67596
177.66900,0.68442
177.42793,0.69132
177.18686,0.70003
176.94579,0.71415
176.70472,0.73069
176.46365,0.74554
176.22258,0.75996
175.98151,0.77562
175.74044,0.79201
175.49937,0.81051
175.25829,0.83138
175.01722,0.84975
174.77615,0.86391
174.53508,0.87907
174.29401,0.89565
174.05294,0.90786
173.81187,0.91549
173.57080,0.92346
173.32973,0.93346
173.08866,0.94519
172.84759,0.95952
172.60652,0.97468
172.36545,0.98433
172.12438,0.98399
171.88331,0.97686
171.64224,0.97044
171.40117,0.96833
171.16010,0.96812
170.91902,0.96739
170.67795,0.96692
170.43688,0.96700
170.19581,0.96607
169.95474,0.96387
169.71367,0.96140
169.47260,0.95784
169.23153,0.95115
168.99046,0.94238
168.74939,0.93522
168.50832,0.93058
168.26725,0.92532
168.02618,0.91725
167.78511,0.90844
167.54404,0.90245
167.30297,0.90046
167.06190,0.90149
166.82083,0.90515
166.57975,0.91253
166.33868,0.92303
166.09761,0.93217
165.85654,0.93646
165.61547,0.93887
165.37440,0.94504
165.13333,0.95617
164.89226,0.96965
164.65119,0.98307
164.41012,0.99397
164.16905,0.99838
163.92798,0.99527
163.68691,0.99048
163.44584,0.99123
163.20477,0.99862
162.96370,1.00822
162.72263,1.01579
162.48156,1.02065
162.24048,1.02506
161.99941,1.03200
161.75834,1.04153
161.51727,1.04983
161.27620,1.05375
161.03513,1.05317
160.79406,1.04748
160.55299,1.03585
160.31192,1.02180
160.07085,1.01042
159.82978,1.00305
159.58871,0.99964
159.34764,1.00216
159.10657,1.01103
158.86550,1.02115
158.62443,1.02452
158.38336,1.01609
158.14229,0.99654
157.90121,0.97203
157.66014,0.95099
157.41907,0.93795
157.17800,0.93137
156.93693,0.92799
156.69586,0.92730
156.45479,0.93153
156.21372,0.94243
155.97265,0.95718
155.73158,0.96657
155.49051,0.96100
155.24944,0.94081
155.00837,0.91625
154.76730,0.89840
154.52623,0.89191
154.28516,0.89349
154.04409,0.89481
153.80302,0.88737
153.56194,0.86786
153.32087,0.84107
153.07980,0.81575
152.83873,0.79651
152.59766,0.78176
152.35659,0.76920
152.11552,0.75906
151.87445,0.75068
151.63338,0.74014
151.39231,0.72481
151.15124,0.70714
150.91017,0.69102
150.66910,0.67779
150.42803,0.66729
150.18696,0.65958
149.94589,0.65337
149.70482,0.64434
149.46375,0.62880
149.22267,0.60949
148.98160,0.59440
148.74053,0.58907
148.49946,0.59126
148.25839,0.59346
148.01732,0.59054
147.77625,0.58348
147.53518,0.57547
147.29411,0.56856
147.05304,0.56478
146.81197,0.56607
146.57090,0.57129
146.32983,0.57622
146.08876,0.57740
145.84769,0.57558
145.60662,0.57538
145.36555,0.58108
145.12448,0.59174
144.88340,0.60123
144.64233,0.60486
144.40126,0.60461
144.16019,0.60513
143.91912,0.60765
143.67805,0.61027
143.43698,0.61110
143.19591,0.60933
142.95484,0.60521
142.71377,0.59949
142.47270,0.59208
142.23163,0.58132
141.99056,0.56684
141.74949,0.55262
141.50842,0.54439
141.26735,0.54321
141.02628,0.54365
140.78521,0.53971
140.54413,0.53169
140.30306,0.52502
140.06199,0.52324
139.82092,0.52461
139.57985,0.52596
139.33878,0.52766
139.09771,0.53209
138.85664,0.53937
138.61557,0.54697
138.37450,0.55292
138.13343,0.55768
137.89236,0.56279
137.65129,0.56906
137.41022,0.57727
137.16915,0.58963
136.92808,0.60750
136.68701,0.62786
136.44594,0.64591
136.20486,0.66142
135.96379,0.67838
135.72272,0.69889
135.48165,0.72170
135.24058,0.74689
134.99951,0.77682
134.75844,0.81131
134.51737,0.84673
134.27630,0.88064
134.03523,0.91335
133.79416,0.94569
133.55309,0.97919
133.31202,1.01419
133.07095,1.04530
132.82988,1.06364
132.58881,1.06784
132.34774,1.06710
132.10667,1.06903
131.86559,1.07522
131.62452,1.08803
131.38345,1.10686
131.14238,1.12345
130.90131,1.13193
130.66024,1.13216
130.41917,1.12476
130.17810,1.11249
129.93703,1.09532
129.69596,1.06888
129.45489,1.03373
129.21382,0.99666
128.97275,0.96197
128.73168,0.92888
128.49061,0.89635
128.24954,0.86354
128.00847,0.82823
127.76740,0.79003
127.52632,0.75232
127.28525,0.71948
127.04418,0.69428
126.80311,0.67650
126.56204,0.66207
126.32097,0.64607
126.07990,0.62730
125.83883,0.60783
125.59776,0.58986
125.35669,0.57522
125.11562,0.56488
124.87455,0.55694
124.63348,0.54815
124.39241,0.53818
124.15134,0.52914
123.91027,0.52094
123.66920,0.51093
123.42812,0.49830
123.18705,0.48554
122.94598,0.47548
122.70491,0.46902
122.46384,0.46572
122.22277,0.46517
121.98170,0.46654
121.74063,0.46756
121.49956,0.46620
121.25849,0.46386
121.01742,0.46457
120.77635,0.47059
120.53528,0.48094
120.29421,0.49418
120.05314,0.50995
119.81207,0.52743
119.57100,0.54523
119.32993,0.56314
119.08885,0.58235
118.84778,0.60399
118.60671,0.62889
118.36564,0.65830
118.12457,0.69260
117.88350,0.72843
117.64243,0.75890
117.40136,0.77912
117.16029,0.79132
116.91922,0.80170
116.67815,0.81266
116.43708,0.82055
116.19601,0.82009
115.95494,0.80942
115.71387,0.79158
115.47280,0.77264
115.23173,0.75656
114.99066,0.74084
114.74958,0.72046
114.50851,0.69689
114.26744,0.67781
114.02637,0.66741
113.78530,0.66203
113.54423,0.65684
113.30316,0.65360
113.06209,0.65716
112.82102,0.66695
112.57995,0.67799
112.33888,0.68860
112.09781,0.70103
111.85674,0.71664
111.61567,0.73477
111.37460,0.75288
111.13353,0.76689
110.89246,0.77434
110.65139,0.77431
110.41031,0.76455
110.16924,0.74418
109.92817,0.71718
109.68710,0.68968
109.44603,0.66565
109.20496,0.64597
108.96389,0.62993
108.72282,0.61707
108.48175,0.60842
108.24068,0.60544
107.99961,0.60665
107.75854,0.60545
107.51747,0.59299
107.27640,0.56566
107.03533,0.52918
106.79426,0.49263
106.55319,0.46116
106.31212,0.43652
106.07104,0.42064
105.82997,0.41588
105.58890,0.42246
105.34783,0.43641
105.10676,0.44912
104.86569,0.44964
104.62462,0.43286
104.38355,0.40534
104.14248,0.37752
103.90141,0.35632
103.66034,0.34506
103.41927,0.34319
103.17820,0.34632
102.93713,0.34899
102.69606,0.34805
102.45499,0.34324
102.21392,0.33528
101.97285,0.32480
101.73177,0.31315
101.49070,0.30300
101.24963,0.29789
101.00856,0.29997
100.76749,0.30573
100.52642,0.30613
100.28535,0.29585
100.04428,0.27998
99.80321,0.26745
99.56214,0.26326
99.32107,0.26755
99.08000,0.27671
98.83893,0.28343
98.59786,0.28040
98.35679,0.26833
98.11572,0.25667
97.87465,0.25445
97.63358,0.26356
97.39250,0.27871
97.15143,0.28990
96.91036,0.28866
96.66929,0.27784
96.42822,0.26949
96.18715,0.27332
95.94608,0.29059
95.70501,0.31171
95.46394,0.32072
95.22287,0.31466
94.98180,0.30928
94.74073,0.31830
94.49966,0.33809
94.25859,0.34895
94.01752,0.34113
93.77645,0.33154
93.53538,0.33697
93.29431,0.35175
93.05323,0.35391
92.81216,0.33843
92.57109,0.32609
92.33002,0.32879
92.08895,0.33648
91.84788,0.33595
91.60681,0.33211
91.36574,0.33671
91.12467,0.34976
90.88360,0.36420
90.64253,0.38192
90.40146,0.41158
90.16039,0.45024
89.91932,0.48364
89.67825,0.51264
89.43718,0.55296
89.19611,0.60512
88.95504,0.65130
88.71396,0.68547
88.47289,0.71098
88.23182,0.72030
87.99075,0.71556
87.74968,0.70776
87.50861,0.68749
87.26754,0.64018
87.02647,0.58344
86.78540,0.53884
86.54433,0.50626
86.30326,0.47715
86.06219,0.44772
85.82112,0.41826
85.58005,0.39113
85.33898,0.36967
85.09791,0.35353
84.85684,0.33889
84.61577,0.32434
84.37469,0.31116
84.13362,0.29926
83.89255,0.28755
83.65148,0.27637
83.41041,0.26671
83.16934,0.25823
82.92827,0.24972
82.68720,0.24099
82.44613,0.23341
82.20506,0.22836
81.96399,0.22548
81.72292,0.22329
81.48185,0.22096
81.24078,0.21864
80.99971,0.21609
80.75864,0.21221
80.51757,0.20664
80.27650,0.20064
80.03542,0.19546
79.79435,0.19141
79.55328,0.18870
79.31221,0.18746
79.07114,0.18665
78.83007,0.18474
78.58900,0.18177
78.34793,0.17935
78.10686,0.17825
77.86579,0.17715
77.62472,0.17442
77.38365,0.17066
77.14258,0.16804
76.90151,0.16746
76.66044,0.16773
76.41937,0.16778
76.17830,0.16785
75.93723,0.16824
75.69615,0.16864
75.45508,0.16911
75.21401,0.16937
74.97294,0.16753
74.73187,0.16252
74.49080,0.15771
74.24973,0.15850
74.00866,0.16548
73.76759,0.17241
73.52652,0.17149
73.28545,0.16127
73.04438,0.14934
72.80331,0.14608
72.56224,0.15602
72.32117,0.17284
72.08010,0.18217
71.83903,0.17653
71.59796,0.16441
71.35688,0.15769
71.11581,0.16099
70.87474,0.17165
70.63367,0.18365
70.39260,0.19331
70.15153,0.20088
69.91046,0.20752
69.66939,0.21420
69.42832,0.22190
69.18725,0.22957
68.94618,0.23468
68.70511,0.23727
68.46404,0.24006
68.22297,0.24260
67.98190,0.23906
67.74083,0.22506
67.49976,0.20303
67.25869,0.17855
67.01761,0.15560
66.77654,0.13609
66.53547,0.12061
66.29440,0.10990
66.05333,0.10601
65.81226,0.11077
65.57119,0.12338
65.33012,0.14081
65.08905,0.15967
64.84798,0.17822
64.60691,0.19728
64.36584,0.21735
64.12477,0.23460
63.88370,0.24307
63.64263,0.24022
63.40156,0.22716
63.16049,0.20718
62.91942,0.18702
62.67834,0.17319
62.43727,0.16569
62.19620,0.16009
61.95513,0.15436
61.71406,0.14912
61.47299,0.14336
61.23192,0.13460
60.99085,0.12296
60.74978,0.11227
60.50871,0.10635
60.26764,0.10494
60.02657,0.10507
59.78550,0.10577
59.54443,0.10864
59.30336,0.11365
59.06229,0.11828
58.82122,0.12138
58.58015,0.12445
58.33907,0.12954
58.09800,0.13828
57.85693,0.15203
57.61586,0.17098
57.37479,0.19274
57.13372,0.21308
56.89265,0.22776
56.65158,0.23272
56.41051,0.22446
56.16944,0.20419
55.92837,0.17874
55.68730,0.15423
55.44623,0.13194
55.20516,0.10962
54.96409,0.08560
54.72302,0.06281
54.48195,0.04851
54.24088,0.04977
53.99980,0.06925
53.75873,0.10555
53.51766,0.15692
53.27659,0.22430
53.03552,0.29651
52.79445,0.31079
52.55338,0.24249
52.31231,0.16277
52.07124,0.09993
51.83017,0.05985
51.58910,0.04728
51.34803,0.06549
51.10696,0.11576
50.86589,0.19416
50.62482,0.25597
50.38375,0.21137
50.14268,0.11815
49.90161,0.04898
49.66053,0.02028
49.41946,0.03718
49.17839,0.10723
48.93732,0.20771
48.69625,0.21416
48.45518,0.11471
48.21411,0.03939
47.97304,0.02153
47.73197,0.07343
47.49090,0.18910
47.24983,0.21514
47.00876,0.10526
46.76769,0.05819
46.52662,0.09866
46.28555,0.15970
46.04448,0.13447
45.80341,0.08062
45.56234,0.08021
45.32126,0.11643
45.08019,0.11644
44.83912,0.08379
44.59805,0.08351
44.35698,0.11106
44.11591,0.12248
43.87484,0.12603
43.63377,0.14678
43.39270,0.15823
43.15163,0.14316
42.91056,0.13272
42.66949,0.13355
42.42842,0.12953
42.18735,0.12257
41.94628,0.11841
41.70521,0.10697
41.46414,0.08948
41.22307,0.08255
40.98199,0.09058
40.74092,0.10312
40.49985,0.10742
40.25878,0.10040
40.01771,0.09219
39.77664,0.09349
39.53557,0.10433
39.29450,0.11597
39.05343,0.12410
38.81236,0.13444
38.57129,0.15361
38.33022,0.18172
38.08915,0.20784
37.84808,0.21819
37.60701,0.21224
37.36594,0.20070
37.12487,0.19291
36.88380,0.19026
36.64272,0.19454
36.40165,0.21057
36.16058,0.23090
35.91951,0.23652
35.67844,0.22382
35.43737,0.20578
35.19630,0.18648
34.95523,0.16510
34.71416,0.15043
34.47309,0.14760
34.23202,0.14522
33.99095,0.13051
33.74988,0.11729
33.50881,0.13580
33.26774,0.18139
33.02667,0.21559
32.78560,0.22606
32.54453,0.22671
32.30345,0.21317
32.06238,0.16950
31.82131,0.10384
31.58024,0.04901
31.33917,0.03003
31.09810,0.04617
30.85703,0.07429
30.61596,0.08990
30.37489,0.09100
30.13382,0.08945
29.89275,0.09244
29.65168,0.10615
29.41061,0.12967
29.16954,0.14344
28.92847,0.12929
28.68740,0.08833
28.44633,0.04061
28.20526,0.00188
27.96418,-0.04067
27.72311,-0.10261
27.48204,-0.15610
27.24097,-0.14269
26.99990,-0.06566
26.75883,0.01255
26.51776,0.05478
26.27669,0.05644
26.03562,0.02448
25.79455,-0.02820
25.55348,-0.07710
25.31241,-0.09070
25.07134,-0.06386
24.83027,-0.03030
24.58920,-0.01935
24.34813,-0.02998
24.10706,-0.04325
23.86599,-0.04505
23.62491,-0.03974
23.38384,-0.03919
23.14277,-0.05297
22.90170,-0.07600
22.66063,-0.08368
22.41956,-0.06282
22.17849,-0.03643
21.93742,-0.03780
21.69635,-0.07283
21.45528,-0.10843
21.21421,-0.10962
20.97314,-0.10182
20.73207,-0.13117
20.49100,-0.19674
20.24993,-0.26365
20.00886,-0.28083
19.76779,-0.20923
19.52672,-0.11566
19.28564,-0.05517
19.04457,-0.03842
18.80350,-0.04142
18.56243,-0.03999
18.32136,-0.02801
18.08029,-0.01356
17.83922,-0.00740
17.59815,-0.04804
17.35708,-0.14413
17.11601,-0.22255
16.87494,-0.19643
16.63387,-0.11772
16.39280,-0.02870
16.15173,0.05102
15.91066,0.08406
15.66959,0.04112
15.42852,-0.05641
15.18745,-0.10038
14.94637,-0.05012
14.70530,0.00018
14.46423,-0.02903
14.22316,-0.14027
13.98209,-0.26452
13.74102,-0.30623
13.49995,-0.25781
13.25888,-0.16831
13.01781,-0.10368
12.77674,-0.10178
12.53567,-0.10729
12.29460,-0.05143
12.05353,0.04433
11.81246,0.10749
11.57139,0.07950
11.33032,-0.05573
11.08925,-0.23353
10.84818,-0.26616
10.60710,-0.09736
10.36603,0.02912
10.12496,-0.00906
9.88389,-0.07246
9.64282,-0.03428
9.40175,0.05421
9.16068,0.06971
8.91961,0.00972
8.67854,0.04636
8.43747,0.05385
8.19640,0.05178
7.95533,0.21304
7.71426,0.44134
7.47319,0.56777
7.23212,0.54514
6.99105,0.39401
6.74998,0.25149
6.50891,0.24670
6.26783,0.32054
6.02676,0.36507
5.78569,0.33455
5.54462,0.22994
5.30355,0.04765
5.06248,-0.08249
4.82141,0.13660
4.58034,0.43544
4.33927,0.54487
4.09820,0.49617
3.85713,0.32868
3.61606,0.13870
3.37499,0.09861
3.13392,0.16611
2.89285,0.17440
2.65178,0.03554
2.41071,-0.18810
2.16964,-0.31464
1.92856,-0.28019
1.68749,-0.21733
1.44642,-0.19351
1.20535,-0.18497
0.96428,-0.18830
0.72321,-0.20935
0.48214,-0.21862
0.24107,-0.19347
-0.00000,-0.16049
