399.69498,1.56511
399.45391,1.56181
399.21284,1.56104
398.97177,1.56644
398.73070,1.58026
398.48963,1.59705
398.24856,1.60288
398.00749,1.58766
397.76642,1.55668
397.52535,1.52626
397.28428,1.51186
397.04321,1.52018
396.80214,1.54592
396.56107,1.57454
396.32000,1.59633
396.07892,1.61338
395.83785,1.62496
395.59678,1.62278
395.35571,1.60798
395.11464,1.59375
394.87357,1.58761
394.63250,1.58281
394.39143,1.57181
394.15036,1.56493
393.90929,1.57287
393.66822,1.58914
393.42715,1.59981
393.18608,1.59640
392.94501,1.58104
392.70394,1.55676
392.46287,1.52530
392.22180,1.49762
391.98073,1.48865
391.73965,1.50276
391.49858,1.53033
391.25751,1.55450
391.01644,1.56314
390.77537,1.55848
390.53430,1.55141
390.29323,1.54749
390.05216,1.54386
389.81109,1.53855
389.57002,1.53171
389.32895,1.51933
389.08788,1.50118
388.84681,1.48774
388.60574,1.48610
388.36467,1.49304
388.12360,1.50400
387.88253,1.51663
387.64146,1.52524
387.40038,1.52169
387.15931,1.50621
386.91824,1.48931
386.67717,1.48150
386.43610,1.48257
386.19503,1.48103
385.95396,1.47105
385.71289,1.46013
385.47182,1.45170
385.23075,1.43467
384.98968,1.40170
384.74861,1.36489
384.50754,1.34151
384.26647,1.33520
384.02540,1.33814
383.78433,1.34287
383.54326,1.34438
383.30219,1.34032
383.06111,1.33418
382.82004,1.33203
382.57897,1.33219
382.33790,1.32555
382.09683,1.31076
381.85576,1.29635
381.61469,1.28385
381.37362,1.26774
381.13255,1.25150
380.89148,1.24504
380.65041,1.24906
380.40934,1.25404
380.16827,1.25256
379.92720,1.24684
379.68613,1.24342
379.44506,1.24456
379.20399,1.24946
378.96292,1.25825
378.72184,1.27126
378.48077,1.28695
378.23970,1.30286
377.99863,1.31892
377.75756,1.33658
377.51649,1.35579
377.27542,1.37365
377.03435,1.38543
376.79328,1.39156
376.55221,1.39366
376.31114,1.38897
376.07007,1.37899
375.82900,1.37130
375.58793,1.37315
375.34686,1.38605
375.10579,1.40521
374.86472,1.42259
374.62365,1.43103
374.38257,1.42733
374.14150,1.41295
373.90043,1.39457
373.65936,1.37900
373.41829,1.37003
373.17722,1.36746
372.93615,1.36790
372.69508,1.37085
372.45401,1.37889
372.21294,1.38911
371.97187,1.39262
371.73080,1.38647
371.48973,1.37746
371.24866,1.37214
371.00759,1.37045
370.76652,1.36974
370.52545,1.37116
370.28437,1.37929
370.04330,1.39415
369.80223,1.40648
369.56116,1.40689
369.32009,1.39811
369.07902,1.39018
368.83795,1.38597
368.59688,1.38201
368.35581,1.37598
368.11474,1.36911
367.87367,1.36631
367.63260,1.37201
367.39153,1.38310
367.15046,1.38903
366.90939,1.38281
366.66832,1.36879
366.42725,1.35525
366.18618,1.34583
365.94510,1.34101
365.70403,1.34028
365.46296,1.34083
365.22189,1.33855
364.98082,1.33257
364.73975,1.32580
364.49868,1.32054
364.25761,1.31691
364.01654,1.31612
363.77547,1.32000
363.53440,1.32559
363.29333,1.32747
363.05226,1.32720
362.81119,1.33139
362.57012,1.34018
362.32905,1.34538
362.08798,1.34033
361.84691,1.32610
361.60583,1.30841
361.36476,1.29324
361.12369,1.28480
360.88262,1.28406
360.64155,1.28837
360.40048,1.29409
360.15941,1.29929
359.91834,1.30292
359.67727,1.30282
359.43620,1.29766
359.19513,1.29078
358.95406,1.28676
358.71299,1.28608
358.47192,1.28685
358.23085,1.28807
357.98978,1.29078
357.74871,1.29441
357.50764,1.29554
357.26656,1.29376
357.02549,1.29314
356.78442,1.29623
356.54335,1.30150
356.30228,1.30642
356.06121,1.30798
355.82014,1.30244
355.57907,1.29078
355.33800,1.27988
355.09693,1.27462
354.85586,1.27417
354.61479,1.27531
354.37372,1.27542
354.13265,1.27444
353.89158,1.27501
353.65051,1.27949
353.40944,1.28656
353.16837,1.29191
352.92729,1.29326
352.68622,1.29054
352.44515,1.28383
352.20408,1.27687
351.96301,1.27625
351.72194,1.28224
351.48087,1.28555
351.23980,1.27907
350.99873,1.26897
350.75766,1.26735
350.51659,1.27696
350.27552,1.28902
350.03445,1.29491
349.79338,1.29492
349.55231,1.29338
349.31124,1.29154
349.07017,1.28876
348.82910,1.28593
348.58802,1.28313
348.34695,1.27687
348.10588,1.26570
347.86481,1.25637
347.62374,1.25913
347.38267,1.27836
347.14160,1.30738
346.90053,1.33218
346.65946,1.34273
346.41839,1.34121
346.17732,1.33635
345.93625,1.33353
345.69518,1.33136
345.45411,1.32443
345.21304,1.31053
344.97197,1.29600
344.73090,1.29174
344.48983,1.30307
344.24875,1.32380
344.00768,1.34084
343.76661,1.34658
343.52554,1.34570
343.28447,1.34885
343.04340,1.36012
342.80233,1.37244
342.56126,1.37472
342.32019,1.36592
342.07912,1.35814
341.83805,1.36052
341.59698,1.36824
341.35591,1.37123
341.11484,1.36670
340.87377,1.36088
340.63270,1.36258
340.39163,1.37465
340.15056,1.38921
339.90948,1.39489
339.66841,1.39089
339.42734,1.38553
339.18627,1.38213
338.94520,1.37812
338.70413,1.37531
338.46306,1.37952
338.22199,1.39105
337.98092,1.40325
337.73985,1.41016
337.49878,1.41176
337.25771,1.41038
337.01664,1.40715
336.77557,1.40153
336.53450,1.39449
336.29343,1.39066
336.05236,1.39198
335.81129,1.39488
335.57021,1.39816
335.32914,1.40502
335.08807,1.41223
334.84700,1.40964
334.60593,1.39578
334.36486,1.38125
334.12379,1.37478
333.88272,1.37552
333.64165,1.37631
333.40058,1.37087
333.15951,1.36015
332.91844,1.35175
332.67737,1.34939
332.43630,1.34624
332.19523,1.33446
331.95416,1.31705
331.71309,1.30458
331.47202,1.30292
331.23094,1.30752
330.98987,1.30880
330.74880,1.30505
330.50773,1.30536
330.26666,1.31392
330.02559,1.32274
329.78452,1.32553
329.54345,1.32633
329.30238,1.33041
329.06131,1.33700
328.82024,1.34029
328.57917,1.33572
328.33810,1.32577
328.09703,1.31670
327.85596,1.31034
327.61489,1.30413
327.37382,1.29894
327.13275,1.30181
326.89167,1.31748
326.65060,1.33978
326.40953,1.35658
326.16846,1.36292
325.92739,1.36106
325.68632,1.35053
325.44525,1.32961
325.20418,1.30443
324.96311,1.28661
324.72204,1.28406
324.48097,1.29703
324.23990,1.31650
323.99883,1.32595
323.75776,1.31543
323.51669,1.29521
323.27562,1.28555
323.03455,1.29421
322.79348,1.30990
322.55240,1.31610
322.31133,1.31147
322.07026,1.30958
321.82919,1.31675
321.58812,1.32463
321.34705,1.32752
321.10598,1.32961
320.86491,1.33141
320.62384,1.32575
320.38277,1.31396
320.14170,1.30983
319.90063,1.31947
319.65956,1.33202
319.41849,1.33367
319.17742,1.32280
318.93635,1.30491
318.69528,1.28553
318.45421,1.27281
318.21313,1.27414
317.97206,1.28750
317.73099,1.30140
317.48992,1.30639
317.24885,1.30389
317.00778,1.30051
316.76671,1.30047
316.52564,1.30369
316.28457,1.30932
316.04350,1.31989
315.80243,1.33366
315.56136,1.34006
315.32029,1.33221
315.07922,1.32052
314.83815,1.31809
314.59708,1.32194
314.35601,1.32281
314.11494,1.32401
313.87386,1.33467
313.63279,1.35382
313.39172,1.37380
313.15065,1.38997
312.90958,1.39867
312.66851,1.39478
312.42744,1.38192
312.18637,1.37421
311.94530,1.37854
311.70423,1.38581
311.46316,1.38573
311.22209,1.38092
310.98102,1.37917
310.73995,1.38109
310.49888,1.38178
310.25781,1.37722
310.01674,1.36805
309.77567,1.36098
309.53459,1.36382
309.29352,1.37835
309.05245,1.39926
308.81138,1.41932
308.57031,1.43055
308.32924,1.42798
308.08817,1.41739
307.84710,1.40557
307.60603,1.39518
307.36496,1.38726
307.12389,1.38373
306.88282,1.38844
306.64175,1.40082
306.40068,1.41063
306.15961,1.40838
305.91854,1.39893
305.67747,1.39636
305.43640,1.40724
305.19532,1.42221
304.95425,1.42586
304.71318,1.41462
304.47211,1.39782
304.23104,1.38233
303.98997,1.36644
303.74890,1.34944
303.50783,1.33619
303.26676,1.33159
303.02569,1.33596
302.78462,1.34511
302.54355,1.35266
302.30248,1.35256
302.06141,1.34309
301.82034,1.32918
301.57927,1.31950
301.33820,1.31923
301.09713,1.32635
300.85605,1.33426
300.61498,1.33588
300.37391,1.32849
300.13284,1.31609
299.89177,1.30408
299.65070,1.29531
299.40963,1.29056
299.16856,1.28765
298.92749,1.28251
298.68642,1.27475
298.44535,1.26923
298.20428,1.27019
297.96321,1.27602
297.72214,1.28121
297.48107,1.28208
297.24000,1.27893
296.99893,1.27463
296.75786,1.27186
296.51678,1.26994
296.27571,1.26494
296.03464,1.25468
295.79357,1.24223
295.55250,1.23206
295.31143,1.22579
295.07036,1.22315
294.82929,1.22428
294.58822,1.22932
294.34715,1.23656
294.10608,1.24195
293.86501,1.24110
293.62394,1.23254
293.38287,1.21964
293.14180,1.20766
292.90073,1.19956
292.65966,1.19564
292.41859,1.19551
292.17751,1.19841
291.93644,1.20191
291.69537,1.20274
291.45430,1.20021
291.21323,1.19687
290.97216,1.19523
290.73109,1.19465
290.49002,1.19211
290.24895,1.18653
290.00788,1.18118
289.76681,1.17989
289.52574,1.18225
289.28467,1.18391
289.04360,1.18200
288.80253,1.17840
288.56146,1.17638
288.32039,1.17610
288.07932,1.17518
287.83824,1.17258
287.59717,1.17023
287.35610,1.17037
287.11503,1.17232
286.87396,1.17330
286.63289,1.17199
286.39182,1.16939
286.15075,1.16609
285.90968,1.16240
285.66861,1.16006
285.42754,1.16004
285.18647,1.16015
284.94540,1.15804
284.70433,1.15535
284.46326,1.15480
284.22219,1.15580
283.98112,1.15625
283.74005,1.15593
283.49897,1.15577
283.25790,1.15583
283.01683,1.15520
282.77576,1.15330
282.53469,1.15072
282.29362,1.14892
282.05255,1.14883
281.81148,1.14963
281.57041,1.14962
281.32934,1.14918
281.08827,1.15111
280.84720,1.15657
280.60613,1.16210
280.36506,1.16303
280.12399,1.15961
279.88292,1.15657
279.64185,1.15604
279.40078,1.15554
279.15970,1.15370
278.91863,1.15313
278.67756,1.15615
278.43649,1.16133
278.19542,1.16543
277.95435,1.16665
277.71328,1.16555
277.47221,1.16420
277.23114,1.16461
276.99007,1.16686
276.74900,1.16910
276.50793,1.16987
276.26686,1.16932
276.02579,1.16827
275.78472,1.16720
275.54365,1.16599
275.30258,1.16387
275.06151,1.16025
274.82043,1.15613
274.57936,1.15436
274.33829,1.15702
274.09722,1.16290
273.85615,1.16869
273.61508,1.17272
273.37401,1.17582
273.13294,1.17786
272.89187,1.17653
272.65080,1.17132
272.40973,1.16585
272.16866,1.16401
271.92759,1.16629
271.68652,1.17201
271.44545,1.18111
271.20438,1.19167
270.96331,1.19925
270.72224,1.20153
270.48116,1.20115
270.24009,1.20159
269.99902,1.20267
269.75795,1.20251
269.51688,1.20302
269.27581,1.20864
269.03474,1.21872
268.79367,1.22705
268.55260,1.23046
268.31153,1.23225
268.07046,1.23587
267.82939,1.24057
267.58832,1.24450
267.34725,1.24772
267.10618,1.25093
266.86511,1.25442
266.62404,1.25915
266.38297,1.26556
266.14189,1.27214
265.90082,1.27796
265.65975,1.28375
265.41868,1.28936
265.17761,1.29481
264.93654,1.30289
264.69547,1.31620
264.45440,1.33295
264.21333,1.34803
263.97226,1.35838
263.73119,1.36586
263.49012,1.37375
263.24905,1.38130
263.00798,1.38510
262.76691,1.38778
262.52584,1.39780
262.28477,1.41787
262.04370,1.43997
261.80262,1.45557
261.56155,1.46739
261.32048,1.48442
261.07941,1.50873
260.83834,1.53299
260.59727,1.55003
260.35620,1.56183
260.11513,1.57764
259.87406,1.60459
259.63299,1.64172
259.39192,1.68192
259.15085,1.71647
258.90978,1.73912
258.66871,1.75137
258.42764,1.76525
258.18657,1.79294
257.94550,1.83154
257.70443,1.86171
257.46335,1.86925
257.22228,1.86371
256.98121,1.86493
256.74014,1.87350
256.49907,1.86813
256.25800,1.83803
256.01693,1.80045
255.77586,1.77141
255.53479,1.74980
255.29372,1.73492
255.05265,1.72652
254.81158,1.71802
254.57051,1.70170
254.32944,1.67723
254.08837,1.65622
253.84730,1.65290
253.60623,1.66606
253.36516,1.67635
253.12408,1.66856
252.88301,1.64842
252.64194,1.63006
252.40087,1.61785
252.15980,1.60747
251.91873,1.59716
251.67766,1.59091
251.43659,1.58909
251.19552,1.58542
250.95445,1.57714
250.71338,1.56910
250.47231,1.56700
250.23124,1.57086
249.99017,1.57495
249.74910,1.57279
249.50803,1.56363
249.26696,1.55336
249.02589,1.54703
248.78481,1.54670
248.54374,1.55259
248.30267,1.56076
248.06160,1.56548
247.82053,1.56658
247.57946,1.56912
247.33839,1.57680
247.09732,1.58960
246.85625,1.60048
246.61518,1.59849
246.37411,1.58578
246.13304,1.57999
245.89197,1.59515
245.65090,1.62941
245.40983,1.66737
245.16876,1.69212
244.92769,1.69817
244.68661,1.69173
244.44554,1.68635
244.20447,1.69756
243.96340,1.73312
243.72233,1.78929
243.48126,1.85354
243.24019,1.90751
242.99912,1.93496
242.75805,1.93720
242.51698,1.93545
242.27591,1.92513
242.03484,1.85974
241.79377,1.75296
241.55270,1.66156
241.31163,1.60143
241.07056,1.56028
240.82949,1.51744
240.58842,1.46168
240.34734,1.40140
240.10627,1.35209
239.86520,1.31888
239.62413,1.29454
239.38306,1.26858
239.14199,1.23631
238.90092,1.20150
238.65985,1.17129
238.41878,1.14897
238.17771,1.13188
237.93664,1.11565
237.69557,1.09928
237.45450,1.08497
237.21343,1.07305
236.97236,1.06010
236.73129,1.04310
236.49022,1.02391
236.24915,1.00808
236.00807,0.99929
235.76700,0.99552
235.52593,0.99119
235.28486,0.98324
235.04379,0.97363
234.80272,0.96538
234.56165,0.95883
234.32058,0.95234
234.07951,0.94512
233.83844,0.93816
233.59737,0.93260
233.35630,0.92882
233.11523,0.92711
232.87416,0.92748
232.63309,0.92827
232.39202,0.92673
232.15095,0.92171
231.90988,0.91466
231.66880,0.90802
231.42773,0.90302
231.18666,0.89901
230.94559,0.89498
230.70452,0.89113
230.46345,0.88831
230.22238,0.88652
229.98131,0.88463
229.74024,0.88157
229.49917,0.87796
229.25810,0.87586
229.01703,0.87573
228.77596,0.87532
228.53489,0.87297
228.29382,0.86958
228.05275,0.86631
227.81168,0.86299
227.57061,0.85957
227.32953,0.85643
227.08846,0.85374
226.84739,0.85143
226.60632,0.84855
226.36525,0.84384
226.12418,0.83904
225.88311,0.83811
225.64204,0.84130
225.40097,0.84475
225.15990,0.84661
224.91883,0.84815
224.67776,0.84974
224.43669,0.85105
224.19562,0.85312
223.95455,0.85601
223.71348,0.85759
223.47241,0.85773
223.23134,0.85908
222.99026,0.86220
222.74919,0.86458
222.50812,0.86534
222.26705,0.86684
222.02598,0.87102
221.78491,0.87697
221.54384,0.88246
221.30277,0.88641
221.06170,0.88990
220.82063,0.89502
220.57956,0.90166
220.33849,0.90669
220.09742,0.90865
219.85635,0.91155
219.61528,0.91997
219.37421,0.93278
219.13314,0.94547
218.89207,0.95684
218.65099,0.96986
218.40992,0.98672
218.16885,1.00618
217.92778,1.02517
217.68671,1.04023
217.44564,1.04838
217.20457,1.05002
216.96350,1.05086
216.72243,1.05778
216.48136,1.07252
216.24029,1.09032
215.99922,1.10503
215.75815,1.11523
215.51708,1.12458
215.27601,1.13660
215.03494,1.15085
214.79387,1.16495
214.55280,1.17820
214.31172,1.19097
214.07065,1.20198
213.82958,1.20875
213.58851,1.21061
213.34744,1.20995
213.10637,1.21082
212.86530,1.21565
212.62423,1.22519
212.38316,1.24067
212.14209,1.26027
211.90102,1.27463
211.65995,1.27586
211.41888,1.26938
211.17781,1.26592
210.93674,1.26828
210.69567,1.27272
210.45460,1.27578
210.21353,1.27617
209.97245,1.27471
209.73138,1.27424
209.49031,1.27646
209.24924,1.27955
209.00817,1.27976
208.76710,1.27361
208.52603,1.26019
208.28496,1.24372
208.04389,1.23196
207.80282,1.22897
207.56175,1.23063
207.32068,1.22939
207.07961,1.22187
206.83854,1.20951
206.59747,1.19378
206.35640,1.17444
206.11533,1.15258
205.87426,1.13241
205.63318,1.11858
205.39211,1.11277
205.15104,1.11272
204.90997,1.11272
204.66890,1.10703
204.42783,1.09443
204.18676,1.07831
203.94569,1.06201
203.70462,1.04651
203.46355,1.03274
203.22248,1.02279
202.98141,1.01654
202.74034,1.00894
202.49927,0.99419
202.25820,0.97307
202.01713,0.95252
201.77606,0.93865
201.53499,0.93171
201.29391,0.92556
201.05284,0.91293
200.81177,0.89315
200.57070,0.87246
200.32963,0.85656
200.08856,0.84610
199.84749,0.83878
199.60642,0.83243
199.36535,0.82531
199.12428,0.81583
198.88321,0.80388
198.64214,0.79210
198.40107,0.78349
198.16000,0.77753
197.91893,0.77050
197.67786,0.75991
197.43679,0.74719
197.19572,0.73582
196.95464,0.72826
196.71357,0.72368
196.47250,0.71869
196.23143,0.71114
195.99036,0.70276
195.74929,0.69678
195.50822,0.69417
195.26715,0.69235
195.02608,0.68754
194.78501,0.67886
194.54394,0.66941
194.30287,0.66246
194.06180,0.65796
193.82073,0.65362
193.57966,0.64815
193.33859,0.64241
193.09752,0.63770
192.85645,0.63377
192.61537,0.62911
192.37430,0.62302
192.13323,0.61674
191.89216,0.61207
191.65109,0.60959
191.41002,0.60816
191.16895,0.60572
190.92788,0.60111
190.68681,0.59568
190.44574,0.59186
190.20467,0.59000
189.96360,0.58802
189.72253,0.58457
189.48146,0.58103
189.24039,0.57945
188.99932,0.57943
188.75825,0.57866
188.51718,0.57626
188.27610,0.57401
188.03503,0.57369
187.79396,0.57489
187.55289,0.57583
187.31182,0.57511
187.07075,0.57259
186.82968,0.56959
186.58861,0.56766
186.34754,0.56674
186.10647,0.56560
185.86540,0.56431
185.62433,0.56429
185.38326,0.56576
185.14219,0.56705
184.90112,0.56724
184.66005,0.56740
184.41898,0.56830
184.17791,0.56896
183.93683,0.56875
183.69576,0.56921
183.45469,0.57172
183.21362,0.57492
182.97255,0.57639
182.73148,0.57590
182.49041,0.57527
182.24934,0.57550
182.00827,0.57568
181.76720,0.57522
181.52613,0.57556
181.28506,0.57782
181.04399,0.58019
180.80292,0.58071
180.56185,0.58111
180.32078,0.58405
180.07971,0.58874
179.83864,0.59296
179.59756,0.59688
179.35649,0.60162
179.11542,0.60677
178.87435,0.61175
178.63328,0.61726
178.39221,0.62397
178.15114,0.63192
177.91007,0.64145
177.66900,0.65269
177.42793,0.66458
177.18686,0.67604
176.94579,0.68783
176.70472,0.70130
176.46365,0.71620
176.22258,0.73091
175.98151,0.74463
175.74044,0.75809
175.49937,0.77265
175.25829,0.78898
175.01722,0.80647
174.77615,0.82381
174.53508,0.84032
174.29401,0.85673
174.05294,0.87434
173.81187,0.89332
173.57080,0.91154
173.32973,0.92630
173.08866,0.93739
172.84759,0.94638
172.60652,0.95376
172.36545,0.95958
172.12438,0.96498
171.88331,0.96974
171.64224,0.97088
171.40117,0.96657
171.16010,0.95935
170.91902,0.95365
170.67795,0.95083
170.43688,0.94761
170.19581,0.94068
169.95474,0.93190
169.71367,0.92597
169.47260,0.92411
169.23153,0.92345
168.99046,0.92144
168.74939,0.91854
168.50832,0.91629
168.26725,0.91473
168.02618,0.91325
167.78511,0.91215
167.54404,0.91176
167.30297,0.91077
167.06190,0.90771
166.82083,0.90307
166.57975,0.89841
166.33868,0.89513
166.09761,0.89503
165.85654,0.89956
165.61547,0.90803
165.37440,0.91843
165.13333,0.92922
164.89226,0.93928
164.65119,0.94735
164.41012,0.95332
164.16905,0.95884
163.92798,0.96539
163.68691,0.97282
163.44584,0.98066
163.20477,0.98964
162.96370,1.00115
162.72263,1.01449
162.48156,1.02622
162.24048,1.03407
161.99941,1.03950
161.75834,1.04479
161.51727,1.04929
161.27620,1.05038
161.03513,1.04707
160.79406,1.04093
160.55299,1.03319
160.31192,1.02366
160.07085,1.01346
159.82978,1.00564
159.58871,1.00141
159.34764,0.99911
159.10657,0.99758
158.86550,0.99713
158.62443,0.99698
158.38336,0.99463
158.14229,0.98803
157.90121,0.97759
157.66014,0.96662
157.41907,0.95905
157.17800,0.95587
156.93693,0.95470
156.69586,0.95299
156.45479,0.94995
156.21372,0.94544
155.97265,0.93879
155.73158,0.92917
155.49051,0.91719
155.24944,0.90577
155.00837,0.89727
154.76730,0.89015
154.52623,0.88073
154.28516,0.86824
154.04409,0.85508
153.80302,0.84216
153.56194,0.82765
153.32087,0.81087
153.07980,0.79424
152.83873,0.78026
152.59766,0.76878
152.35659,0.75780
152.11552,0.74522
151.87445,0.73002
151.63338,0.71323
151.39231,0.69765
151.15124,0.68521
150.91017,0.67513
150.66910,0.66532
150.42803,0.65416
150.18696,0.64093
149.94589,0.62626
149.70482,0.61233
149.46375,0.60131
149.22267,0.59349
148.98160,0.58727
148.74053,0.58040
148.49946,0.57155
148.25839,0.56170
148.01732,0.55385
147.77625,0.55035
147.53518,0.55012
147.29411,0.54981
147.05304,0.54817
146.81197,0.54747
146.57090,0.54978
146.32983,0.55407
146.08876,0.55784
145.84769,0.56008
145.60662,0.56150
145.36555,0.56348
145.12448,0.56735
144.88340,0.57331
144.64233,0.57989
144.40126,0.58509
144.16019,0.58823
143.91912,0.58994
143.67805,0.59046
143.43698,0.58897
143.19591,0.58470
142.95484,0.57808
142.71377,0.57016
142.47270,0.56176
142.23163,0.55325
141.99056,0.54474
141.74949,0.53649
141.50842,0.52925
141.26735,0.52383
141.02628,0.52005
140.78521,0.51690
140.54413,0.51379
140.30306,0.51102
140.06199,0.50917
139.82092,0.50853
139.57985,0.50942
139.33878,0.51218
139.09771,0.51650
138.85664,0.52138
138.61557,0.52651
138.37450,0.53288
138.13343,0.54115
137.89236,0.55046
137.65129,0.55990
137.41022,0.57010
137.16915,0.58255
136.92808,0.59761
136.68701,0.61378
136.44594,0.62975
136.20486,0.64672
135.96379,0.66658
135.72272,0.68866
135.48165,0.71163
135.24058,0.73712
134.99951,0.76702
134.75844,0.79917
134.51737,0.83036
134.27630,0.86142
134.03523,0.89487
133.79416,0.92951
133.55309,0.96151
133.31202,0.98937
133.07095,1.01547
132.82988,1.04322
132.58881,1.07433
132.34774,1.10734
132.10667,1.13719
131.86559,1.15818
131.62452,1.16895
131.38345,1.17225
131.14238,1.16976
130.90131,1.16066
130.66024,1.14488
130.41917,1.12342
130.17810,1.09762
129.93703,1.07008
129.69596,1.04228
129.45489,1.01231
129.21382,0.97849
128.97275,0.94249
128.73168,0.90650
128.49061,0.87022
128.24954,0.83332
128.00847,0.79826
127.76740,0.76873
127.52632,0.74570
127.28525,0.72581
127.04418,0.70406
126.80311,0.67880
126.56204,0.65347
126.32097,0.63198
126.07990,0.61431
125.83883,0.59807
125.59776,0.58231
125.35669,0.56771
125.11562,0.55429
124.87455,0.54098
124.63348,0.52725
124.39241,0.51390
124.15134,0.50199
123.91027,0.49146
123.66920,0.48155
123.42812,0.47220
123.18705,0.46433
122.94598,0.45856
122.70491,0.45462
122.46384,0.45193
122.22277,0.44987
121.98170,0.44780
121.74063,0.44583
121.49956,0.44510
121.25849,0.44679
121.01742,0.45099
120.77635,0.45690
120.53528,0.46436
120.29421,0.47444
120.05314,0.48792
119.81207,0.50357
119.57100,0.51954
119.32993,0.53609
119.08885,0.55538
118.84778,0.57867
118.60671,0.60536
118.36564,0.63462
118.12457,0.66556
117.88350,0.69552
117.64243,0.72112
117.40136,0.74190
117.16029,0.75915
116.91922,0.77087
116.67815,0.77373
116.43708,0.77015
116.19601,0.76689
115.95494,0.76643
115.71387,0.76461
115.47280,0.75744
115.23173,0.74582
114.99066,0.73233
114.74958,0.71799
114.50851,0.70395
114.26744,0.69292
114.02637,0.68693
113.78530,0.68588
113.54423,0.68788
113.30316,0.68935
113.06209,0.68649
112.82102,0.67917
112.57995,0.67171
112.33888,0.66883
112.09781,0.67138
111.85674,0.67630
111.61567,0.68043
111.37460,0.68423
111.13353,0.69041
110.89246,0.69887
110.65139,0.70547
110.41031,0.70736
110.16924,0.70611
109.92817,0.70291
109.68710,0.69465
109.44603,0.67822
109.20496,0.65622
108.96389,0.63432
108.72282,0.61472
108.48175,0.59593
108.24068,0.57729
107.99961,0.56015
107.75854,0.54553
107.51747,0.53325
107.27640,0.52250
107.03533,0.51147
106.79426,0.49820
106.55319,0.48273
106.31212,0.46677
106.07104,0.45131
105.82997,0.43635
105.58890,0.42259
105.34783,0.41187
105.10676,0.40553
104.86569,0.40241
104.62462,0.39887
104.38355,0.39131
104.14248,0.37918
103.90141,0.36491
103.66034,0.35113
103.41927,0.33889
103.17820,0.32854
102.93713,0.32097
102.69606,0.31691
102.45499,0.31528
102.21392,0.31332
101.97285,0.30858
101.73177,0.30045
101.49070,0.29063
101.24963,0.28242
101.00856,0.27883
100.76749,0.28016
100.52642,0.28292
100.28535,0.28205
100.04428,0.27580
99.80321,0.26767
99.56214,0.26252
99.32107,0.26226
99.08000,0.26477
98.83893,0.26557
98.59786,0.26155
98.35679,0.25414
98.11572,0.24801
97.87465,0.24689
97.63358,0.25052
97.39250,0.25484
97.15143,0.25630
96.91036,0.25632
96.66929,0.25929
96.42822,0.26678
96.18715,0.27569
95.94608,0.28199
95.70501,0.28550
95.46394,0.29002
95.22287,0.29836
94.98180,0.30821
94.74073,0.31380
94.49966,0.31290
94.25859,0.31005
94.01752,0.31058
93.77645,0.31407
93.53538,0.31578
93.29431,0.31439
93.05323,0.31460
92.81216,0.31949
92.57109,0.32488
92.33002,0.32450
92.08895,0.31968
91.84788,0.31804
91.60681,0.32286
91.36574,0.32949
91.12467,0.33449
90.88360,0.34341
90.64253,0.36270
90.40146,0.38949
90.16039,0.41784
89.91932,0.44998
89.67825,0.49009
89.43718,0.53436
89.19611,0.57749
88.95504,0.62144
88.71396,0.66634
88.47289,0.70195
88.23182,0.71695
87.99075,0.70871
87.74968,0.68140
87.50861,0.64263
87.26754,0.60052
87.02647,0.56040
86.78540,0.52374
86.54433,0.49021
86.30326,0.45990
86.06219,0.43299
85.82112,0.40826
85.58005,0.38401
85.33898,0.36036
85.09791,0.33885
84.85684,0.32035
84.61577,0.30481
84.37469,0.29209
84.13362,0.28157
83.89255,0.27190
83.65148,0.26251
83.41041,0.25422
83.16934,0.24738
82.92827,0.24076
82.68720,0.23367
82.44613,0.22710
82.20506,0.22144
81.96399,0.21539
81.72292,0.20865
81.48185,0.20320
81.24078,0.20051
80.99971,0.19962
80.75864,0.19839
80.51757,0.19562
80.27650,0.19149
80.03542,0.18682
79.79435,0.18243
79.55328,0.17920
79.31221,0.17795
79.07114,0.17877
78.83007,0.18039
78.58900,0.18071
78.34793,0.17841
78.10686,0.17401
77.86579,0.16894
77.62472,0.16424
77.38365,0.16050
77.14258,0.15830
76.90151,0.15748
76.66044,0.15702
76.41937,0.15637
76.17830,0.15605
75.93723,0.15645
75.69615,0.15718
75.45508,0.15748
75.21401,0.15690
74.97294,0.15570
74.73187,0.15459
74.49080,0.15365
74.24973,0.15247
74.00866,0.15183
73.76759,0.15351
73.52652,0.15756
73.28545,0.16117
73.04438,0.16120
72.80331,0.15696
72.56224,0.15042
72.32117,0.14478
72.08010,0.14314
71.83903,0.14719
71.59796,0.15573
71.35688,0.16471
71.11581,0.16973
70.87474,0.16953
70.63367,0.16675
70.39260,0.16551
70.15153,0.16898
69.91046,0.17808
69.66939,0.19164
69.42832,0.20727
69.18725,0.22148
68.94618,0.23021
68.70511,0.23113
68.46404,0.22514
68.22297,0.21441
67.98190,0.20009
67.74083,0.18322
67.49976,0.16664
67.25869,0.15405
67.01761,0.14717
66.77654,0.14421
66.53547,0.14191
66.29440,0.13881
66.05333,0.13622
65.81226,0.13642
65.57119,0.14043
65.33012,0.14770
65.08905,0.15727
64.84798,0.16875
64.60691,0.18172
64.36584,0.19439
64.12477,0.20359
63.88370,0.20657
63.64263,0.20329
63.40156,0.19608
63.16049,0.18690
62.91942,0.17624
62.67834,0.16484
62.43727,0.15416
62.19620,0.14467
61.95513,0.13559
61.71406,0.12659
61.47299,0.11849
61.23192,0.11223
60.99085,0.10807
60.74978,0.10572
60.50871,0.10491
60.26764,0.10567
60.02657,0.10834
59.78550,0.11327
59.54443,0.12009
59.30336,0.12712
59.06229,0.13271
58.82122,0.13735
58.58015,0.14300
58.33907,0.15022
58.09800,0.15752
57.85693,0.16352
57.61586,0.16786
57.37479,0.16967
57.13372,0.16688
56.89265,0.15836
56.65158,0.14559
56.41051,0.13145
56.16944,0.11860
55.92837,0.10874
55.68730,0.10266
55.44623,0.10106
55.20516,0.10514
54.96409,0.11532
54.72302,0.13041
54.48195,0.14858
54.24088,0.16726
53.99980,0.18062
53.75873,0.18146
53.51766,0.16885
53.27659,0.14924
53.03552,0.12927
52.79445,0.11265
52.55338,0.10289
52.31231,0.10486
52.07124,0.12167
51.83017,0.14974
51.58910,0.17457
51.34803,0.17466
51.10696,0.14585
50.86589,0.10957
50.62482,0.08683
50.38375,0.08758
50.14268,0.11455
49.90161,0.15966
49.66053,0.18866
49.41946,0.16851
49.17839,0.12891
48.93732,0.10925
48.69625,0.12111
48.45518,0.15262
48.21411,0.16937
47.97304,0.15073
47.73197,0.12523
47.49090,0.12135
47.24983,0.13892
47.00876,0.15081
46.76769,0.13517
46.52662,0.11425
46.28555,0.11547
46.04448,0.13188
45.80341,0.12859
45.56234,0.10587
45.32126,0.10316
45.08019,0.12679
44.83912,0.14144
44.59805,0.13187
44.35698,0.12616
44.11591,0.13394
43.87484,0.13644
43.63377,0.12900
43.39270,0.12545
43.15163,0.12923
42.91056,0.13358
42.66949,0.13521
42.42842,0.13438
42.18735,0.13124
41.94628,0.12722
41.70521,0.12494
41.46414,0.12589
41.22307,0.12911
40.98199,0.13239
40.74092,0.13431
40.49985,0.13579
40.25878,0.14103
40.01771,0.15431
39.77664,0.17176
39.53557,0.18279
39.29450,0.18419
39.05343,0.18321
38.81236,0.18612
38.57129,0.19353
38.33022,0.20475
38.08915,0.21903
37.84808,0.23322
37.60701,0.24143
37.36594,0.23968
37.12487,0.23152
36.88380,0.22369
36.64272,0.21872
36.40165,0.21704
36.16058,0.22027
35.91951,0.22494
35.67844,0.22042
35.43737,0.20261
35.19630,0.18467
34.95523,0.18370
34.71416,0.19878
34.47309,0.21019
34.23202,0.20550
33.99095,0.19534
33.74988,0.19280
33.50881,0.19523
33.26774,0.19277
33.02667,0.18484
32.78560,0.18177
32.54453,0.18918
32.30345,0.19599
32.06238,0.18745
31.82131,0.16926
31.58024,0.15766
31.33917,0.15446
31.09810,0.14996
30.85703,0.13776
30.61596,0.11796
30.37489,0.09494
30.13382,0.07707
29.89275,0.07056
29.65168,0.07254
29.41061,0.07009
29.16954,0.05007
28.92847,0.01416
28.68740,-0.01829
28.44633,-0.02662
28.20526,-0.01029
27.96418,0.01265
27.72311,0.02272
27.48204,0.00918
27.24097,-0.02640
26.99990,-0.06667
26.75883,-0.08494
26.51776,-0.07040
26.27669,-0.04142
26.03562,-0.02573
25.79455,-0.03412
25.55348,-0.05738
25.31241,-0.08240
25.07134,-0.10336
24.83027,-0.12085
24.58920,-0.13688
24.34813,-0.15243
24.10706,-0.16783
23.86599,-0.18492
23.62491,-0.20712
23.38384,-0.23378
23.14277,-0.25655
22.90170,-0.26399
22.66063,-0.25260
22.41956,-0.23543
22.17849,-0.23371
21.93742,-0.25825
21.69635,-0.29816
21.45528,-0.32675
21.21421,-0.32704
20.97314,-0.30805
20.73207,-0.28894
20.49100,-0.27814
20.24993,-0.27121
20.00886,-0.26893
19.76779,-0.28620
19.52672,-0.32503
19.28564,-0.36134
19.04457,-0.36822
18.80350,-0.35017
18.56243,-0.33917
18.32136,-0.36523
18.08029,-0.42813
17.83922,-0.49086
17.59815,-0.51314
17.35708,-0.49431
17.11601,-0.47591
16.87494,-0.48233
16.63387,-0.49408
16.39280,-0.48936
16.15173,-0.47114
15.91066,-0.46093
15.66959,-0.46378
15.42852,-0.45128
15.18745,-0.41527
14.94637,-0.38766
14.70530,-0.38469
14.46423,-0.39935
14.22316,-0.41691
13.98209,-0.42732
13.74102,-0.42947
13.49995,-0.42365
13.25888,-0.42161
13.01781,-0.44158
12.77674,-0.47430
12.53567,-0.47829
12.29460,-0.48825
12.05353,-0.49836
11.81246,-0.48851
11.57139,-0.46219
11.33032,-0.43095
11.08925,-0.39747
10.84818,-0.36679
10.60710,-0.35250
10.36603,-0.35716
10.12496,-0.36489
9.88389,-0.35786
9.64282,-0.33914
9.40175,-0.32425
9.16068,-0.32640
8.91961,-0.35263
8.67854,-0.39375
8.43747,-0.42408
8.19640,-0.42754
7.95533,-0.41444
7.71426,-0.39813
7.47319,-0.38031
7.23212,-0.36570
6.99105,-0.36387
6.74998,-0.37109
6.50891,-0.37407
6.26783,-0.37074
6.02676,-0.36826
5.78569,-0.38100
5.54462,-0.41497
5.30355,-0.45275
5.06248,-0.47191
4.82141,-0.47158
4.58034,-0.46142
4.33927,-0.45249
4.09820,-0.45402
3.85713,-0.45136
3.61606,-0.43887
3.37499,-0.44190
3.13392,-0.44117
2.89285,-0.43684
2.65178,-0.43694
2.41071,-0.43646
2.16964,-0.44039
1.92856,-0.45538
1.68749,-0.47247
1.44642,-0.48543
1.20535,-0.48895
0.96428,-0.46610
0.72321,-0.44788
0.48214,-0.45608
0.24107,-0.43141
-0.00000,-0.06222
