399.69498,1.94561
399.45391,1.94813
399.21284,1.93316
398.97177,1.89439
398.73070,1.85344
398.48963,1.85203
398.24856,1.91257
398.00749,1.98879
397.76642,2.01873
397.52535,2.04381
397.28428,2.08737
397.04321,2.05522
396.80214,2.00748
396.56107,2.01515
396.32000,2.03376
396.07892,1.99079
395.83785,1.90776
395.59678,1.84366
395.35571,1.79071
395.11464,1.73801
394.87357,1.72877
394.63250,1.77899
394.39143,1.86118
394.15036,1.95606
393.90929,2.03503
393.66822,2.06034
393.42715,2.07181
393.18608,2.11993
392.94501,2.21987
392.70394,2.29589
392.46287,2.24392
392.22180,2.11684
391.98073,2.07497
391.73965,2.17846
391.49858,2.29658
391.25751,2.22377
391.01644,2.12575
390.77537,2.08126
390.53430,2.03590
390.29323,1.97333
390.05216,1.94710
389.81109,1.96022
389.57002,2.00001
389.32895,2.06423
389.08788,2.10342
388.84681,2.18421
388.60574,2.18709
388.36467,2.11339
388.12360,2.08757
387.88253,2.09453
387.64146,2.18777
387.40038,2.32017
387.15931,2.53896
386.91824,2.38304
386.67717,2.08729
386.43610,1.98444
386.19503,1.98603
385.95396,1.93564
385.71289,1.90373
385.47182,1.87833
385.23075,1.83725
384.98968,1.86494
384.74861,1.88926
384.50754,1.91457
384.26647,2.01074
384.02540,2.00375
383.78433,1.85808
383.54326,1.78113
383.30219,1.77432
383.06111,1.79846
382.82004,1.86539
382.57897,1.93789
382.33790,1.91675
382.09683,1.86342
381.85576,2.01320
381.61469,2.16062
381.37362,2.04836
381.13255,1.88005
380.89148,1.89258
380.65041,2.11224
380.40934,2.23831
380.16827,2.08405
379.92720,2.00949
379.68613,1.92766
379.44506,1.84867
379.20399,1.81368
378.96292,1.83330
378.72184,1.82107
378.48077,1.79440
378.23970,1.72930
377.99863,1.68872
377.75756,1.75109
377.51649,1.88288
377.27542,1.95859
377.03435,1.93893
376.79328,1.92457
376.55221,1.98558
376.31114,1.95945
376.07007,1.88541
375.82900,1.92032
375.58793,1.95161
375.34686,1.87186
375.10579,1.93952
374.86472,2.21133
374.62365,2.35599
374.38257,2.19170
374.14150,2.13618
373.90043,2.04767
373.65936,2.06639
373.41829,2.30189
373.17722,2.39191
372.93615,2.19268
372.69508,2.12078
372.45401,2.01999
372.21294,1.88447
371.97187,1.77874
371.73080,1.74438
371.48973,1.80670
371.24866,1.90232
371.00759,1.92044
370.76652,1.92594
370.52545,1.90254
370.28437,1.83122
370.04330,1.76873
369.80223,1.75253
369.56116,1.78575
369.32009,1.86371
369.07902,1.95411
368.83795,1.98212
368.59688,1.94764
368.35581,1.92681
368.11474,1.87847
367.87367,1.75032
367.63260,1.65103
367.39153,1.60751
367.15046,1.58282
366.90939,1.56277
366.66832,1.54391
366.42725,1.52670
366.18618,1.52538
365.94510,1.55247
365.70403,1.59790
365.46296,1.62430
365.22189,1.60706
364.98082,1.57876
364.73975,1.58038
364.49868,1.60442
364.25761,1.62041
364.01654,1.61113
363.77547,1.57416
363.53440,1.52989
363.29333,1.49885
363.05226,1.48946
362.81119,1.50185
362.57012,1.52143
362.32905,1.52915
362.08798,1.52216
361.84691,1.50894
361.60583,1.49064
361.36476,1.46117
361.12369,1.43092
360.88262,1.42336
360.64155,1.44867
360.40048,1.49227
360.15941,1.52791
359.91834,1.54584
359.67727,1.55636
359.43620,1.55873
359.19513,1.55025
358.95406,1.54812
358.71299,1.56721
358.47192,1.59566
358.23085,1.60559
357.98978,1.59261
357.74871,1.58211
357.50764,1.58322
357.26656,1.57913
357.02549,1.56434
356.78442,1.55084
356.54335,1.53524
356.30228,1.50473
356.06121,1.47239
355.82014,1.46669
355.57907,1.49744
355.33800,1.53530
355.09693,1.53057
354.85586,1.48853
354.61479,1.45647
354.37372,1.45349
354.13265,1.46017
353.89158,1.44841
353.65051,1.42595
353.40944,1.42274
353.16837,1.44680
352.92729,1.48241
352.68622,1.51518
352.44515,1.54273
352.20408,1.56149
351.96301,1.56244
351.72194,1.55234
351.48087,1.56075
351.23980,1.59768
350.99873,1.62465
350.75766,1.60967
350.51659,1.57975
350.27552,1.55024
350.03445,1.51824
349.79338,1.49410
349.55231,1.48370
349.31124,1.47857
349.07017,1.46699
348.82910,1.45440
348.58802,1.45996
348.34695,1.48982
348.10588,1.52410
347.86481,1.54279
347.62374,1.55039
347.38267,1.54801
347.14160,1.53412
346.90053,1.52081
346.65946,1.51748
346.41839,1.53375
346.17732,1.57465
345.93625,1.61862
345.69518,1.63157
345.45411,1.61776
345.21304,1.61190
344.97197,1.63149
344.73090,1.67013
344.48983,1.71071
344.24875,1.73464
344.00768,1.73327
343.76661,1.70120
343.52554,1.65831
343.28447,1.65630
343.04340,1.70667
342.80233,1.75055
342.56126,1.72951
342.32019,1.68593
342.07912,1.67530
341.83805,1.71300
341.59698,1.79266
341.35591,1.89785
341.11484,1.99053
340.87377,2.02698
340.63270,2.00051
340.39163,1.92687
340.15056,1.82763
339.90948,1.75583
339.66841,1.74421
339.42734,1.79138
339.18627,1.87119
338.94520,1.91901
338.70413,1.90419
338.46306,1.86397
338.22199,1.84890
337.98092,1.86380
337.73985,1.85844
337.49878,1.82503
337.25771,1.81123
337.01664,1.82175
336.77557,1.83090
336.53450,1.83438
336.29343,1.84590
336.05236,1.86278
335.81129,1.88179
335.57021,1.90650
335.32914,1.92658
335.08807,1.95732
334.84700,1.95099
334.60593,1.92914
334.36486,1.96806
334.12379,2.01811
333.88272,2.05804
333.64165,2.07554
333.40058,2.03240
333.15951,1.93304
332.91844,1.83748
332.67737,1.78495
332.43630,1.77325
332.19523,1.76129
331.95416,1.70992
331.71309,1.65197
331.47202,1.65064
331.23094,1.72143
330.98987,1.79985
330.74880,1.78843
330.50773,1.72706
330.26666,1.71295
330.02559,1.75579
329.78452,1.80001
329.54345,1.79885
329.30238,1.75051
329.06131,1.68644
328.82024,1.62105
328.57917,1.58877
328.33810,1.60873
328.09703,1.65658
327.85596,1.68158
327.61489,1.66372
327.37382,1.64067
327.13275,1.66445
326.89167,1.74656
326.65060,1.83991
326.40953,1.83320
326.16846,1.72204
325.92739,1.61591
325.68632,1.55306
325.44525,1.54342
325.20418,1.57715
324.96311,1.62280
324.72204,1.65562
324.48097,1.68562
324.23990,1.73988
323.99883,1.82256
323.75776,1.88949
323.51669,1.90449
323.27562,1.90061
323.03455,1.89691
322.79348,1.88868
322.55240,1.87318
322.31133,1.87025
322.07026,1.92596
321.82919,1.96811
321.58812,1.93818
321.34705,1.87830
321.10598,1.80922
320.86491,1.74819
320.62384,1.72804
320.38277,1.75993
320.14170,1.82401
319.90063,1.87331
319.65956,1.88177
319.41849,1.88279
319.17742,1.96966
318.93635,2.18096
318.69528,2.09557
318.45421,1.97796
318.21313,2.03234
317.97206,2.18887
317.73099,2.12563
317.48992,2.06099
317.24885,1.95695
317.00778,1.90176
316.76671,1.93259
316.52564,1.99999
316.28457,2.13191
316.04350,2.38819
315.80243,2.32824
315.56136,2.03734
315.32029,1.91095
315.07922,1.96846
314.83815,2.07334
314.59708,2.17043
314.35601,2.26966
314.11494,2.34229
313.87386,2.46758
313.63279,2.53218
313.39172,2.39420
313.15065,2.37896
312.90958,2.35315
312.66851,2.20832
312.42744,2.02809
312.18637,1.93869
311.94530,1.99513
311.70423,2.23646
311.46316,2.59959
311.22209,2.54707
310.98102,2.33982
310.73995,2.26352
310.49888,2.40874
310.25781,2.49883
310.01674,2.25752
309.77567,2.05329
309.53459,1.95958
309.29352,1.97700
309.05245,2.01600
308.81138,2.00543
308.57031,2.00973
308.32924,2.04457
308.08817,2.01806
307.84710,1.94401
307.60603,1.94543
307.36496,1.99033
307.12389,1.99134
306.88282,1.95656
306.64175,1.88646
306.40068,1.77587
306.15961,1.66834
305.91854,1.59498
305.67747,1.56366
305.43640,1.56854
305.19532,1.57853
304.95425,1.56514
304.71318,1.54883
304.47211,1.56086
304.23104,1.59350
303.98997,1.60649
303.74890,1.58525
303.50783,1.56805
303.26676,1.58426
303.02569,1.60250
302.78462,1.57487
302.54355,1.51943
302.30248,1.47479
302.06141,1.44567
301.82034,1.41913
301.57927,1.39510
301.33820,1.38999
301.09713,1.41355
300.85605,1.45377
300.61498,1.48011
300.37391,1.46579
300.13284,1.41854
299.89177,1.37187
299.65070,1.34344
299.40963,1.32764
299.16856,1.31849
298.92749,1.31131
298.68642,1.30118
298.44535,1.29490
298.20428,1.30052
297.96321,1.31230
297.72214,1.31431
297.48107,1.30097
297.24000,1.28622
296.99893,1.28058
296.75786,1.27668
296.51678,1.26372
296.27571,1.24340
296.03464,1.22488
295.79357,1.21204
295.55250,1.20421
295.31143,1.20332
295.07036,1.21162
294.82929,1.22470
294.58822,1.23268
294.34715,1.22917
294.10608,1.21615
293.86501,1.19926
293.62394,1.18200
293.38287,1.16637
293.14180,1.15341
292.90073,1.14502
292.65966,1.14724
292.41859,1.16002
292.17751,1.17169
291.93644,1.17165
291.69537,1.16019
291.45430,1.14537
291.21323,1.13397
290.97216,1.12775
290.73109,1.12627
290.49002,1.12798
290.24895,1.12920
290.00788,1.12715
289.76681,1.12413
289.52574,1.12387
289.28467,1.12317
289.04360,1.11676
288.80253,1.10855
288.56146,1.10609
288.32039,1.11034
288.07932,1.11575
287.83824,1.11749
287.59717,1.11651
287.35610,1.11564
287.11503,1.11468
286.87396,1.11101
286.63289,1.10398
286.39182,1.09647
286.15075,1.09098
285.90968,1.08844
285.66861,1.08870
285.42754,1.09132
285.18647,1.09694
284.94540,1.10461
284.70433,1.10895
284.46326,1.10609
284.22219,1.09922
283.98112,1.09329
283.74005,1.09031
283.49897,1.09146
283.25790,1.09645
283.01683,1.10107
282.77576,1.10132
282.53469,1.09891
282.29362,1.09768
282.05255,1.09679
281.81148,1.09214
281.57041,1.08321
281.32934,1.07494
281.08827,1.07305
280.84720,1.07801
280.60613,1.08506
280.36506,1.09093
280.12399,1.09750
279.88292,1.10641
279.64185,1.11386
279.40078,1.11513
279.15970,1.11093
278.91863,1.10467
278.67756,1.09695
278.43649,1.08825
278.19542,1.08245
277.95435,1.08156
277.71328,1.08271
277.47221,1.08380
277.23114,1.08547
276.99007,1.08680
276.74900,1.08469
276.50793,1.07759
276.26686,1.06692
276.02579,1.05609
275.78472,1.04833
275.54365,1.04310
275.30258,1.03781
275.06151,1.03434
274.82043,1.03801
274.57936,1.04920
274.33829,1.06140
274.09722,1.06802
273.85615,1.06775
273.61508,1.06331
273.37401,1.05875
273.13294,1.05774
272.89187,1.06162
272.65080,1.06844
272.40973,1.07443
272.16866,1.07840
271.92759,1.08286
271.68652,1.08776
271.44545,1.08855
271.20438,1.08388
270.96331,1.07894
270.72224,1.07846
270.48116,1.08167
270.24009,1.08492
269.99902,1.08700
269.75795,1.09013
269.51688,1.09619
269.27581,1.10346
269.03474,1.10899
268.79367,1.11171
268.55260,1.11168
268.31153,1.11006
268.07046,1.11112
267.82939,1.11877
267.58832,1.12957
267.34725,1.13403
267.10618,1.12792
266.86511,1.11927
266.62404,1.11890
266.38297,1.12889
266.14189,1.14321
265.90082,1.15422
265.65975,1.15888
265.41868,1.16038
265.17761,1.16454
264.93654,1.17564
264.69547,1.19331
264.45440,1.21051
264.21333,1.21736
263.97226,1.21229
263.73119,1.20682
263.49012,1.21355
263.24905,1.23235
263.00798,1.24927
262.76691,1.25037
262.52584,1.23967
262.28477,1.23372
262.04370,1.23873
261.80262,1.24932
261.56155,1.26147
261.32048,1.27051
261.07941,1.27122
260.83834,1.26781
260.59727,1.27185
260.35620,1.28964
260.11513,1.31646
259.87406,1.34452
259.63299,1.37111
259.39192,1.39692
259.15085,1.42115
258.90978,1.43909
258.66871,1.45361
258.42764,1.47920
258.18657,1.51707
257.94550,1.54406
257.70443,1.54077
257.46335,1.52411
257.22228,1.52248
256.98121,1.54137
256.74014,1.57452
256.49907,1.62276
256.25800,1.68494
256.01693,1.73619
255.77586,1.74825
255.53479,1.73395
255.29372,1.73353
255.05265,1.76705
254.81158,1.82012
254.57051,1.86615
254.32944,1.90874
254.08837,1.96527
253.84730,2.01703
253.60623,2.02191
253.36516,1.98187
253.12408,1.94723
252.88301,1.94522
252.64194,1.96314
252.40087,2.00652
252.15980,2.10556
251.91873,2.26760
251.67766,2.35615
251.43659,2.23308
251.19552,2.12179
250.95445,2.14919
250.71338,2.34732
250.47231,2.67328
250.23124,2.82868
249.99017,2.56389
249.74910,2.28462
249.50803,2.19973
249.26696,2.26742
249.02589,2.37772
248.78481,2.33205
248.54374,2.17494
248.30267,2.11406
248.06160,2.19376
247.82053,2.39081
247.57946,2.34646
247.33839,2.23992
247.09732,2.17820
246.85625,2.17565
246.61518,2.28386
246.37411,2.26562
246.13304,2.13939
245.89197,2.07445
245.65090,2.05395
245.40983,2.05180
245.16876,2.06993
244.92769,2.08723
244.68661,2.08246
244.44554,2.02064
244.20447,1.90613
243.96340,1.78909
243.72233,1.70386
243.48126,1.65894
243.24019,1.63562
242.99912,1.60428
242.75805,1.55331
242.51698,1.49744
242.27591,1.44721
242.03484,1.39750
241.79377,1.34717
241.55270,1.30348
241.31163,1.26755
241.07056,1.23196
240.82949,1.19253
240.58842,1.15382
240.34734,1.12142
240.10627,1.09622
239.86520,1.07579
239.62413,1.05773
239.38306,1.04195
239.14199,1.02944
238.90092,1.01975
238.65985,1.01124
238.41878,1.00240
238.17771,0.99254
237.93664,0.98060
237.69557,0.96457
237.45450,0.94406
237.21343,0.92275
236.97236,0.90573
236.73129,0.89409
236.49022,0.88518
236.24915,0.87758
236.00807,0.87218
235.76700,0.86825
235.52593,0.86234
235.28486,0.85302
235.04379,0.84434
234.80272,0.84110
234.56165,0.84167
234.32058,0.83945
234.07951,0.83157
233.83844,0.82123
233.59737,0.81132
233.35630,0.80187
233.11523,0.79398
232.87416,0.79036
232.63309,0.79111
232.39202,0.79249
232.15095,0.79067
231.90988,0.78553
231.66880,0.78073
231.42773,0.78004
231.18666,0.78315
230.94559,0.78642
230.70452,0.78760
230.46345,0.78676
230.22238,0.78269
229.98131,0.77336
229.74024,0.76124
229.49917,0.75362
229.25810,0.75438
229.01703,0.75898
228.77596,0.75942
228.53489,0.75340
228.29382,0.74582
228.05275,0.74083
227.81168,0.73786
227.57061,0.73593
227.32953,0.73578
227.08846,0.73677
226.84739,0.73656
226.60632,0.73495
226.36525,0.73438
226.12418,0.73569
225.88311,0.73629
225.64204,0.73313
225.40097,0.72712
225.15990,0.72343
224.91883,0.72557
224.67776,0.73098
224.43669,0.73456
224.19562,0.73549
223.95455,0.73714
223.71348,0.74089
223.47241,0.74401
223.23134,0.74448
222.99026,0.74498
222.74919,0.74964
222.50812,0.75855
222.26705,0.76811
222.02598,0.77518
221.78491,0.77861
221.54384,0.77909
221.30277,0.77987
221.06170,0.78422
220.82063,0.79096
220.57956,0.79644
220.33849,0.80088
220.09742,0.80795
219.85635,0.81718
219.61528,0.82251
219.37421,0.82154
219.13314,0.82096
218.89207,0.82769
218.65099,0.84005
218.40992,0.85231
218.16885,0.86317
217.92778,0.87335
217.68671,0.87982
217.44564,0.88026
217.20457,0.87912
216.96350,0.88238
216.72243,0.89018
216.48136,0.89933
216.24029,0.91021
215.99922,0.92566
215.75815,0.94457
215.51708,0.96164
215.27601,0.97375
215.03494,0.98277
214.79387,0.99086
214.55280,0.99738
214.31172,1.00112
214.07065,1.00269
213.82958,1.00512
213.58851,1.01121
213.34744,1.01909
213.10637,1.02504
212.86530,1.02848
212.62423,1.02992
212.38316,1.02802
212.14209,1.02335
211.90102,1.02124
211.65995,1.02601
211.41888,1.03509
211.17781,1.04210
210.93674,1.04536
210.69567,1.04952
210.45460,1.05576
210.21353,1.05702
209.97245,1.04831
209.73138,1.03395
209.49031,1.02146
209.24924,1.01488
209.00817,1.01466
208.76710,1.01867
208.52603,1.02357
208.28496,1.02733
208.04389,1.02947
207.80282,1.02987
207.56175,1.02860
207.32068,1.02683
207.07961,1.02507
206.83854,1.02084
206.59747,1.01242
206.35640,1.00132
206.11533,0.98934
205.87426,0.97573
205.63318,0.95955
205.39211,0.94276
205.15104,0.92800
204.90997,0.91525
204.66890,0.90304
204.42783,0.89138
204.18676,0.88222
203.94569,0.87702
203.70462,0.87418
203.46355,0.87052
203.22248,0.86539
202.98141,0.86023
202.74034,0.85456
202.49927,0.84630
202.25820,0.83558
202.01713,0.82487
201.77606,0.81615
201.53499,0.80964
201.29391,0.80389
201.05284,0.79596
200.81177,0.78379
200.57070,0.76973
200.32963,0.75868
200.08856,0.75165
199.84749,0.74519
199.60642,0.73735
199.36535,0.72974
199.12428,0.72359
198.88321,0.71788
198.64214,0.71159
198.40107,0.70481
198.16000,0.69786
197.91893,0.69053
197.67786,0.68218
197.43679,0.67185
197.19572,0.65956
196.95464,0.64746
196.71357,0.63858
196.47250,0.63417
196.23143,0.63278
195.99036,0.63124
195.74929,0.62661
195.50822,0.61778
195.26715,0.60608
195.02608,0.59482
194.78501,0.58746
194.54394,0.58451
194.30287,0.58273
194.06180,0.57929
193.82073,0.57546
193.57966,0.57382
193.33859,0.57319
193.09752,0.57009
192.85645,0.56447
192.61537,0.55948
192.37430,0.55618
192.13323,0.55236
191.89216,0.54656
191.65109,0.54024
191.41002,0.53539
191.16895,0.53226
190.92788,0.52983
190.68681,0.52736
190.44574,0.52495
190.20467,0.52300
189.96360,0.52153
189.72253,0.52010
189.48146,0.51799
189.24039,0.51458
188.99932,0.50969
188.75825,0.50428
188.51718,0.50069
188.27610,0.50127
188.03503,0.50594
187.79396,0.51139
187.55289,0.51363
187.31182,0.51186
187.07075,0.50881
186.82968,0.50698
186.58861,0.50623
186.34754,0.50550
186.10647,0.50487
185.86540,0.50487
185.62433,0.50526
185.38326,0.50539
185.14219,0.50523
184.90112,0.50530
184.66005,0.50537
184.41898,0.50426
184.17791,0.50158
183.93683,0.49894
183.69576,0.49824
183.45469,0.49951
183.21362,0.50145
182.97255,0.50313
182.73148,0.50475
182.49041,0.50702
182.24934,0.50952
182.00827,0.51047
181.76720,0.50910
181.52613,0.50715
181.28506,0.50665
181.04399,0.50755
180.80292,0.50915
180.56185,0.51172
180.32078,0.51531
180.07971,0.51902
179.83864,0.52180
179.59756,0.52335
179.35649,0.52494
179.11542,0.52912
178.87435,0.53700
178.63328,0.54631
178.39221,0.55425
178.15114,0.56131
177.91007,0.57008
177.66900,0.58100
177.42793,0.59124
177.18686,0.59795
176.94579,0.60188
176.70472,0.60718
176.46365,0.61706
176.22258,0.63075
175.98151,0.64541
175.74044,0.65938
175.49937,0.67217
175.25829,0.68358
175.01722,0.69490
174.77615,0.70834
174.53508,0.72330
174.29401,0.73687
174.05294,0.74845
173.81187,0.75993
173.57080,0.77205
173.32973,0.78437
173.08866,0.79611
172.84759,0.80512
172.60652,0.80889
172.36545,0.80776
172.12438,0.80572
171.88331,0.80689
171.64224,0.81220
171.40117,0.81938
171.16010,0.82456
170.91902,0.82541
170.67795,0.82385
170.43688,0.82349
170.19581,0.82455
169.95474,0.82345
169.71367,0.81642
169.47260,0.80306
169.23153,0.78745
168.99046,0.77521
168.74939,0.76939
168.50832,0.76964
168.26725,0.77344
168.02618,0.77673
167.78511,0.77642
167.54404,0.77380
167.30297,0.77233
167.06190,0.77232
166.82083,0.77171
166.57975,0.77083
166.33868,0.77120
166.09761,0.77173
165.85654,0.77130
165.61547,0.77240
165.37440,0.77839
165.13333,0.78914
164.89226,0.80194
164.65119,0.81439
164.41012,0.82424
164.16905,0.82945
163.92798,0.83031
163.68691,0.83020
163.44584,0.83368
163.20477,0.84264
162.96370,0.85444
162.72263,0.86382
162.48156,0.86754
162.24048,0.86695
161.99941,0.86568
161.75834,0.86587
161.51727,0.86676
161.27620,0.86591
161.03513,0.86218
160.79406,0.85823
160.55299,0.85809
160.31192,0.86207
160.07085,0.86635
159.82978,0.86753
159.58871,0.86461
159.34764,0.85750
159.10657,0.84752
158.86550,0.83832
158.62443,0.83313
158.38336,0.83226
158.14229,0.83371
157.90121,0.83447
157.66014,0.83185
157.41907,0.82549
157.17800,0.81774
156.93693,0.81094
156.69586,0.80548
156.45479,0.80135
156.21372,0.79911
155.97265,0.79821
155.73158,0.79671
155.49051,0.79337
155.24944,0.78808
155.00837,0.78121
154.76730,0.77358
154.52623,0.76565
154.28516,0.75669
154.04409,0.74600
153.80302,0.73426
153.56194,0.72261
153.32087,0.71124
153.07980,0.69941
152.83873,0.68615
152.59766,0.67172
152.35659,0.65799
152.11552,0.64626
151.87445,0.63566
151.63338,0.62499
151.39231,0.61419
151.15124,0.60333
150.91017,0.59185
150.66910,0.57925
150.42803,0.56582
150.18696,0.55297
149.94589,0.54281
149.70482,0.53598
149.46375,0.53038
149.22267,0.52294
148.98160,0.51265
148.74053,0.50147
148.49946,0.49248
148.25839,0.48741
148.01732,0.48537
147.77625,0.48359
147.53518,0.48001
147.29411,0.47507
147.05304,0.47101
146.81197,0.46978
146.57090,0.47174
146.32983,0.47558
146.08876,0.47977
145.84769,0.48438
145.60662,0.49061
145.36555,0.49828
145.12448,0.50503
144.88340,0.50889
144.64233,0.51037
144.40126,0.51116
144.16019,0.51213
143.91912,0.51306
143.67805,0.51319
143.43698,0.51171
143.19591,0.50822
142.95484,0.50312
142.71377,0.49731
142.47270,0.49152
142.23163,0.48597
141.99056,0.48029
141.74949,0.47394
141.50842,0.46700
141.26735,0.46066
141.02628,0.45583
140.78521,0.45187
140.54413,0.44749
140.30306,0.44286
140.06199,0.43983
139.82092,0.44047
139.57985,0.44487
139.33878,0.45033
139.09771,0.45336
138.85664,0.45343
138.61557,0.45393
138.37450,0.45847
138.13343,0.46690
137.89236,0.47570
137.65129,0.48292
137.41022,0.49128
137.16915,0.50433
136.92808,0.52126
136.68701,0.53777
136.44594,0.55142
136.20486,0.56423
135.96379,0.57991
135.72272,0.59994
135.48165,0.62249
135.24058,0.64519
134.99951,0.66837
134.75844,0.69292
134.51737,0.71590
134.27630,0.73352
134.03523,0.74828
133.79416,0.76779
133.55309,0.79588
133.31202,0.82751
133.07095,0.85392
132.82988,0.87216
132.58881,0.88633
132.34774,0.89920
132.10667,0.90959
131.86559,0.91782
131.62452,0.92448
131.38345,0.92658
131.14238,0.92226
130.90131,0.91505
130.66024,0.90822
130.41917,0.90042
130.17810,0.89082
129.93703,0.88096
129.69596,0.86886
129.45489,0.84912
129.21382,0.82207
128.97275,0.79432
128.73168,0.76984
128.49061,0.74657
128.24954,0.72032
128.00847,0.68924
127.76740,0.65538
127.52632,0.62403
127.28525,0.60019
127.04418,0.58422
126.80311,0.57193
126.56204,0.55854
126.32097,0.54187
126.07990,0.52347
125.83883,0.50687
125.59776,0.49339
125.35669,0.48083
125.11562,0.46767
124.87455,0.45537
124.63348,0.44475
124.39241,0.43409
124.15134,0.42303
123.91027,0.41468
123.66920,0.41113
123.42812,0.40986
123.18705,0.40633
122.94598,0.39847
122.70491,0.38796
122.46384,0.37895
122.22277,0.37550
121.98170,0.37802
121.74063,0.38248
121.49956,0.38481
121.25849,0.38509
121.01742,0.38601
120.77635,0.38913
120.53528,0.39462
120.29421,0.40304
120.05314,0.41489
119.81207,0.42870
119.57100,0.44201
119.32993,0.45446
119.08885,0.46850
118.84778,0.48640
118.60671,0.50825
118.36564,0.53298
118.12457,0.55871
117.88350,0.58184
117.64243,0.59944
117.40136,0.61276
117.16029,0.62523
116.91922,0.63764
116.67815,0.64744
116.43708,0.65148
116.19601,0.64919
115.95494,0.64302
115.71387,0.63514
115.47280,0.62505
115.23173,0.61148
114.99066,0.59563
114.74958,0.58063
114.50851,0.56810
114.26744,0.55721
114.02637,0.54728
113.78530,0.54009
113.54423,0.53776
113.30316,0.53868
113.06209,0.53868
112.82102,0.53739
112.57995,0.53948
112.33888,0.54730
112.09781,0.55621
111.85674,0.55957
111.61567,0.55631
111.37460,0.55181
111.13353,0.55203
110.89246,0.55809
110.65139,0.56623
110.41031,0.57079
110.16924,0.56836
109.92817,0.56017
109.68710,0.54931
109.44603,0.53708
109.20496,0.52397
108.96389,0.51142
108.72282,0.50033
108.48175,0.48997
108.24068,0.47945
107.99961,0.46829
107.75854,0.45552
107.51747,0.44043
107.27640,0.42419
107.03533,0.40844
106.79426,0.39316
106.55319,0.37808
106.31212,0.36500
106.07104,0.35585
105.82997,0.34923
105.58890,0.34162
105.34783,0.33189
105.10676,0.32228
104.86569,0.31455
104.62462,0.30781
104.38355,0.30093
104.14248,0.29468
103.90141,0.28978
103.66034,0.28484
103.41927,0.27814
103.17820,0.27008
102.93713,0.26275
102.69606,0.25774
102.45499,0.25451
102.21392,0.25090
101.97285,0.24532
101.73177,0.23821
101.49070,0.23124
101.24963,0.22611
101.00856,0.22379
100.76749,0.22343
100.52642,0.22250
100.28535,0.21978
100.04428,0.21719
99.80321,0.21704
99.56214,0.21918
99.32107,0.22148
99.08000,0.22183
98.83893,0.21953
98.59786,0.21582
98.35679,0.21267
98.11572,0.21083
97.87465,0.20977
97.63358,0.20900
97.39250,0.20892
97.15143,0.21052
96.91036,0.21418
96.66929,0.21874
96.42822,0.22251
96.18715,0.22535
95.94608,0.22850
95.70501,0.23239
95.46394,0.23650
95.22287,0.24083
94.98180,0.24583
94.74073,0.25085
94.49966,0.25409
94.25859,0.25444
94.01752,0.25305
93.77645,0.25259
93.53538,0.25457
93.29431,0.25756
93.05323,0.25869
92.81216,0.25639
92.57109,0.25151
92.33002,0.24665
92.08895,0.24493
91.84788,0.24784
91.60681,0.25400
91.36574,0.26078
91.12467,0.26760
90.88360,0.27703
90.64253,0.29259
90.40146,0.31552
90.16039,0.34376
89.91932,0.37425
89.67825,0.40617
89.43718,0.44061
89.19611,0.47657
88.95504,0.50977
88.71396,0.53628
88.47289,0.55425
88.23182,0.56177
87.99075,0.55737
87.74968,0.54272
87.50861,0.52095
87.26754,0.49415
87.02647,0.46458
86.78540,0.43482
86.54433,0.40571
86.30326,0.37748
86.06219,0.35202
85.82112,0.33098
85.58005,0.31302
85.33898,0.29552
85.09791,0.27770
84.85684,0.26011
84.61577,0.24337
84.37469,0.22894
84.13362,0.21897
83.89255,0.21374
83.65148,0.21022
83.41041,0.20445
83.16934,0.19519
82.92827,0.18494
82.68720,0.17713
82.44613,0.17269
82.20506,0.16975
81.96399,0.16621
81.72292,0.16204
81.48185,0.15822
81.24078,0.15456
80.99971,0.15006
80.75864,0.14486
80.51757,0.14010
80.27650,0.13614
80.03542,0.13245
79.79435,0.12878
79.55328,0.12575
79.31221,0.12423
79.07114,0.12407
78.83007,0.12354
78.58900,0.12126
78.34793,0.11842
78.10686,0.11703
77.86579,0.11682
77.62472,0.11617
77.38365,0.11494
77.14258,0.11433
76.90151,0.11450
76.66044,0.11399
76.41937,0.11173
76.17830,0.10861
75.93723,0.10624
75.69615,0.10472
75.45508,0.10293
75.21401,0.10096
74.97294,0.10060
74.73187,0.10312
74.49080,0.10745
74.24973,0.11093
74.00866,0.11189
73.76759,0.11089
73.52652,0.10939
73.28545,0.10815
73.04438,0.10744
72.80331,0.10745
72.56224,0.10803
72.32117,0.10888
72.08010,0.10926
71.83903,0.10802
71.59796,0.10479
71.35688,0.10134
71.11581,0.10045
70.87474,0.10342
70.63367,0.10955
70.39260,0.11706
70.15153,0.12350
69.91046,0.12720
69.66939,0.12970
69.42832,0.13439
69.18725,0.14142
68.94618,0.14640
68.70511,0.14569
68.46404,0.14009
68.22297,0.13235
67.98190,0.12433
67.74083,0.11713
67.49976,0.11103
67.25869,0.10495
67.01761,0.09791
66.77654,0.09112
66.53547,0.08718
66.29440,0.08715
66.05333,0.08911
65.81226,0.08983
65.57119,0.08812
65.33012,0.08666
65.08905,0.08929
64.84798,0.09665
64.60691,0.10607
64.36584,0.11507
64.12477,0.12272
63.88370,0.12807
63.64263,0.12973
63.40156,0.12745
63.16049,0.12213
62.91942,0.11485
62.67834,0.10760
62.43727,0.10314
62.19620,0.10163
61.95513,0.09951
61.71406,0.09388
61.47299,0.08642
61.23192,0.08087
60.99085,0.07866
60.74978,0.07828
60.50871,0.07770
60.26764,0.07654
60.02657,0.07591
59.78550,0.07600
59.54443,0.07469
59.30336,0.07010
59.06229,0.06373
58.82122,0.05920
58.58015,0.05830
58.33907,0.05947
58.09800,0.06006
57.85693,0.05896
57.61586,0.05723
57.37479,0.05638
57.13372,0.05591
56.89265,0.05300
56.65158,0.04636
56.41051,0.03930
56.16944,0.03603
55.92837,0.03617
55.68730,0.03626
55.44623,0.03523
55.20516,0.03550
54.96409,0.03985
54.72302,0.04848
54.48195,0.05837
54.24088,0.06538
53.99980,0.06769
53.75873,0.06643
53.51766,0.06350
53.27659,0.06047
53.03552,0.05888
52.79445,0.05979
52.55338,0.06297
52.31231,0.06714
52.07124,0.07085
51.83017,0.07294
51.58910,0.07272
51.34803,0.06981
51.10696,0.06527
50.86589,0.06219
50.62482,0.06284
50.38375,0.06547
50.14268,0.06620
49.90161,0.06328
49.66053,0.05729
49.41946,0.04912
49.17839,0.04048
48.93732,0.03358
48.69625,0.02726
48.45518,0.01735
48.21411,0.00378
47.97304,-0.00659
47.73197,-0.00735
47.49090,0.00037
47.24983,0.00989
47.00876,0.01430
46.76769,0.01002
46.52662,-0.00003
46.28555,-0.00809
46.04448,-0.00868
45.80341,-0.00275
45.56234,0.00471
45.32126,0.00879
45.08019,0.00725
44.83912,0.00196
44.59805,-0.00189
44.35698,-0.00071
44.11591,0.00302
43.87484,0.00377
43.63377,-0.00063
43.39270,-0.00707
43.15163,-0.01125
42.91056,-0.01165
42.66949,-0.00927
42.42842,-0.00613
42.18735,-0.00348
41.94628,-0.00017
41.70521,0.00558
41.46414,0.01228
41.22307,0.01478
40.98199,0.00897
40.74092,-0.00338
40.49985,-0.01584
40.25878,-0.02208
40.01771,-0.01945
39.77664,-0.00910
39.53557,0.00564
39.29450,0.02066
39.05343,0.03327
38.81236,0.04224
38.57129,0.04621
38.33022,0.04498
38.08915,0.04217
37.84808,0.04313
37.60701,0.04964
37.36594,0.05839
37.12487,0.06282
36.88380,0.05518
36.64272,0.03134
36.40165,-0.00329
36.16058,-0.03382
35.91951,-0.04835
35.67844,-0.04860
35.43737,-0.04022
35.19630,-0.02324
34.95523,0.00344
34.71416,0.03328
34.47309,0.05191
34.23202,0.04928
33.99095,0.03082
33.74988,0.02004
33.50881,0.03912
33.26774,0.08208
33.02667,0.12167
32.78560,0.13958
32.54453,0.14001
32.30345,0.13655
32.06238,0.13510
31.82131,0.12880
31.58024,0.10856
31.33917,0.07656
31.09810,0.05119
30.85703,0.05393
30.61596,0.07808
30.37489,0.09047
30.13382,0.07137
29.89275,0.03789
29.65168,0.01909
29.41061,0.02346
29.16954,0.04158
28.92847,0.05618
28.68740,0.05182
28.44633,0.03362
28.20526,0.02836
27.96418,0.06362
27.72311,0.13802
27.48204,0.20957
27.24097,0.24131
26.99990,0.23904
26.75883,0.22801
26.51776,0.22224
26.27669,0.21576
26.03562,0.20956
25.79455,0.23352
25.55348,0.29818
25.31241,0.36374
25.07134,0.37341
24.83027,0.33361
24.58920,0.29604
24.34813,0.28232
24.10706,0.27802
23.86599,0.26909
23.62491,0.26306
23.38384,0.27686
23.14277,0.31638
22.90170,0.36432
22.66063,0.37790
22.41956,0.35254
22.17849,0.34478
21.93742,0.33623
21.69635,0.31130
21.45528,0.31453
21.21421,0.36080
20.97314,0.41200
20.73207,0.45311
20.49100,0.50227
20.24993,0.58301
20.00886,0.68688
19.76779,0.74807
19.52672,0.75886
19.28564,0.69058
19.04457,0.58346
18.80350,0.52084
18.56243,0.53656
18.32136,0.61422
18.08029,0.69563
17.83922,0.71464
17.59815,0.69623
17.35708,0.67347
17.11601,0.67068
16.87494,0.74198
16.63387,0.88265
16.39280,0.85677
16.15173,0.72351
15.91066,0.64365
15.66959,0.62541
15.42852,0.66050
15.18745,0.71089
14.94637,0.74761
14.70530,0.71491
14.46423,0.67870
14.22316,0.67646
13.98209,0.74733
13.74102,0.85651
13.49995,0.89823
13.25888,0.72404
13.01781,0.54044
12.77674,0.46725
12.53567,0.52029
12.29460,0.64341
12.05353,0.64383
11.81246,0.62633
11.57139,0.70512
11.33032,0.95276
11.08925,1.31506
10.84818,0.94602
10.60710,0.71585
10.36603,0.71857
10.12496,0.64901
9.88389,0.53350
9.64282,0.53627
9.40175,0.56423
9.16068,0.55957
8.91961,0.65798
8.67854,0.68626
8.43747,0.67228
8.19640,0.78110
7.95533,0.89881
7.71426,0.76970
7.47319,0.61937
7.23212,0.55675
6.99105,0.54548
6.74998,0.53823
6.50891,0.58693
6.26783,0.66497
6.02676,0.63774
5.78569,0.55044
5.54462,0.62988
5.30355,0.61492
5.06248,0.47272
4.82141,0.48056
4.58034,0.61349
4.33927,0.68451
4.09820,0.63023
3.85713,0.66032
3.61606,0.79446
3.37499,0.75454
3.13392,0.62023
2.89285,0.51571
2.65178,0.48690
2.41071,0.55967
2.16964,0.66053
1.92856,0.62522
1.68749,0.68371
1.44642,0.82824
1.20535,0.83270
0.96428,0.77219
0.72321,0.79225
0.48214,0.82473
0.24107,0.74071
-0.00000,0.48734
