399.69498,1.54798
399.45391,1.56168
399.21284,1.58208
398.97177,1.60241
398.73070,1.61393
398.48963,1.61442
398.24856,1.60462
398.00749,1.58581
397.76642,1.56425
397.52535,1.55169
397.28428,1.55256
397.04321,1.55908
396.80214,1.55918
396.56107,1.54445
396.32000,1.51869
396.07892,1.49620
395.83785,1.48887
395.59678,1.49950
395.35571,1.52308
395.11464,1.54984
394.87357,1.56668
394.63250,1.56363
394.39143,1.54437
394.15036,1.52591
393.90929,1.52217
393.66822,1.53069
393.42715,1.54017
393.18608,1.54328
392.94501,1.54345
392.70394,1.54679
392.46287,1.54769
392.22180,1.53756
391.98073,1.52253
391.73965,1.51551
391.49858,1.51630
391.25751,1.51561
391.01644,1.50826
390.77537,1.49380
390.53430,1.47706
390.29323,1.46544
390.05216,1.46028
389.81109,1.45643
389.57002,1.45375
389.32895,1.45828
389.08788,1.47174
388.84681,1.48657
388.60574,1.49215
388.36467,1.48832
388.12360,1.48508
387.88253,1.48536
387.64146,1.48257
387.40038,1.47446
387.15931,1.46248
386.91824,1.45380
386.67717,1.45133
386.43610,1.44510
386.19503,1.43730
385.95396,1.44354
385.71289,1.46756
385.47182,1.48908
385.23075,1.48389
384.98968,1.45473
384.74861,1.42599
384.50754,1.41113
384.26647,1.40477
384.02540,1.39744
383.78433,1.38755
383.54326,1.38025
383.30219,1.37986
383.06111,1.38463
382.82004,1.38833
382.57897,1.38727
382.33790,1.37993
382.09683,1.36436
381.85576,1.34420
381.61469,1.32645
381.37362,1.31559
381.13255,1.31562
380.89148,1.32547
380.65041,1.33157
380.40934,1.32589
380.16827,1.32061
379.92720,1.32175
379.68613,1.32086
379.44506,1.31346
379.20399,1.30240
378.96292,1.29052
378.72184,1.27957
378.48077,1.27234
378.23970,1.27550
377.99863,1.29311
377.75756,1.31956
377.51649,1.34687
377.27542,1.37206
377.03435,1.39022
376.79328,1.39357
376.55221,1.38622
376.31114,1.38153
376.07007,1.38096
375.82900,1.37827
375.58793,1.37892
375.34686,1.39380
375.10579,1.41742
374.86472,1.43171
374.62365,1.43266
374.38257,1.42953
374.14150,1.42500
373.90043,1.42181
373.65936,1.42787
373.41829,1.44023
373.17722,1.44439
372.93615,1.43606
372.69508,1.42756
372.45401,1.42799
372.21294,1.43106
371.97187,1.42444
371.73080,1.41069
371.48973,1.40277
371.24866,1.40533
371.00759,1.40965
370.76652,1.40263
370.52545,1.38485
370.28437,1.37063
370.04330,1.36776
369.80223,1.37203
369.56116,1.37962
369.32009,1.39022
369.07902,1.39872
368.83795,1.39808
368.59688,1.39131
368.35581,1.38723
368.11474,1.38502
367.87367,1.37755
367.63260,1.36726
367.39153,1.36195
367.15046,1.36015
366.90939,1.35472
366.66832,1.34620
366.42725,1.33854
366.18618,1.33218
365.94510,1.33118
365.70403,1.34152
365.46296,1.35683
365.22189,1.36046
364.98082,1.35024
364.73975,1.34204
364.49868,1.34358
364.25761,1.34526
364.01654,1.33728
363.77547,1.32480
363.53440,1.32016
363.29333,1.32602
363.05226,1.33209
362.81119,1.32844
362.57012,1.31953
362.32905,1.31571
362.08798,1.31722
361.84691,1.31642
361.60583,1.31124
361.36476,1.30687
361.12369,1.30350
360.88262,1.29652
360.64155,1.28992
360.40048,1.29235
360.15941,1.30274
359.91834,1.31120
359.67727,1.31130
359.43620,1.30441
359.19513,1.29483
358.95406,1.28751
358.71299,1.28475
358.47192,1.28253
358.23085,1.27626
357.98978,1.26928
357.74871,1.26771
357.50764,1.27113
357.26656,1.27506
357.02549,1.27921
356.78442,1.28699
356.54335,1.29834
356.30228,1.30887
356.06121,1.31413
355.82014,1.31056
355.57907,1.29769
355.33800,1.28180
355.09693,1.27202
354.85586,1.27186
354.61479,1.27651
354.37372,1.28052
354.13265,1.28434
353.89158,1.29039
353.65051,1.29647
353.40944,1.29926
353.16837,1.30031
352.92729,1.30297
352.68622,1.30464
352.44515,1.29877
352.20408,1.28671
351.96301,1.27901
351.72194,1.28274
351.48087,1.29285
351.23980,1.29809
350.99873,1.29445
350.75766,1.28745
350.51659,1.28380
350.27552,1.28570
350.03445,1.28979
349.79338,1.29142
349.55231,1.29178
349.31124,1.29666
349.07017,1.30684
348.82910,1.31525
348.58802,1.31594
348.34695,1.30989
348.10588,1.29832
347.86481,1.28258
347.62374,1.26886
347.38267,1.26647
347.14160,1.28017
346.90053,1.30060
346.65946,1.30839
346.41839,1.29674
346.17732,1.28037
345.93625,1.27504
345.69518,1.28375
345.45411,1.30040
345.21304,1.31553
344.97197,1.32310
344.73090,1.32505
344.48983,1.32512
344.24875,1.32360
344.00768,1.32188
343.76661,1.32292
343.52554,1.32611
343.28447,1.32924
343.04340,1.33280
342.80233,1.33961
342.56126,1.35210
342.32019,1.36613
342.07912,1.37145
341.83805,1.36395
341.59698,1.35139
341.35591,1.34361
341.11484,1.34406
340.87377,1.35216
340.63270,1.36622
340.39163,1.38092
340.15056,1.38845
339.90948,1.38492
339.66841,1.37420
339.42734,1.36712
339.18627,1.37218
338.94520,1.38889
338.70413,1.41065
338.46306,1.42783
338.22199,1.43048
337.98092,1.42066
337.73985,1.41701
337.49878,1.43375
337.25771,1.45853
337.01664,1.46448
336.77557,1.44903
336.53450,1.43043
336.29343,1.41595
336.05236,1.40009
335.81129,1.37957
335.57021,1.36165
335.32914,1.35751
335.08807,1.36962
334.84700,1.38891
334.60593,1.40393
334.36486,1.40847
334.12379,1.40026
333.88272,1.38238
333.64165,1.36501
333.40058,1.35384
333.15951,1.34507
332.91844,1.33604
332.67737,1.33022
332.43630,1.32978
332.19523,1.33236
331.95416,1.33767
331.71309,1.34557
331.47202,1.34740
331.23094,1.33525
330.98987,1.31701
330.74880,1.30800
330.50773,1.31484
330.26666,1.33184
330.02559,1.34633
329.78452,1.34532
329.54345,1.32759
329.30238,1.30968
329.06131,1.30646
328.82024,1.31476
328.57917,1.32132
328.33810,1.31839
328.09703,1.30812
327.85596,1.29699
327.61489,1.29101
327.37382,1.29337
327.13275,1.29943
326.89167,1.29688
326.65060,1.28095
326.40953,1.26352
326.16846,1.25774
325.92739,1.26000
325.68632,1.25766
325.44525,1.25169
325.20418,1.25678
324.96311,1.28060
324.72204,1.31264
324.48097,1.33259
324.23990,1.33163
323.99883,1.31986
323.75776,1.31170
323.51669,1.30870
323.27562,1.29964
323.03455,1.28294
322.79348,1.27431
322.55240,1.28703
322.31133,1.31588
322.07026,1.34044
321.82919,1.35110
321.58812,1.35609
321.34705,1.35707
321.10598,1.34666
320.86491,1.32304
320.62384,1.29763
320.38277,1.28351
320.14170,1.28651
319.90063,1.30467
319.65956,1.32788
319.41849,1.34438
319.17742,1.34691
318.93635,1.33310
318.69528,1.30943
318.45421,1.29024
318.21313,1.28779
317.97206,1.29968
317.73099,1.31443
317.48992,1.32640
317.24885,1.33187
317.00778,1.32564
316.76671,1.31395
316.52564,1.31251
316.28457,1.32695
316.04350,1.34708
315.80243,1.36227
315.56136,1.37092
315.32029,1.37078
315.07922,1.35889
314.83815,1.34604
314.59708,1.34756
314.35601,1.36315
314.11494,1.37913
313.87386,1.38698
313.63279,1.38988
313.39172,1.38689
313.15065,1.37782
312.90958,1.37241
312.66851,1.37650
312.42744,1.38108
312.18637,1.37429
311.94530,1.36352
311.70423,1.36680
311.46316,1.38887
311.22209,1.41763
310.98102,1.43718
310.73995,1.44098
310.49888,1.43293
310.25781,1.41824
310.01674,1.39944
309.77567,1.38038
309.53459,1.36783
309.29352,1.36794
309.05245,1.37927
308.81138,1.39375
308.57031,1.40480
308.32924,1.40611
308.08817,1.39327
307.84710,1.37644
307.60603,1.37393
307.36496,1.38998
307.12389,1.40957
306.88282,1.41746
306.64175,1.41390
306.40068,1.40578
306.15961,1.39460
305.91854,1.37904
305.67747,1.36455
305.43640,1.36152
305.19532,1.37200
304.95425,1.38355
304.71318,1.38256
304.47211,1.37204
304.23104,1.36575
303.98997,1.36860
303.74890,1.37246
303.50783,1.36844
303.26676,1.35553
303.02569,1.33934
302.78462,1.33054
302.54355,1.33405
302.30248,1.34164
302.06141,1.34519
301.82034,1.34646
301.57927,1.34578
301.33820,1.33508
301.09713,1.31441
300.85605,1.30039
300.61498,1.30598
300.37391,1.32590
300.13284,1.34311
299.89177,1.34223
299.65070,1.32089
299.40963,1.29011
299.16856,1.26585
298.92749,1.26017
298.68642,1.27219
298.44535,1.28630
298.20428,1.28756
297.96321,1.27680
297.72214,1.26470
297.48107,1.26009
297.24000,1.26305
296.99893,1.26584
296.75786,1.26325
296.51678,1.25827
296.27571,1.25320
296.03464,1.24624
295.79357,1.23955
295.55250,1.23849
295.31143,1.24276
295.07036,1.24601
294.82929,1.24341
294.58822,1.23413
294.34715,1.21957
294.10608,1.20401
293.86501,1.19355
293.62394,1.19146
293.38287,1.19514
293.14180,1.19814
292.90073,1.19673
292.65966,1.19356
292.41859,1.19222
292.17751,1.19193
291.93644,1.19066
291.69537,1.18943
291.45430,1.19031
291.21323,1.19255
290.97216,1.19332
290.73109,1.19187
290.49002,1.19025
290.24895,1.18902
290.00788,1.18559
289.76681,1.17813
289.52574,1.16865
289.28467,1.16107
289.04360,1.15779
288.80253,1.15889
288.56146,1.16269
288.32039,1.16584
288.07932,1.16458
287.83824,1.15870
287.59717,1.15230
287.35610,1.14929
287.11503,1.15067
286.87396,1.15627
286.63289,1.16511
286.39182,1.17341
286.15075,1.17542
285.90968,1.16936
285.66861,1.15988
285.42754,1.15323
285.18647,1.15123
284.94540,1.15034
284.70433,1.14743
284.46326,1.14422
284.22219,1.14402
283.98112,1.14561
283.74005,1.14438
283.49897,1.13990
283.25790,1.13751
283.01683,1.13982
282.77576,1.14283
282.53469,1.14310
282.29362,1.14228
282.05255,1.14247
281.81148,1.14396
281.57041,1.14793
281.32934,1.15429
281.08827,1.15774
280.84720,1.15326
280.60613,1.14384
280.36506,1.13692
280.12399,1.13607
279.88292,1.13954
279.64185,1.14415
279.40078,1.14879
279.15970,1.15445
278.91863,1.16114
278.67756,1.16515
278.43649,1.16138
278.19542,1.14985
277.95435,1.13773
277.71328,1.13135
277.47221,1.12985
277.23114,1.13036
276.99007,1.13539
276.74900,1.14816
276.50793,1.16237
276.26686,1.16692
276.02579,1.16147
275.78472,1.15604
275.54365,1.15536
275.30258,1.15360
275.06151,1.14512
274.82043,1.13370
274.57936,1.12676
274.33829,1.12514
274.09722,1.12407
273.85615,1.12138
273.61508,1.12014
273.37401,1.12395
273.13294,1.13261
272.89187,1.14205
272.65080,1.14806
272.40973,1.15061
272.16866,1.15262
271.92759,1.15506
271.68652,1.15761
271.44545,1.16211
271.20438,1.17009
270.96331,1.17889
270.72224,1.18436
270.48116,1.18625
270.24009,1.18757
269.99902,1.18982
269.75795,1.19284
269.51688,1.19683
269.27581,1.20134
269.03474,1.20449
268.79367,1.20503
268.55260,1.20382
268.31153,1.20206
268.07046,1.20043
267.82939,1.20113
267.58832,1.20739
267.34725,1.21825
267.10618,1.22678
266.86511,1.22869
266.62404,1.22989
266.38297,1.23859
266.14189,1.25398
265.90082,1.26804
265.65975,1.27623
265.41868,1.28103
265.17761,1.28550
264.93654,1.28959
264.69547,1.29438
264.45440,1.30358
264.21333,1.31927
263.97226,1.33901
263.73119,1.35658
263.49012,1.36530
263.24905,1.36386
263.00798,1.35874
262.76691,1.35841
262.52584,1.36638
262.28477,1.38109
262.04370,1.39936
261.80262,1.41824
261.56155,1.43714
261.32048,1.45844
261.07941,1.48429
260.83834,1.51270
260.59727,1.53818
260.35620,1.55969
260.11513,1.58166
259.87406,1.60545
259.63299,1.62924
259.39192,1.65358
259.15085,1.67884
258.90978,1.70557
258.66871,1.73252
258.42764,1.75056
258.18657,1.75778
257.94550,1.77434
257.70443,1.81620
257.46335,1.86293
257.22228,1.87570
256.98121,1.85257
256.74014,1.82307
256.49907,1.80216
256.25800,1.78265
256.01693,1.75846
255.77586,1.74032
255.53479,1.74052
255.29372,1.75829
255.05265,1.77805
254.81158,1.77995
254.57051,1.75593
254.32944,1.71703
254.08837,1.68433
253.84730,1.67211
253.60623,1.67484
253.36516,1.67374
253.12408,1.66032
252.88301,1.64246
252.64194,1.62718
252.40087,1.61341
252.15980,1.60016
251.91873,1.58948
251.67766,1.58225
251.43659,1.57710
251.19552,1.57383
250.95445,1.57386
250.71338,1.57648
250.47231,1.57973
250.23124,1.58406
249.99017,1.58504
249.74910,1.57194
249.50803,1.55015
249.26696,1.54086
249.02589,1.55342
248.78481,1.57254
248.54374,1.57555
248.30267,1.56327
248.06160,1.55706
247.82053,1.57083
247.57946,1.59791
247.33839,1.61579
247.09732,1.60980
246.85625,1.59119
246.61518,1.57898
246.37411,1.57826
246.13304,1.58478
245.89197,1.59616
245.65090,1.60969
245.40983,1.61918
245.16876,1.62306
244.92769,1.62902
244.68661,1.64582
244.44554,1.67746
244.20447,1.72494
243.96340,1.78721
243.72233,1.85725
243.48126,1.91015
243.24019,1.91638
242.99912,1.89812
242.75805,1.90296
242.51698,1.94236
242.27591,1.94035
242.03484,1.83059
241.79377,1.71626
241.55270,1.62993
241.31163,1.56909
241.07056,1.51881
240.82949,1.46760
240.58842,1.41674
240.34734,1.37246
240.10627,1.33538
239.86520,1.30058
239.62413,1.26494
239.38306,1.23103
239.14199,1.20355
238.90092,1.18387
238.65985,1.16746
238.41878,1.14693
238.17771,1.12098
237.93664,1.09580
237.69557,1.07681
237.45450,1.06230
237.21343,1.04629
236.97236,1.02726
236.73129,1.01009
236.49022,0.99818
236.24915,0.98885
236.00807,0.97906
235.76700,0.97092
235.52593,0.96710
235.28486,0.96475
235.04379,0.95908
234.80272,0.95002
234.56165,0.94108
234.32058,0.93457
234.07951,0.93028
233.83844,0.92686
233.59737,0.92305
233.35630,0.91877
233.11523,0.91488
232.87416,0.91172
232.63309,0.90837
232.39202,0.90414
232.15095,0.89983
231.90988,0.89603
231.66880,0.89136
231.42773,0.88485
231.18666,0.87922
230.94559,0.87800
230.70452,0.87965
230.46345,0.87870
230.22238,0.87369
229.98131,0.86910
229.74024,0.86820
229.49917,0.86858
229.25810,0.86665
229.01703,0.86260
228.77596,0.85918
228.53489,0.85842
228.29382,0.86015
228.05275,0.86191
227.81168,0.85993
227.57061,0.85296
227.32953,0.84474
227.08846,0.84066
226.84739,0.84215
226.60632,0.84561
226.36525,0.84661
226.12418,0.84401
225.88311,0.83979
225.64204,0.83589
225.40097,0.83278
225.15990,0.83065
224.91883,0.82998
224.67776,0.83028
224.43669,0.82997
224.19562,0.82899
223.95455,0.83022
223.71348,0.83571
223.47241,0.84297
223.23134,0.84780
222.99026,0.84950
222.74919,0.84972
222.50812,0.84884
222.26705,0.84712
222.02598,0.84684
221.78491,0.85053
221.54384,0.85782
221.30277,0.86548
221.06170,0.87161
220.82063,0.87854
220.57956,0.88857
220.33849,0.89854
220.09742,0.90445
219.85635,0.90861
219.61528,0.91548
219.37421,0.92492
219.13314,0.93469
218.89207,0.94529
218.65099,0.95797
218.40992,0.97203
218.16885,0.98611
217.92778,0.99843
217.68671,1.00675
217.44564,1.01134
217.20457,1.01552
216.96350,1.02241
216.72243,1.03425
216.48136,1.05181
216.24029,1.07109
215.99922,1.08531
215.75815,1.09379
215.51708,1.10351
215.27601,1.11796
215.03494,1.13078
214.79387,1.13524
214.55280,1.13308
214.31172,1.13102
214.07065,1.13483
213.82958,1.14714
213.58851,1.16645
213.34744,1.18711
213.10637,1.20325
212.86530,1.21280
212.62423,1.21553
212.38316,1.21205
212.14209,1.20700
211.90102,1.20623
211.65995,1.20907
211.41888,1.21129
211.17781,1.21488
210.93674,1.22543
210.69567,1.24225
210.45460,1.25755
210.21353,1.26426
209.97245,1.26186
209.73138,1.25428
209.49031,1.24587
209.24924,1.23914
209.00817,1.23326
208.76710,1.22567
208.52603,1.21637
208.28496,1.20760
208.04389,1.19914
207.80282,1.18870
207.56175,1.17683
207.32068,1.16762
207.07961,1.16415
206.83854,1.16421
206.59747,1.16192
206.35640,1.15330
206.11533,1.13849
205.87426,1.11992
205.63318,1.10086
205.39211,1.08481
205.15104,1.07401
204.90997,1.06796
204.66890,1.06378
204.42783,1.05838
204.18676,1.04943
203.94569,1.03588
203.70462,1.01949
203.46355,1.00545
203.22248,0.99951
202.98141,1.00214
202.74034,1.00465
202.49927,0.99486
202.25820,0.96972
202.01713,0.93815
201.77606,0.91216
201.53499,0.89909
201.29391,0.89741
201.05284,0.89698
200.81177,0.88808
200.57070,0.87164
200.32963,0.85608
200.08856,0.84636
199.84749,0.83981
199.60642,0.83052
199.36535,0.81665
199.12428,0.80237
198.88321,0.79218
198.64214,0.78618
198.40107,0.78098
198.16000,0.77305
197.91893,0.76126
197.67786,0.74765
197.43679,0.73532
197.19572,0.72611
196.95464,0.72027
196.71357,0.71639
196.47250,0.71168
196.23143,0.70404
195.99036,0.69404
195.74929,0.68460
195.50822,0.67862
195.26715,0.67569
195.02608,0.67211
194.78501,0.66578
194.54394,0.65930
194.30287,0.65605
194.06180,0.65481
193.82073,0.65030
193.57966,0.64038
193.33859,0.63026
193.09752,0.62586
192.85645,0.62615
192.61537,0.62509
192.37430,0.61992
192.13323,0.61390
191.89216,0.61033
191.65109,0.60810
191.41002,0.60402
191.16895,0.59736
190.92788,0.59115
190.68681,0.58867
190.44574,0.58922
190.20467,0.58850
189.96360,0.58427
189.72253,0.57985
189.48146,0.57903
189.24039,0.58058
188.99932,0.58069
188.75825,0.57899
188.51718,0.57797
188.27610,0.57808
188.03503,0.57734
187.79396,0.57462
187.55289,0.57058
187.31182,0.56652
187.07075,0.56370
186.82968,0.56267
186.58861,0.56242
186.34754,0.56160
186.10647,0.56073
185.86540,0.56133
185.62433,0.56282
185.38326,0.56298
185.14219,0.56191
184.90112,0.56183
184.66005,0.56273
184.41898,0.56256
184.17791,0.56169
183.93683,0.56248
183.69576,0.56476
183.45469,0.56632
183.21362,0.56726
182.97255,0.56932
182.73148,0.57164
182.49041,0.57144
182.24934,0.56976
182.00827,0.57083
181.76720,0.57503
181.52613,0.57742
181.28506,0.57468
181.04399,0.56948
180.80292,0.56653
180.56185,0.56826
180.32078,0.57437
180.07971,0.58249
179.83864,0.58924
179.59756,0.59267
179.35649,0.59421
179.11542,0.59730
178.87435,0.60386
178.63328,0.61224
178.39221,0.61958
178.15114,0.62570
177.91007,0.63303
177.66900,0.64360
177.42793,0.65726
177.18686,0.67168
176.94579,0.68407
176.70472,0.69459
176.46365,0.70610
176.22258,0.72013
175.98151,0.73635
175.74044,0.75442
175.49937,0.77279
175.25829,0.78891
175.01722,0.80336
174.77615,0.81869
174.53508,0.83390
174.29401,0.84642
174.05294,0.85805
173.81187,0.87193
173.57080,0.88710
173.32973,0.90037
173.08866,0.91087
172.84759,0.91973
172.60652,0.92795
172.36545,0.93615
172.12438,0.94425
171.88331,0.95060
171.64224,0.95382
171.40117,0.95508
171.16010,0.95658
170.91902,0.95843
170.67795,0.95834
170.43688,0.95420
170.19581,0.94518
169.95474,0.93160
169.71367,0.91552
169.47260,0.90036
169.23153,0.88926
168.99046,0.88294
168.74939,0.87911
168.50832,0.87565
168.26725,0.87467
168.02618,0.88032
167.78511,0.89157
167.54404,0.90140
167.30297,0.90520
167.06190,0.90551
166.82083,0.90543
166.57975,0.90371
166.33868,0.89934
166.09761,0.89471
165.85654,0.89209
165.61547,0.89194
165.37440,0.89557
165.13333,0.90552
164.89226,0.92113
164.65119,0.93598
164.41012,0.94386
164.16905,0.94624
163.92798,0.94956
163.68691,0.95673
163.44584,0.96496
163.20477,0.97114
162.96370,0.97692
162.72263,0.98647
162.48156,0.99987
162.24048,1.01105
161.99941,1.01409
161.75834,1.00942
161.51727,1.00194
161.27620,0.99547
161.03513,0.99155
160.79406,0.99067
160.55299,0.99234
160.31192,0.99540
160.07085,0.99847
159.82978,0.99944
159.58871,0.99661
159.34764,0.99110
159.10657,0.98532
158.86550,0.97926
158.62443,0.97165
158.38336,0.96363
158.14229,0.95778
157.90121,0.95526
157.66014,0.95638
157.41907,0.96051
157.17800,0.96306
156.93693,0.95688
156.69586,0.94051
156.45479,0.92108
156.21372,0.90699
155.97265,0.90185
155.73158,0.90425
155.49051,0.90947
155.24944,0.91148
155.00837,0.90588
154.76730,0.89174
154.52623,0.87171
154.28516,0.85098
154.04409,0.83460
153.80302,0.82461
153.56194,0.81900
153.32087,0.81278
153.07980,0.80112
152.83873,0.78283
152.59766,0.76085
152.35659,0.73994
152.11552,0.72444
151.87445,0.71559
151.63338,0.70939
151.39231,0.69964
151.15124,0.68445
150.91017,0.66773
150.66910,0.65385
150.42803,0.64341
150.18696,0.63408
149.94589,0.62378
149.70482,0.61244
149.46375,0.60148
149.22267,0.59226
148.98160,0.58507
148.74053,0.57862
148.49946,0.57129
148.25839,0.56319
148.01732,0.55618
147.77625,0.55205
147.53518,0.55097
147.29411,0.55105
147.05304,0.54943
146.81197,0.54507
146.57090,0.54048
146.32983,0.53921
146.08876,0.54199
145.84769,0.54621
145.60662,0.54905
145.36555,0.55077
145.12448,0.55429
144.88340,0.56175
144.64233,0.57152
144.40126,0.57924
144.16019,0.58274
143.91912,0.58416
143.67805,0.58573
143.43698,0.58576
143.19591,0.58147
142.95484,0.57400
142.71377,0.56691
142.47270,0.56114
142.23163,0.55437
141.99056,0.54499
141.74949,0.53438
141.50842,0.52491
141.26735,0.51777
141.02628,0.51258
140.78521,0.50787
140.54413,0.50274
140.30306,0.49818
140.06199,0.49591
139.82092,0.49614
139.57985,0.49795
139.33878,0.50125
139.09771,0.50649
138.85664,0.51301
138.61557,0.51933
138.37450,0.52510
138.13343,0.53158
137.89236,0.54012
137.65129,0.55110
137.41022,0.56411
137.16915,0.57790
136.92808,0.59054
136.68701,0.60210
136.44594,0.61643
136.20486,0.63671
135.96379,0.66022
135.72272,0.68151
135.48165,0.70045
135.24058,0.72258
134.99951,0.75115
134.75844,0.78342
134.51737,0.81529
134.27630,0.84531
134.03523,0.87329
133.79416,0.89975
133.55309,0.92772
133.31202,0.95964
133.07095,0.99241
132.82988,1.02066
132.58881,1.04298
132.34774,1.06139
132.10667,1.07849
131.86559,1.09601
131.62452,1.11194
131.38345,1.12156
131.14238,1.12331
130.90131,1.11765
130.66024,1.10495
130.41917,1.08983
130.17810,1.07717
129.93703,1.06092
129.69596,1.03026
129.45489,0.98812
129.21382,0.94823
128.97275,0.91682
128.73168,0.88887
128.49061,0.85774
128.24954,0.82297
128.00847,0.79002
127.76740,0.76364
127.52632,0.74234
127.28525,0.72048
127.04418,0.69504
126.80311,0.66812
126.56204,0.64373
126.32097,0.62434
126.07990,0.60982
125.83883,0.59776
125.59776,0.58523
125.35669,0.57091
125.11562,0.55537
124.87455,0.53938
124.63348,0.52339
124.39241,0.50830
124.15134,0.49513
123.91027,0.48416
123.66920,0.47552
123.42812,0.46952
123.18705,0.46530
122.94598,0.46063
122.70491,0.45463
122.46384,0.44902
122.22277,0.44529
121.98170,0.44308
121.74063,0.44223
121.49956,0.44376
121.25849,0.44774
121.01742,0.45272
120.77635,0.45808
120.53528,0.46470
120.29421,0.47322
120.05314,0.48359
119.81207,0.49613
119.57100,0.51111
119.32993,0.52812
119.08885,0.54722
118.84778,0.56984
118.60671,0.59753
118.36564,0.63001
118.12457,0.66463
117.88350,0.69734
117.64243,0.72544
117.40136,0.74920
117.16029,0.76965
116.91922,0.78551
116.67815,0.79395
116.43708,0.79390
116.19601,0.78676
115.95494,0.77449
115.71387,0.75937
115.47280,0.74428
115.23173,0.73071
114.99066,0.71758
114.74958,0.70282
114.50851,0.68583
114.26744,0.66899
114.02637,0.65772
113.78530,0.65746
113.54423,0.66851
113.30316,0.68412
113.06209,0.69580
112.82102,0.70026
112.57995,0.69914
112.33888,0.69455
112.09781,0.68764
111.85674,0.67902
111.61567,0.66902
111.37460,0.65929
111.13353,0.65422
110.89246,0.65839
110.65139,0.67163
110.41031,0.68789
110.16924,0.69986
109.92817,0.70328
109.68710,0.69735
109.44603,0.68422
109.20496,0.66719
108.96389,0.64795
108.72282,0.62619
108.48175,0.60262
108.24068,0.58087
107.99961,0.56500
107.75854,0.55551
107.51747,0.54831
107.27640,0.53821
107.03533,0.52344
106.79426,0.50567
106.55319,0.48661
106.31212,0.46737
106.07104,0.45051
105.82997,0.43921
105.58890,0.43391
105.34783,0.43129
105.10676,0.42700
104.86569,0.41862
104.62462,0.40614
104.38355,0.39100
104.14248,0.37537
103.90141,0.36183
103.66034,0.35273
103.41927,0.34894
103.17820,0.34858
102.93713,0.34672
102.69606,0.33831
102.45499,0.32288
102.21392,0.30619
101.97285,0.29590
101.73177,0.29538
101.49070,0.30107
101.24963,0.30562
101.00856,0.30381
100.76749,0.29541
100.52642,0.28370
100.28535,0.27382
100.04428,0.27052
99.80321,0.27361
99.56214,0.27709
99.32107,0.27490
99.08000,0.26725
98.83893,0.25970
98.59786,0.25748
98.35679,0.26076
98.11572,0.26341
97.87465,0.25933
97.63358,0.25177
97.39250,0.25044
97.15143,0.25923
96.91036,0.27094
96.66929,0.27547
96.42822,0.27336
96.18715,0.27399
95.94608,0.28253
95.70501,0.29489
95.46394,0.30298
95.22287,0.30449
94.98180,0.30522
94.74073,0.31027
94.49966,0.31700
94.25859,0.31896
94.01752,0.31598
93.77645,0.31598
93.53538,0.32377
93.29431,0.33270
93.05323,0.33226
92.81216,0.32466
92.57109,0.32160
92.33002,0.32567
92.08895,0.32853
91.84788,0.32664
91.60681,0.32661
91.36574,0.33302
91.12467,0.34272
90.88360,0.35314
90.64253,0.36888
90.40146,0.39396
90.16039,0.42335
89.91932,0.45203
89.67825,0.48764
89.43718,0.53656
89.19611,0.58733
88.95504,0.62704
88.71396,0.66129
88.47289,0.69402
88.23182,0.71392
87.99075,0.71196
87.74968,0.69088
87.50861,0.65744
87.26754,0.62105
87.02647,0.58729
86.78540,0.55212
86.54433,0.51374
86.30326,0.47888
86.06219,0.45065
85.82112,0.42491
85.58005,0.39941
85.33898,0.37578
85.09791,0.35412
84.85684,0.33343
84.61577,0.31478
84.37469,0.29903
84.13362,0.28498
83.89255,0.27181
83.65148,0.26055
83.41041,0.25189
83.16934,0.24481
82.92827,0.23817
82.68720,0.23186
82.44613,0.22587
82.20506,0.21982
81.96399,0.21412
81.72292,0.20951
81.48185,0.20555
81.24078,0.20127
80.99971,0.19666
80.75864,0.19237
80.51757,0.18896
80.27650,0.18718
80.03542,0.18736
79.79435,0.18821
79.55328,0.18797
79.31221,0.18681
79.07114,0.18641
78.83007,0.18709
78.58900,0.18715
78.34793,0.18515
78.10686,0.18181
77.86579,0.17898
77.62472,0.17753
77.38365,0.17688
77.14258,0.17627
76.90151,0.17603
76.66044,0.17693
76.41937,0.17843
76.17830,0.17872
75.93723,0.17666
75.69615,0.17263
75.45508,0.16727
75.21401,0.16078
74.97294,0.15409
74.73187,0.14963
74.49080,0.14902
74.24973,0.15081
74.00866,0.15237
73.76759,0.15354
73.52652,0.15594
73.28545,0.15895
73.04438,0.15964
72.80331,0.15688
72.56224,0.15320
72.32117,0.15228
72.08010,0.15654
71.83903,0.16556
71.59796,0.17472
71.35688,0.17783
71.11581,0.17312
70.87474,0.16444
70.63367,0.15721
70.39260,0.15565
70.15153,0.16268
69.91046,0.17946
69.66939,0.20376
69.42832,0.22978
69.18725,0.25059
68.94618,0.26040
68.70511,0.25579
68.46404,0.23781
68.22297,0.21303
67.98190,0.18987
67.74083,0.17276
67.49976,0.16114
67.25869,0.15329
67.01761,0.14850
66.77654,0.14584
66.53547,0.14404
66.29440,0.14285
66.05333,0.14318
65.81226,0.14579
65.57119,0.15076
65.33012,0.15791
65.08905,0.16736
64.84798,0.17929
64.60691,0.19289
64.36584,0.20557
64.12477,0.21422
63.88370,0.21684
63.64263,0.21282
63.40156,0.20312
63.16049,0.19080
62.91942,0.17968
62.67834,0.17142
62.43727,0.16455
62.19620,0.15659
61.95513,0.14670
61.71406,0.13607
61.47299,0.12641
61.23192,0.11897
60.99085,0.11453
60.74978,0.11269
60.50871,0.11189
60.26764,0.11149
60.02657,0.11292
59.78550,0.11748
59.54443,0.12368
59.30336,0.12854
59.06229,0.13076
58.82122,0.13140
58.58015,0.13270
58.33907,0.13750
58.09800,0.14849
57.85693,0.16651
57.61586,0.18980
57.37479,0.21310
57.13372,0.22550
56.89265,0.21605
56.65158,0.18764
56.41051,0.15332
56.16944,0.12269
55.92837,0.09972
55.68730,0.08575
55.44623,0.08106
55.20516,0.08535
54.96409,0.09850
54.72302,0.12075
54.48195,0.15061
54.24088,0.18179
53.99980,0.20194
53.75873,0.19906
53.51766,0.17481
53.27659,0.14270
53.03552,0.11561
52.79445,0.10300
52.55338,0.11275
52.31231,0.14852
52.07124,0.19907
51.83017,0.22429
51.58910,0.19218
51.34803,0.13736
51.10696,0.09514
50.86589,0.07731
50.62482,0.09172
50.38375,0.14528
50.14268,0.21559
49.90161,0.22147
49.66053,0.15782
49.41946,0.10627
49.17839,0.09861
48.93732,0.13372
48.69625,0.18050
48.45518,0.17689
48.21411,0.13468
47.97304,0.11781
47.73197,0.14732
47.49090,0.19215
47.24983,0.17893
47.00876,0.12193
46.76769,0.09563
46.52662,0.11519
46.28555,0.13835
46.04448,0.12042
45.80341,0.09838
45.56234,0.10964
45.32126,0.13018
45.08019,0.11955
44.83912,0.10516
44.59805,0.12322
44.35698,0.15191
44.11591,0.15425
43.87484,0.14786
43.63377,0.15207
43.39270,0.14941
43.15163,0.13319
42.91056,0.12402
42.66949,0.12986
42.42842,0.13863
42.18735,0.13873
41.94628,0.12846
41.70521,0.11887
41.46414,0.12277
41.22307,0.13501
40.98199,0.13856
40.74092,0.13475
40.49985,0.14236
40.25878,0.16372
40.01771,0.17956
39.77664,0.17825
39.53557,0.16823
39.29450,0.16271
39.05343,0.16710
38.81236,0.17963
38.57129,0.19632
38.33022,0.21245
38.08915,0.22499
37.84808,0.23379
37.60701,0.23736
37.36594,0.23271
37.12487,0.22074
36.88380,0.20503
36.64272,0.18792
36.40165,0.17537
36.16058,0.17351
35.91951,0.17970
35.67844,0.18589
35.43737,0.18900
35.19630,0.19132
34.95523,0.19316
34.71416,0.19020
34.47309,0.18125
34.23202,0.17355
33.99095,0.17085
33.74988,0.16430
33.50881,0.14712
33.26774,0.12613
33.02667,0.11195
32.78560,0.11058
32.54453,0.12062
32.30345,0.13409
32.06238,0.14501
31.82131,0.15124
31.58024,0.14719
31.33917,0.12979
31.09810,0.10709
30.85703,0.09208
30.61596,0.08998
30.37489,0.09199
30.13382,0.09005
29.89275,0.08639
29.65168,0.08062
29.41061,0.06546
29.16954,0.03785
28.92847,0.00448
28.68740,-0.02370
28.44633,-0.03661
28.20526,-0.03247
27.96418,-0.01639
27.72311,0.00377
27.48204,0.01423
27.24097,0.00403
26.99990,-0.02570
26.75883,-0.06896
26.51776,-0.11769
26.27669,-0.15805
26.03562,-0.18086
25.79455,-0.19144
25.55348,-0.20464
25.31241,-0.22262
25.07134,-0.22810
24.83027,-0.21484
24.58920,-0.19748
24.34813,-0.18935
24.10706,-0.19610
23.86599,-0.22113
23.62491,-0.25860
23.38384,-0.28444
23.14277,-0.27292
22.90170,-0.23508
22.66063,-0.20105
22.41956,-0.18105
22.17849,-0.17642
21.93742,-0.18948
21.69635,-0.22023
21.45528,-0.26162
21.21421,-0.30472
20.97314,-0.35262
20.73207,-0.40835
20.49100,-0.45888
20.24993,-0.48446
20.00886,-0.48152
19.76779,-0.47436
19.52672,-0.48130
19.28564,-0.48590
19.04457,-0.45949
18.80350,-0.40719
18.56243,-0.36289
18.32136,-0.34521
18.08029,-0.34838
17.83922,-0.35958
17.59815,-0.37414
17.35708,-0.39521
17.11601,-0.41674
16.87494,-0.43750
16.63387,-0.45904
16.39280,-0.47020
16.15173,-0.48392
15.91066,-0.51623
15.66959,-0.53994
15.42852,-0.54842
15.18745,-0.50854
14.94637,-0.42953
14.70530,-0.38077
14.46423,-0.36433
14.22316,-0.36640
13.98209,-0.38297
13.74102,-0.41222
13.49995,-0.45490
13.25888,-0.50690
13.01781,-0.54643
12.77674,-0.54115
12.53567,-0.52555
12.29460,-0.49692
12.05353,-0.48432
11.81246,-0.48627
11.57139,-0.49066
11.33032,-0.48051
11.08925,-0.44716
10.84818,-0.43374
10.60710,-0.43275
10.36603,-0.42169
10.12496,-0.41724
9.88389,-0.42600
9.64282,-0.42112
9.40175,-0.40282
9.16068,-0.39126
8.91961,-0.39549
8.67854,-0.40775
8.43747,-0.41542
8.19640,-0.41860
7.95533,-0.42154
7.71426,-0.42212
7.47319,-0.42233
7.23212,-0.42402
6.99105,-0.42367
6.74998,-0.42819
6.50891,-0.44458
6.26783,-0.41930
6.02676,-0.38510
5.78569,-0.38549
5.54462,-0.41866
5.30355,-0.45841
5.06248,-0.45723
4.82141,-0.41987
4.58034,-0.39044
4.33927,-0.38870
4.09820,-0.41150
3.85713,-0.42608
3.61606,-0.41144
3.37499,-0.41230
3.13392,-0.41974
2.89285,-0.41635
2.65178,-0.40649
2.41071,-0.39076
2.16964,-0.38244
1.92856,-0.39252
1.68749,-0.41042
1.44642,-0.42027
1.20535,-0.41259
0.96428,-0.40210
0.72321,-0.43004
0.48214,-0.55369
0.24107,-0.56321
-0.00000,-0.00963
