399.69498,1.77921
399.45391,1.78283
399.21284,1.80234
398.97177,1.83197
398.73070,1.84073
398.48963,1.82318
398.24856,1.82699
398.00749,1.92889
397.76642,2.09750
397.52535,2.11421
397.28428,1.98476
397.04321,1.91098
396.80214,1.91854
396.56107,1.95912
396.32000,2.01705
396.07892,2.10247
395.83785,2.22419
395.59678,2.34334
395.35571,2.34063
395.11464,2.21940
394.87357,2.15845
394.63250,2.26696
394.39143,2.39485
394.15036,2.13882
393.90929,1.95181
393.66822,1.89406
393.42715,1.86759
393.18608,1.87143
392.94501,1.88013
392.70394,1.87499
392.46287,1.89548
392.22180,1.92359
391.98073,1.92071
391.73965,1.90817
391.49858,1.92422
391.25751,1.97803
391.01644,2.03901
390.77537,2.00477
390.53430,1.91161
390.29323,1.88656
390.05216,1.97270
389.81109,2.06602
389.57002,2.17614
389.32895,2.31718
389.08788,2.21925
388.84681,2.07408
388.60574,2.02947
388.36467,2.08372
388.12360,2.12992
387.88253,2.06049
387.64146,1.96012
387.40038,1.96008
387.15931,2.10473
386.91824,2.26602
386.67717,2.26941
386.43610,2.27451
386.19503,2.24293
385.95396,2.20319
385.71289,2.23212
385.47182,2.14067
385.23075,1.98692
384.98968,1.91977
384.74861,1.97635
384.50754,2.20515
384.26647,2.54862
384.02540,2.25814
383.78433,2.07824
383.54326,2.03389
383.30219,2.05703
383.06111,2.22004
382.82004,2.36049
382.57897,2.10534
382.33790,1.92129
382.09683,1.82190
381.85576,1.76613
381.61469,1.74186
381.37362,1.76762
381.13255,1.86750
380.89148,1.94024
380.65041,1.83788
380.40934,1.71583
380.16827,1.73562
379.92720,1.92132
379.68613,2.09950
379.44506,2.09572
379.20399,2.04482
378.96292,1.93274
378.72184,1.82899
378.48077,1.78891
378.23970,1.83930
377.99863,1.98604
377.75756,2.04615
377.51649,2.03233
377.27542,2.00727
377.03435,2.05981
376.79328,2.21459
376.55221,2.29494
376.31114,2.14619
376.07007,1.96204
375.82900,1.89374
375.58793,1.93358
375.34686,1.94963
375.10579,1.94998
374.86472,2.01546
374.62365,2.13438
374.38257,2.16595
374.14150,2.08354
373.90043,1.98919
373.65936,1.93474
373.41829,1.89740
373.17722,1.85085
372.93615,1.89014
372.69508,2.06411
372.45401,2.12464
372.21294,1.92506
371.97187,1.78297
371.73080,1.72886
371.48973,1.72547
371.24866,1.76545
371.00759,1.84691
370.76652,1.93273
370.52545,1.98071
370.28437,1.98887
370.04330,1.93436
369.80223,1.83015
369.56116,1.76308
369.32009,1.76438
369.07902,1.79932
368.83795,1.80282
368.59688,1.75420
368.35581,1.69073
368.11474,1.64689
367.87367,1.62893
367.63260,1.61910
367.39153,1.60018
367.15046,1.57564
366.90939,1.56360
366.66832,1.57404
366.42725,1.59923
366.18618,1.61932
365.94510,1.62537
365.70403,1.63309
365.46296,1.64172
365.22189,1.62549
364.98082,1.59808
364.73975,1.59917
364.49868,1.63020
364.25761,1.65251
364.01654,1.63419
363.77547,1.58538
363.53440,1.54672
363.29333,1.53641
363.05226,1.54121
362.81119,1.54206
362.57012,1.53217
362.32905,1.51419
362.08798,1.49406
361.84691,1.48508
361.60583,1.49669
361.36476,1.52333
361.12369,1.55214
360.88262,1.56177
360.64155,1.54199
360.40048,1.51636
360.15941,1.51202
359.91834,1.53266
359.67727,1.56628
359.43620,1.59448
359.19513,1.59860
358.95406,1.57198
358.71299,1.53314
358.47192,1.50496
358.23085,1.48802
357.98978,1.47298
357.74871,1.45982
357.50764,1.45825
357.26656,1.47481
357.02549,1.50238
356.78442,1.52884
356.54335,1.55351
356.30228,1.58072
356.06121,1.60495
355.82014,1.62134
355.57907,1.63658
355.33800,1.65406
355.09693,1.65796
354.85586,1.63774
354.61479,1.60033
354.37372,1.55141
354.13265,1.51012
353.89158,1.49950
353.65051,1.50858
353.40944,1.50352
353.16837,1.47890
352.92729,1.45832
352.68622,1.45324
352.44515,1.45784
352.20408,1.46949
351.96301,1.48931
351.72194,1.51027
351.48087,1.52031
351.23980,1.52340
350.99873,1.53544
350.75766,1.54952
350.51659,1.54711
350.27552,1.53204
350.03445,1.52618
349.79338,1.53676
349.55231,1.54912
349.31124,1.55059
349.07017,1.54637
348.82910,1.55051
348.58802,1.56322
348.34695,1.56388
348.10588,1.53748
347.86481,1.50415
347.62374,1.49090
347.38267,1.50872
347.14160,1.54520
346.90053,1.56303
346.65946,1.54320
346.41839,1.51443
346.17732,1.49798
345.93625,1.48967
345.69518,1.48923
345.45411,1.50019
345.21304,1.51542
344.97197,1.52622
344.73090,1.53665
344.48983,1.54932
344.24875,1.55085
344.00768,1.53792
343.76661,1.53610
343.52554,1.56886
343.28447,1.62206
343.04340,1.65034
342.80233,1.64243
342.56126,1.63419
342.32019,1.64429
342.07912,1.66067
341.83805,1.67897
341.59698,1.71577
341.35591,1.77650
341.11484,1.82049
340.87377,1.81033
340.63270,1.78382
340.39163,1.77515
340.15056,1.77535
339.90948,1.75467
339.66841,1.73072
339.42734,1.75697
339.18627,1.85224
338.94520,1.96589
338.70413,1.99596
338.46306,1.89417
338.22199,1.79065
337.98092,1.77483
337.73985,1.84715
337.49878,1.93490
337.25771,1.96514
337.01664,1.93706
336.77557,1.88304
336.53450,1.87064
336.29343,1.87314
336.05236,1.84210
335.81129,1.79754
335.57021,1.79146
335.32914,1.84047
335.08807,1.91757
334.84700,1.97333
334.60593,1.93993
334.36486,1.83178
334.12379,1.75708
333.88272,1.76847
333.64165,1.83719
333.40058,1.87831
333.15951,1.84804
332.91844,1.77466
332.67737,1.71881
332.43630,1.72376
332.19523,1.77290
331.95416,1.81596
331.71309,1.82607
331.47202,1.77688
331.23094,1.68904
330.98987,1.60745
330.74880,1.55462
330.50773,1.54497
330.26666,1.58632
330.02559,1.67718
329.78452,1.79230
329.54345,1.87791
329.30238,1.89293
329.06131,1.82270
328.82024,1.71743
328.57917,1.64813
328.33810,1.64180
328.09703,1.66493
327.85596,1.66991
327.61489,1.65092
327.37382,1.62909
327.13275,1.62319
326.89167,1.64485
326.65060,1.70096
326.40953,1.76979
326.16846,1.78952
325.92739,1.77068
325.68632,1.75369
325.44525,1.75465
325.20418,1.79197
324.96311,1.86934
324.72204,1.95193
324.48097,1.97322
324.23990,1.92730
323.99883,1.82026
323.75776,1.70245
323.51669,1.64138
323.27562,1.64246
323.03455,1.68201
322.79348,1.74423
322.55240,1.82896
322.31133,1.96472
322.07026,2.10005
321.82919,2.07942
321.58812,1.96828
321.34705,1.95276
321.10598,2.08016
320.86491,2.17210
320.62384,2.01133
320.38277,1.97462
320.14170,2.22412
319.90063,2.40246
319.65956,2.24057
319.41849,2.21934
319.17742,2.06844
318.93635,1.94401
318.69528,1.93898
318.45421,1.89894
318.21313,1.83535
317.97206,1.80976
317.73099,1.82046
317.48992,1.88476
317.24885,1.96609
317.00778,2.04152
316.76671,2.13490
316.52564,2.11159
316.28457,2.02617
316.04350,2.03256
315.80243,2.07984
315.56136,2.12742
315.32029,2.22748
315.07922,2.14890
314.83815,1.99121
314.59708,1.88918
314.35601,1.89344
314.11494,2.02786
313.87386,2.22634
313.63279,2.23333
313.39172,2.12252
313.15065,2.11394
312.90958,2.06892
312.66851,2.03081
312.42744,2.03916
312.18637,2.01485
311.94530,1.97415
311.70423,1.99562
311.46316,2.05551
311.22209,2.09607
310.98102,2.26559
310.73995,2.48832
310.49888,2.13996
310.25781,1.91091
310.01674,1.88511
309.77567,1.91882
309.53459,1.89984
309.29352,1.83461
309.05245,1.80323
308.81138,1.82138
308.57031,1.86022
308.32924,1.88546
308.08817,1.87356
307.84710,1.82985
307.60603,1.79692
307.36496,1.83611
307.12389,1.95529
306.88282,2.02529
306.64175,1.94252
306.40068,1.82344
306.15961,1.75022
305.91854,1.70661
305.67747,1.66276
305.43640,1.62735
305.19532,1.61535
304.95425,1.61941
304.71318,1.61842
304.47211,1.60160
304.23104,1.56927
303.98997,1.52275
303.74890,1.47521
303.50783,1.44129
303.26676,1.42421
303.02569,1.41956
302.78462,1.42403
302.54355,1.43550
302.30248,1.45213
302.06141,1.47035
301.82034,1.47696
301.57927,1.45804
301.33820,1.41637
301.09713,1.37461
300.85605,1.36062
300.61498,1.38050
300.37391,1.41144
300.13284,1.42550
299.89177,1.41818
299.65070,1.40138
299.40963,1.37997
299.16856,1.35158
298.92749,1.31933
298.68642,1.29489
298.44535,1.28846
298.20428,1.29477
297.96321,1.29980
297.72214,1.29757
297.48107,1.29448
297.24000,1.29909
296.99893,1.30897
296.75786,1.31326
296.51678,1.30511
296.27571,1.28950
296.03464,1.27599
295.79357,1.26688
295.55250,1.25972
295.31143,1.25471
295.07036,1.24798
294.82929,1.23212
294.58822,1.21247
294.34715,1.20366
294.10608,1.21021
293.86501,1.22055
293.62394,1.22190
293.38287,1.21544
293.14180,1.20862
292.90073,1.20233
292.65966,1.19171
292.41859,1.17434
292.17751,1.15585
291.93644,1.14607
291.69537,1.14867
291.45430,1.15543
291.21323,1.15404
290.97216,1.14424
290.73109,1.13834
290.49002,1.14328
290.24895,1.15174
290.00788,1.15305
289.76681,1.14558
289.52574,1.13501
289.28467,1.12757
289.04360,1.12647
288.80253,1.12920
288.56146,1.12915
288.32039,1.12282
288.07932,1.11337
287.83824,1.10732
287.59717,1.10888
287.35610,1.11655
287.11503,1.12298
286.87396,1.11991
286.63289,1.10554
286.39182,1.08693
286.15075,1.07630
285.90968,1.08039
285.66861,1.09357
285.42754,1.10617
285.18647,1.11377
284.94540,1.11335
284.70433,1.10272
284.46326,1.08831
284.22219,1.07990
283.98112,1.07939
283.74005,1.08356
283.49897,1.08982
283.25790,1.09498
283.01683,1.09600
282.77576,1.09356
282.53469,1.09088
282.29362,1.08996
282.05255,1.08995
281.81148,1.08805
281.57041,1.08252
281.32934,1.07570
281.08827,1.07123
280.84720,1.06933
280.60613,1.06842
280.36506,1.06891
280.12399,1.07036
279.88292,1.06785
279.64185,1.05809
279.40078,1.04682
279.15970,1.04403
278.91863,1.05297
278.67756,1.06623
278.43649,1.07307
278.19542,1.07163
277.95435,1.06964
277.71328,1.07270
277.47221,1.07808
277.23114,1.08084
276.99007,1.07908
276.74900,1.07198
276.50793,1.06215
276.26686,1.05803
276.02579,1.06622
275.78472,1.08233
275.54365,1.09306
275.30258,1.09002
275.06151,1.07815
274.82043,1.06646
274.57936,1.05758
274.33829,1.05159
274.09722,1.05148
273.85615,1.05860
273.61508,1.06812
273.37401,1.07356
273.13294,1.07346
272.89187,1.07192
272.65080,1.07392
272.40973,1.07905
272.16866,1.08016
271.92759,1.07229
271.68652,1.06001
271.44545,1.05157
271.20438,1.05000
270.96331,1.05279
270.72224,1.05728
270.48116,1.06307
270.24009,1.07006
269.99902,1.07713
269.75795,1.08474
269.51688,1.09404
269.27581,1.10216
269.03474,1.10464
268.79367,1.10192
268.55260,1.09858
268.31153,1.09689
268.07046,1.09691
267.82939,1.09975
267.58832,1.10518
267.34725,1.11002
267.10618,1.11204
266.86511,1.11245
266.62404,1.11531
266.38297,1.12520
266.14189,1.14025
265.90082,1.14943
265.65975,1.14598
265.41868,1.13982
265.17761,1.14546
264.93654,1.16205
264.69547,1.17294
264.45440,1.16646
264.21333,1.15102
263.97226,1.14334
263.73119,1.15252
263.49012,1.17735
263.24905,1.21017
263.00798,1.24103
262.76691,1.25994
262.52584,1.26278
262.28477,1.25658
262.04370,1.25235
261.80262,1.25378
261.56155,1.25711
261.32048,1.26066
261.07941,1.26653
260.83834,1.27426
260.59727,1.28370
260.35620,1.30303
260.11513,1.33651
259.87406,1.36704
259.63299,1.37553
259.39192,1.37258
259.15085,1.38327
258.90978,1.41352
258.66871,1.44306
258.42764,1.45385
258.18657,1.45897
257.94550,1.48384
257.70443,1.53029
257.46335,1.57038
257.22228,1.58100
256.98121,1.57594
256.74014,1.58134
256.49907,1.60596
256.25800,1.64045
256.01693,1.66168
255.77586,1.65746
255.53479,1.65336
255.29372,1.67856
255.05265,1.73457
254.81158,1.80855
254.57051,1.89240
254.32944,1.95622
254.08837,1.97032
253.84730,1.95409
253.60623,1.93988
253.36516,1.95937
253.12408,1.99479
252.88301,2.01399
252.64194,2.04226
252.40087,2.11298
252.15980,2.20742
251.91873,2.23974
251.67766,2.15407
251.43659,2.06412
251.19552,2.05861
250.95445,2.11550
250.71338,2.15259
250.47231,2.15163
250.23124,2.17971
249.99017,2.25937
249.74910,2.38072
249.50803,2.42485
249.26696,2.32383
249.02589,2.21080
248.78481,2.13945
248.54374,2.10188
248.30267,2.09922
248.06160,2.12842
247.82053,2.15077
247.57946,2.16010
247.33839,2.22467
247.09732,2.34927
246.85625,2.36846
246.61518,2.29268
246.37411,2.21200
246.13304,2.11296
245.89197,2.02722
245.65090,1.97905
245.40983,1.95197
245.16876,1.93205
244.92769,1.90604
244.68661,1.85815
244.44554,1.79721
244.20447,1.74241
243.96340,1.70298
243.72233,1.67785
243.48126,1.65890
243.24019,1.63006
242.99912,1.58138
242.75805,1.51944
242.51698,1.45237
242.27591,1.38495
242.03484,1.32541
241.79377,1.28093
241.55270,1.25055
241.31163,1.23175
241.07056,1.22131
240.82949,1.20856
240.58842,1.18414
240.34734,1.15292
240.10627,1.12452
239.86520,1.10053
239.62413,1.07892
239.38306,1.05983
239.14199,1.04229
238.90092,1.02364
238.65985,1.00493
238.41878,0.98997
238.17771,0.97892
237.93664,0.96828
237.69557,0.95701
237.45450,0.94743
237.21343,0.93970
236.97236,0.93039
236.73129,0.91799
236.49022,0.90554
236.24915,0.89617
236.00807,0.88998
235.76700,0.88501
235.52593,0.87823
235.28486,0.86648
235.04379,0.85013
234.80272,0.83503
234.56165,0.82720
234.32058,0.82603
234.07951,0.82520
233.83844,0.81992
233.59737,0.81155
233.35630,0.80429
233.11523,0.79884
232.87416,0.79313
232.63309,0.78826
232.39202,0.78770
232.15095,0.79064
231.90988,0.79210
231.66880,0.79033
231.42773,0.78733
231.18666,0.78254
230.94559,0.77392
230.70452,0.76407
230.46345,0.75835
230.22238,0.75801
229.98131,0.75924
229.74024,0.75909
229.49917,0.75861
229.25810,0.75940
229.01703,0.76028
228.77596,0.75897
228.53489,0.75488
228.29382,0.74847
228.05275,0.74043
227.81168,0.73297
227.57061,0.72963
227.32953,0.73202
227.08846,0.73796
226.84739,0.74356
226.60632,0.74618
226.36525,0.74553
226.12418,0.74279
225.88311,0.73975
225.64204,0.73755
225.40097,0.73490
225.15990,0.72902
224.91883,0.72034
224.67776,0.71387
224.43669,0.71383
224.19562,0.71934
223.95455,0.72662
223.71348,0.73326
223.47241,0.73778
223.23134,0.73798
222.99026,0.73455
222.74919,0.73331
222.50812,0.73888
222.26705,0.74841
222.02598,0.75505
221.78491,0.75625
221.54384,0.75606
221.30277,0.75993
221.06170,0.76912
220.82063,0.78009
220.57956,0.78834
220.33849,0.79228
220.09742,0.79299
219.85635,0.79321
219.61528,0.79678
219.37421,0.80490
219.13314,0.81450
218.89207,0.82380
218.65099,0.83543
218.40992,0.85034
218.16885,0.86447
217.92778,0.87510
217.68671,0.88466
217.44564,0.89595
217.20457,0.90829
216.96350,0.91825
216.72243,0.92257
216.48136,0.92197
216.24029,0.92226
215.99922,0.92927
215.75815,0.94222
215.51708,0.95436
215.27601,0.96139
215.03494,0.96649
214.79387,0.97472
214.55280,0.98598
214.31172,0.99659
214.07065,1.00457
213.82958,1.01083
213.58851,1.01673
213.34744,1.02276
213.10637,1.02810
212.86530,1.03206
212.62423,1.03643
212.38316,1.04292
212.14209,1.04809
211.90102,1.04573
211.65995,1.03702
211.41888,1.03111
211.17781,1.03283
210.93674,1.03788
210.69567,1.04105
210.45460,1.04292
210.21353,1.04610
209.97245,1.05005
209.73138,1.05275
209.49031,1.05405
209.24924,1.05497
209.00817,1.05520
208.76710,1.05200
208.52603,1.04230
208.28496,1.02792
208.04389,1.01554
207.80282,1.00921
207.56175,1.00683
207.32068,1.00385
207.07961,0.99772
206.83854,0.98986
206.59747,0.98376
206.35640,0.97961
206.11533,0.97375
205.87426,0.96519
205.63318,0.95682
205.39211,0.94840
205.15104,0.93538
204.90997,0.91740
204.66890,0.90094
204.42783,0.89044
204.18676,0.88236
203.94569,0.87194
203.70462,0.86117
203.46355,0.85478
203.22248,0.85255
202.98141,0.84987
202.74034,0.84345
202.49927,0.83380
202.25820,0.82376
202.01713,0.81579
201.77606,0.80990
201.53499,0.80407
201.29391,0.79675
201.05284,0.78760
200.81177,0.77588
200.57070,0.76082
200.32963,0.74354
200.08856,0.72737
199.84749,0.71590
199.60642,0.71036
199.36535,0.70783
199.12428,0.70420
198.88321,0.69907
198.64214,0.69494
198.40107,0.69246
198.16000,0.68941
197.91893,0.68340
197.67786,0.67386
197.43679,0.66195
197.19572,0.65003
196.95464,0.64032
196.71357,0.63301
196.47250,0.62630
196.23143,0.61906
195.99036,0.61257
195.74929,0.60836
195.50822,0.60539
195.26715,0.60089
195.02608,0.59386
194.78501,0.58646
194.54394,0.58133
194.30287,0.57815
194.06180,0.57409
193.82073,0.56799
193.57966,0.56141
193.33859,0.55530
193.09752,0.54916
192.85645,0.54361
192.61537,0.54041
192.37430,0.53963
192.13323,0.53936
191.89216,0.53770
191.65109,0.53417
191.41002,0.52989
191.16895,0.52671
190.92788,0.52520
190.68681,0.52391
190.44574,0.52122
190.20467,0.51686
189.96360,0.51170
189.72253,0.50731
189.48146,0.50510
189.24039,0.50456
188.99932,0.50354
188.75825,0.50101
188.51718,0.49860
188.27610,0.49811
188.03503,0.49870
187.79396,0.49800
187.55289,0.49523
187.31182,0.49190
187.07075,0.48940
186.82968,0.48750
186.58861,0.48615
186.34754,0.48661
186.10647,0.48943
185.86540,0.49243
185.62433,0.49271
185.38326,0.49050
185.14219,0.48885
184.90112,0.48902
184.66005,0.48867
184.41898,0.48653
184.17791,0.48568
183.93683,0.48927
183.69576,0.49514
183.45469,0.49807
183.21362,0.49622
182.97255,0.49268
182.73148,0.49129
182.49041,0.49286
182.24934,0.49555
182.00827,0.49765
181.76720,0.49922
181.52613,0.50092
181.28506,0.50231
181.04399,0.50258
180.80292,0.50224
180.56185,0.50288
180.32078,0.50544
180.07971,0.50950
179.83864,0.51401
179.59756,0.51849
179.35649,0.52365
179.11542,0.53077
178.87435,0.53986
178.63328,0.54862
178.39221,0.55417
178.15114,0.55579
177.91007,0.55561
177.66900,0.55707
177.42793,0.56281
177.18686,0.57315
176.94579,0.58604
176.70472,0.59875
176.46365,0.60954
176.22258,0.61838
175.98151,0.62686
175.74044,0.63693
175.49937,0.65005
175.25829,0.66726
175.01722,0.68813
174.77615,0.70951
174.53508,0.72758
174.29401,0.74145
174.05294,0.75311
173.81187,0.76418
173.57080,0.77450
173.32973,0.78285
173.08866,0.78783
172.84759,0.78996
172.60652,0.79242
172.36545,0.79852
172.12438,0.80808
171.88331,0.81635
171.64224,0.81883
171.40117,0.81645
171.16010,0.81307
170.91902,0.81025
170.67795,0.80727
170.43688,0.80375
170.19581,0.79979
169.95474,0.79539
169.71367,0.79061
169.47260,0.78488
169.23153,0.77741
168.99046,0.76969
168.74939,0.76503
168.50832,0.76476
168.26725,0.76716
168.02618,0.77017
167.78511,0.77301
167.54404,0.77535
167.30297,0.77660
167.06190,0.77657
166.82083,0.77645
166.57975,0.77771
166.33868,0.77880
166.09761,0.77648
165.85654,0.77183
165.61547,0.76984
165.37440,0.77278
165.13333,0.77825
164.89226,0.78346
164.65119,0.78850
164.41012,0.79513
164.16905,0.80499
163.92798,0.81840
163.68691,0.83307
163.44584,0.84468
163.20477,0.85042
162.96370,0.85165
162.72263,0.85135
162.48156,0.85063
162.24048,0.85035
161.99941,0.85345
161.75834,0.86168
161.51727,0.87157
161.27620,0.87779
161.03513,0.87891
160.79406,0.87563
160.55299,0.86789
160.31192,0.85849
160.07085,0.85418
159.82978,0.85749
159.58871,0.86210
159.34764,0.86132
159.10657,0.85652
158.86550,0.85210
158.62443,0.84772
158.38336,0.84026
158.14229,0.82937
157.90121,0.81754
157.66014,0.80797
157.41907,0.80279
157.17800,0.80171
156.93693,0.80229
156.69586,0.80135
156.45479,0.79695
156.21372,0.78965
155.97265,0.78167
155.73158,0.77468
155.49051,0.76981
155.24944,0.76766
155.00837,0.76621
154.76730,0.76144
154.52623,0.75159
154.28516,0.73863
154.04409,0.72558
153.80302,0.71415
153.56194,0.70469
153.32087,0.69607
153.07980,0.68644
152.83873,0.67534
152.59766,0.66412
152.35659,0.65413
152.11552,0.64536
151.87445,0.63574
151.63338,0.62232
151.39231,0.60503
151.15124,0.58836
150.91017,0.57698
150.66910,0.57064
150.42803,0.56501
150.18696,0.55629
149.94589,0.54385
149.70482,0.52955
149.46375,0.51651
149.22267,0.50759
148.98160,0.50286
148.74053,0.49940
148.49946,0.49465
148.25839,0.48908
148.01732,0.48466
147.77625,0.48213
147.53518,0.48001
147.29411,0.47625
147.05304,0.47139
146.81197,0.46877
146.57090,0.47031
146.32983,0.47431
146.08876,0.47848
145.84769,0.48267
145.60662,0.48762
145.36555,0.49333
145.12448,0.49944
144.88340,0.50498
144.64233,0.50847
144.40126,0.51012
144.16019,0.51210
143.91912,0.51501
143.67805,0.51629
143.43698,0.51430
143.19591,0.51112
142.95484,0.50851
142.71377,0.50398
142.47270,0.49447
142.23163,0.48180
141.99056,0.47095
141.74949,0.46424
141.50842,0.45994
141.26735,0.45563
141.02628,0.45081
140.78521,0.44648
140.54413,0.44329
140.30306,0.44104
140.06199,0.43976
139.82092,0.43989
139.57985,0.44096
139.33878,0.44180
139.09771,0.44248
138.85664,0.44494
138.61557,0.45085
138.37450,0.45977
138.13343,0.46961
137.89236,0.47788
137.65129,0.48312
137.41022,0.48691
137.16915,0.49369
136.92808,0.50617
136.68701,0.52187
136.44594,0.53654
136.20486,0.54981
135.96379,0.56467
135.72272,0.58312
135.48165,0.60482
135.24058,0.62864
134.99951,0.65312
134.75844,0.67706
134.51737,0.70094
134.27630,0.72642
134.03523,0.75380
133.79416,0.78091
133.55309,0.80448
133.31202,0.82251
133.07095,0.83682
132.82988,0.85182
132.58881,0.86964
132.34774,0.88771
132.10667,0.90249
131.86559,0.91290
131.62452,0.91882
131.38345,0.92010
131.14238,0.91713
130.90131,0.90865
130.66024,0.89234
130.41917,0.87104
130.17810,0.85323
129.93703,0.84393
129.69596,0.83855
129.45489,0.82699
129.21382,0.80320
128.97275,0.77052
128.73168,0.73799
128.49061,0.71217
128.24954,0.69301
128.00847,0.67619
127.76740,0.65673
127.52632,0.63181
127.28525,0.60331
127.04418,0.57682
126.80311,0.55609
126.56204,0.54009
126.32097,0.52634
126.07990,0.51397
125.83883,0.50205
125.59776,0.48813
125.35669,0.47102
125.11562,0.45331
124.87455,0.43844
124.63348,0.42670
124.39241,0.41639
124.15134,0.40759
123.91027,0.40224
123.66920,0.40067
123.42812,0.39981
123.18705,0.39600
122.94598,0.38878
122.70491,0.38061
122.46384,0.37335
122.22277,0.36705
121.98170,0.36209
121.74063,0.35997
121.49956,0.36150
121.25849,0.36577
121.01742,0.37118
120.77635,0.37648
120.53528,0.38157
120.29421,0.38799
120.05314,0.39778
119.81207,0.41135
119.57100,0.42707
119.32993,0.44274
119.08885,0.45706
118.84778,0.47060
118.60671,0.48593
118.36564,0.50583
118.12457,0.53004
117.88350,0.55476
117.64243,0.57626
117.40136,0.59410
117.16029,0.60979
116.91922,0.62374
116.67815,0.63504
116.43708,0.64304
116.19601,0.64744
115.95494,0.64712
115.71387,0.63996
115.47280,0.62517
115.23173,0.60553
114.99066,0.58604
114.74958,0.57087
114.50851,0.56167
114.26744,0.55745
114.02637,0.55536
113.78530,0.55233
113.54423,0.54744
113.30316,0.54233
113.06209,0.53835
112.82102,0.53475
112.57995,0.53134
112.33888,0.53064
112.09781,0.53487
111.85674,0.54144
111.61567,0.54559
111.37460,0.54737
111.13353,0.55108
110.89246,0.55762
110.65139,0.56257
110.41031,0.56235
110.16924,0.55798
109.92817,0.55201
109.68710,0.54574
109.44603,0.53902
109.20496,0.53025
108.96389,0.51748
108.72282,0.50083
108.48175,0.48282
108.24068,0.46539
107.99961,0.44871
107.75854,0.43338
107.51747,0.42141
107.27640,0.41285
107.03533,0.40350
106.79426,0.38921
106.55319,0.37108
106.31212,0.35340
106.07104,0.33848
105.82997,0.32625
105.58890,0.31708
105.34783,0.31164
105.10676,0.30870
104.86569,0.30574
104.62462,0.30121
104.38355,0.29485
104.14248,0.28707
103.90141,0.27963
103.66034,0.27488
103.41927,0.27264
103.17820,0.26957
102.93713,0.26322
102.69606,0.25506
102.45499,0.24780
102.21392,0.24175
101.97285,0.23584
101.73177,0.22996
101.49070,0.22466
101.24963,0.22009
101.00856,0.21685
100.76749,0.21620
100.52642,0.21799
100.28535,0.22004
100.04428,0.22051
99.80321,0.21906
99.56214,0.21566
99.32107,0.21050
99.08000,0.20521
98.83893,0.20226
98.59786,0.20226
98.35679,0.20316
98.11572,0.20256
97.87465,0.20046
97.63358,0.19901
97.39250,0.19961
97.15143,0.20135
96.91036,0.20345
96.66929,0.20718
96.42822,0.21363
96.18715,0.22107
95.94608,0.22609
95.70501,0.22730
95.46394,0.22704
95.22287,0.22832
94.98180,0.23134
94.74073,0.23431
94.49966,0.23624
94.25859,0.23726
94.01752,0.23755
93.77645,0.23752
93.53538,0.23781
93.29431,0.23891
93.05323,0.24141
92.81216,0.24604
92.57109,0.25174
92.33002,0.25517
92.08895,0.25411
91.84788,0.25082
91.60681,0.25000
91.36574,0.25453
91.12467,0.26407
90.88360,0.27683
90.64253,0.29164
90.40146,0.30905
90.16039,0.33106
89.91932,0.35894
89.67825,0.39134
89.43718,0.42551
89.19611,0.46041
88.95504,0.49602
88.71396,0.52956
88.47289,0.55466
88.23182,0.56607
87.99075,0.56322
87.74968,0.54818
87.50861,0.52326
87.26754,0.49199
87.02647,0.45951
86.78540,0.42973
86.54433,0.40303
86.30326,0.37767
86.06219,0.35285
85.82112,0.32953
85.58005,0.30879
85.33898,0.29032
85.09791,0.27323
84.85684,0.25732
84.61577,0.24311
84.37469,0.23067
84.13362,0.21881
83.89255,0.20636
83.65148,0.19446
83.41041,0.18609
83.16934,0.18255
82.92827,0.18169
82.68720,0.18011
82.44613,0.17598
82.20506,0.16932
81.96399,0.16129
81.72292,0.15388
81.48185,0.14881
81.24078,0.14606
80.99971,0.14420
80.75864,0.14206
80.51757,0.13930
80.27650,0.13604
80.03542,0.13267
79.79435,0.13017
79.55328,0.12949
79.31221,0.13022
79.07114,0.13079
78.83007,0.13002
78.58900,0.12799
78.34793,0.12523
78.10686,0.12178
77.86579,0.11737
77.62472,0.11229
77.38365,0.10778
77.14258,0.10475
76.90151,0.10296
76.66044,0.10165
76.41937,0.10071
76.17830,0.10068
75.93723,0.10180
75.69615,0.10338
75.45508,0.10450
75.21401,0.10470
74.97294,0.10343
74.73187,0.10037
74.49080,0.09726
74.24973,0.09735
74.00866,0.10181
73.76759,0.10805
73.52652,0.11239
73.28545,0.11326
73.04438,0.11178
72.80331,0.11002
72.56224,0.10888
72.32117,0.10785
72.08010,0.10687
71.83903,0.10638
71.59796,0.10520
71.35688,0.10169
71.11581,0.09738
70.87474,0.09647
70.63367,0.10116
70.39260,0.10948
70.15153,0.11806
69.91046,0.12566
69.66939,0.13310
69.42832,0.14087
69.18725,0.14780
68.94618,0.15174
68.70511,0.15085
68.46404,0.14467
68.22297,0.13527
67.98190,0.12653
67.74083,0.12037
67.49976,0.11504
67.25869,0.10832
67.01761,0.10099
66.77654,0.09552
66.53547,0.09229
66.29440,0.08963
66.05333,0.08683
65.81226,0.08476
65.57119,0.08420
65.33012,0.08523
65.08905,0.08779
64.84798,0.09177
64.60691,0.09652
64.36584,0.10126
64.12477,0.10623
63.88370,0.11243
63.64263,0.11897
63.40156,0.12181
63.16049,0.11787
62.91942,0.10954
62.67834,0.10198
62.43727,0.09748
62.19620,0.09437
61.95513,0.09005
61.71406,0.08328
61.47299,0.07461
61.23192,0.06600
60.99085,0.05995
60.74978,0.05804
60.50871,0.06028
60.26764,0.06513
60.02657,0.06945
59.78550,0.07030
59.54443,0.06842
59.30336,0.06746
59.06229,0.06809
58.82122,0.06716
58.58015,0.06394
58.33907,0.06132
58.09800,0.06051
57.85693,0.05996
57.61586,0.05860
57.37479,0.05629
57.13372,0.05289
56.89265,0.04874
56.65158,0.04446
56.41051,0.04011
56.16944,0.03606
55.92837,0.03338
55.68730,0.03284
55.44623,0.03470
55.20516,0.03880
54.96409,0.04396
54.72302,0.04783
54.48195,0.04900
54.24088,0.04953
53.99980,0.05297
53.75873,0.05910
53.51766,0.06347
53.27659,0.06304
53.03552,0.05956
52.79445,0.05691
52.55338,0.05718
52.31231,0.05973
52.07124,0.06228
51.83017,0.06212
51.58910,0.05832
51.34803,0.05362
51.10696,0.05227
50.86589,0.05484
50.62482,0.05772
50.38375,0.05853
50.14268,0.05888
49.90161,0.06076
49.66053,0.06356
49.41946,0.06535
49.17839,0.06464
48.93732,0.06055
48.69625,0.05303
48.45518,0.04313
48.21411,0.03333
47.97304,0.02669
47.73197,0.02303
47.49090,0.01806
47.24983,0.01048
47.00876,0.00482
46.76769,0.00326
46.52662,0.00160
46.28555,-0.00291
46.04448,-0.00671
45.80341,-0.00605
45.56234,-0.00262
45.32126,-0.00089
45.08019,-0.00307
44.83912,-0.00726
44.59805,-0.00964
44.35698,-0.00898
44.11591,-0.00813
43.87484,-0.01067
43.63377,-0.01702
43.39270,-0.02393
43.15163,-0.02775
42.91056,-0.02702
42.66949,-0.02263
42.42842,-0.01759
42.18735,-0.01603
41.94628,-0.01828
41.70521,-0.01912
41.46414,-0.01525
41.22307,-0.01047
40.98199,-0.00993
40.74092,-0.01204
40.49985,-0.01022
40.25878,-0.00198
40.01771,0.00831
39.77664,0.01581
39.53557,0.01909
39.29450,0.01963
39.05343,0.01948
38.81236,0.01923
38.57129,0.01887
38.33022,0.01949
38.08915,0.02090
37.84808,0.01565
37.60701,-0.00342
37.36594,-0.02646
37.12487,-0.03626
36.88380,-0.03250
36.64272,-0.02593
36.40165,-0.01608
36.16058,0.00503
35.91951,0.03152
35.67844,0.04237
35.43737,0.02759
35.19630,0.00215
34.95523,-0.01653
34.71416,-0.02658
34.47309,-0.03350
34.23202,-0.03730
33.99095,-0.03294
33.74988,-0.02087
33.50881,-0.00843
33.26774,0.00002
33.02667,0.00702
32.78560,0.01732
32.54453,0.02773
32.30345,0.02616
32.06238,0.00987
31.82131,-0.01154
31.58024,-0.02756
31.33917,-0.04094
31.09810,-0.06285
30.85703,-0.09021
30.61596,-0.10852
30.37489,-0.11663
30.13382,-0.12876
29.89275,-0.14613
29.65168,-0.14799
29.41061,-0.11643
29.16954,-0.06612
28.92847,-0.02057
28.68740,0.01381
28.44633,0.04001
28.20526,0.06418
27.96418,0.09442
27.72311,0.13225
27.48204,0.15859
27.24097,0.14972
26.99990,0.10989
26.75883,0.06342
26.51776,0.03889
26.27669,0.05601
26.03562,0.10458
25.79455,0.13010
25.55348,0.09176
25.31241,0.00890
25.07134,-0.06505
24.83027,-0.08607
24.58920,-0.04953
24.34813,0.01854
24.10706,0.08003
23.86599,0.12983
23.62491,0.18015
23.38384,0.21189
23.14277,0.21385
22.90170,0.19506
22.66063,0.17079
22.41956,0.15629
22.17849,0.15506
21.93742,0.14130
21.69635,0.12574
21.45528,0.15749
21.21421,0.21954
20.97314,0.21114
20.73207,0.16745
20.49100,0.17443
20.24993,0.27136
20.00886,0.40608
19.76779,0.47190
19.52672,0.48339
19.28564,0.46605
19.04457,0.42131
18.80350,0.45493
18.56243,0.51208
18.32136,0.40771
18.08029,0.38241
17.83922,0.49920
17.59815,0.63749
17.35708,0.62572
17.11601,0.51337
16.87494,0.58271
16.63387,0.77976
16.39280,0.71287
16.15173,0.64746
15.91066,0.56572
15.66959,0.50479
15.42852,0.54605
15.18745,0.72816
14.94637,0.90105
14.70530,0.88295
14.46423,1.04527
14.22316,1.12306
13.98209,1.04315
13.74102,0.90272
13.49995,0.87299
13.25888,0.72909
13.01781,0.52686
12.77674,0.52686
12.53567,0.60640
12.29460,0.65971
12.05353,0.63800
11.81246,0.60424
11.57139,0.60944
11.33032,0.53662
11.08925,0.40945
10.84818,0.38914
10.60710,0.48315
10.36603,0.61175
10.12496,0.68855
9.88389,0.69186
9.64282,0.67583
9.40175,0.67677
9.16068,0.64921
8.91961,0.57599
8.67854,0.55745
8.43747,0.52679
8.19640,0.48626
7.95533,0.51056
7.71426,0.60203
7.47319,0.72828
7.23212,0.78516
6.99105,0.71478
6.74998,0.67799
6.50891,0.71470
6.26783,0.78694
6.02676,0.76598
5.78569,0.50494
5.54462,0.32756
5.30355,0.27772
5.06248,0.35014
4.82141,0.55449
4.58034,0.80000
4.33927,0.76958
4.09820,0.86967
3.85713,1.03796
3.61606,1.10058
3.37499,0.84224
3.13392,0.56149
2.89285,0.49922
2.65178,0.54909
2.41071,0.63091
2.16964,0.68392
1.92856,0.69650
1.68749,0.72028
1.44642,0.73149
1.20535,0.64360
0.96428,0.52038
0.72321,0.43832
0.48214,0.38967
0.24107,0.36274
-0.00000,0.56170
