399.69498,1.49088
399.45391,1.50427
399.21284,1.50384
398.97177,1.49018
398.73070,1.47546
398.48963,1.46989
398.24856,1.47406
398.00749,1.47932
397.76642,1.47511
397.52535,1.46008
397.28428,1.44317
397.04321,1.43248
396.80214,1.42871
396.56107,1.42895
396.32000,1.43166
396.07892,1.43727
395.83785,1.44651
395.59678,1.45581
395.35571,1.45729
395.11464,1.44850
394.87357,1.43628
394.63250,1.42945
394.39143,1.43158
394.15036,1.44015
393.90929,1.44978
393.66822,1.45598
393.42715,1.45739
393.18608,1.45418
392.94501,1.44680
392.70394,1.43667
392.46287,1.42579
392.22180,1.41713
391.98073,1.41435
391.73965,1.41970
391.49858,1.43253
391.25751,1.44808
391.01644,1.45724
390.77537,1.45129
390.53430,1.43127
390.29323,1.40990
390.05216,1.39977
389.81109,1.40271
389.57002,1.41184
389.32895,1.41977
389.08788,1.42407
388.84681,1.42711
388.60574,1.43028
388.36467,1.42892
388.12360,1.41728
387.88253,1.39804
387.64146,1.38238
387.40038,1.37652
387.15931,1.37280
386.91824,1.36281
386.67717,1.35265
386.43610,1.35517
386.19503,1.37281
385.95396,1.39355
385.71289,1.40052
385.47182,1.38833
385.23075,1.36582
384.98968,1.34378
384.74861,1.32812
384.50754,1.31767
384.26647,1.30849
384.02540,1.30145
383.78433,1.29963
383.54326,1.29980
383.30219,1.29478
383.06111,1.28596
382.82004,1.28262
382.57897,1.28522
382.33790,1.27972
382.09683,1.25767
381.85576,1.23437
381.61469,1.22964
381.37362,1.24162
381.13255,1.25027
380.89148,1.24044
380.65041,1.21778
380.40934,1.19880
380.16827,1.19359
379.92720,1.20177
379.68613,1.21695
379.44506,1.23098
379.20399,1.23610
378.96292,1.22997
378.72184,1.21985
378.48077,1.21559
378.23970,1.22001
377.99863,1.23024
377.75756,1.24425
377.51649,1.26097
377.27542,1.27784
377.03435,1.29206
376.79328,1.30481
376.55221,1.32004
376.31114,1.33469
376.07007,1.33888
375.82900,1.33225
375.58793,1.32757
375.34686,1.33171
375.10579,1.33660
374.86472,1.33413
374.62365,1.32977
374.38257,1.33254
374.14150,1.34144
373.90043,1.34799
373.65936,1.34725
373.41829,1.34179
373.17722,1.33879
372.93615,1.34365
372.69508,1.35224
372.45401,1.35400
372.21294,1.34534
371.97187,1.33451
371.73080,1.33084
371.48973,1.33623
371.24866,1.34389
371.00759,1.34258
370.76652,1.32853
370.52545,1.30882
370.28437,1.29261
370.04330,1.28407
369.80223,1.28175
369.56116,1.28242
369.32009,1.28460
369.07902,1.28870
368.83795,1.29412
368.59688,1.29865
368.35581,1.30172
368.11474,1.30477
367.87367,1.30681
367.63260,1.30443
367.39153,1.29833
367.15046,1.29346
366.90939,1.29086
366.66832,1.28738
366.42725,1.28437
366.18618,1.28615
365.94510,1.29070
365.70403,1.29265
365.46296,1.29059
365.22189,1.28541
364.98082,1.27783
364.73975,1.27017
364.49868,1.26571
364.25761,1.26463
364.01654,1.26344
363.77547,1.25874
363.53440,1.25041
363.29333,1.24112
363.05226,1.23331
362.81119,1.22724
362.57012,1.22195
362.32905,1.21758
362.08798,1.21569
361.84691,1.21732
361.60583,1.22158
361.36476,1.22686
361.12369,1.23228
360.88262,1.23575
360.64155,1.23442
360.40048,1.22936
360.15941,1.22591
359.91834,1.22606
359.67727,1.22532
359.43620,1.21996
359.19513,1.21204
358.95406,1.20544
358.71299,1.20275
358.47192,1.20584
358.23085,1.21354
357.98978,1.21943
357.74871,1.21752
357.50764,1.20962
357.26656,1.20295
357.02549,1.20237
356.78442,1.20788
356.54335,1.21606
356.30228,1.22157
356.06121,1.22040
355.82014,1.21373
355.57907,1.20595
355.33800,1.19927
355.09693,1.19440
354.85586,1.19321
354.61479,1.19443
354.37372,1.19319
354.13265,1.18918
353.89158,1.18766
353.65051,1.19064
353.40944,1.19382
353.16837,1.19373
352.92729,1.19292
352.68622,1.19557
352.44515,1.20172
352.20408,1.20811
351.96301,1.21245
351.72194,1.21445
351.48087,1.21409
351.23980,1.21173
350.99873,1.20910
350.75766,1.20722
350.51659,1.20565
350.27552,1.20381
350.03445,1.20042
349.79338,1.19475
349.55231,1.18985
349.31124,1.18966
349.07017,1.19346
348.82910,1.19689
348.58802,1.19874
348.34695,1.20209
348.10588,1.20730
347.86481,1.20976
347.62374,1.20643
347.38267,1.20001
347.14160,1.19517
346.90053,1.19362
346.65946,1.19478
346.41839,1.19864
346.17732,1.20549
345.93625,1.21385
345.69518,1.21998
345.45411,1.22155
345.21304,1.22161
344.97197,1.22455
344.73090,1.22899
344.48983,1.23034
344.24875,1.22899
344.00768,1.22986
343.76661,1.23488
343.52554,1.24198
343.28447,1.25049
343.04340,1.26144
342.80233,1.27192
342.56126,1.27537
342.32019,1.27067
342.07912,1.26475
341.83805,1.26420
341.59698,1.26992
341.35591,1.27968
341.11484,1.29032
340.87377,1.29707
340.63270,1.29826
340.39163,1.30078
340.15056,1.31106
339.90948,1.32324
339.66841,1.32573
339.42734,1.31721
339.18627,1.30792
338.94520,1.30858
338.70413,1.32144
338.46306,1.33913
338.22199,1.35041
337.98092,1.34828
337.73985,1.33554
337.49878,1.32357
337.25771,1.32262
337.01664,1.33190
336.77557,1.33972
336.53450,1.33569
336.29343,1.32295
336.05236,1.31257
335.81129,1.30925
335.57021,1.31037
335.32914,1.31527
335.08807,1.32536
334.84700,1.33569
334.60593,1.33664
334.36486,1.32468
334.12379,1.30610
333.88272,1.29103
333.64165,1.28550
333.40058,1.28666
333.15951,1.28622
332.91844,1.28006
332.67737,1.27250
332.43630,1.27052
332.19523,1.27604
331.95416,1.28484
331.71309,1.29098
331.47202,1.29061
331.23094,1.28496
330.98987,1.27942
330.74880,1.27742
330.50773,1.27610
330.26666,1.26800
330.02559,1.24927
329.78452,1.22615
329.54345,1.21094
329.30238,1.21015
329.06131,1.21835
328.82024,1.22455
328.57917,1.22337
328.33810,1.21830
328.09703,1.21605
327.85596,1.21943
327.61489,1.22473
327.37382,1.22588
327.13275,1.22209
326.89167,1.21905
326.65060,1.22147
326.40953,1.22724
326.16846,1.23100
325.92739,1.23085
325.68632,1.22776
325.44525,1.22136
325.20418,1.21154
324.96311,1.20286
324.72204,1.20188
324.48097,1.20959
324.23990,1.22023
323.99883,1.22728
323.75776,1.22872
323.51669,1.22762
323.27562,1.22878
323.03455,1.23369
322.79348,1.24064
322.55240,1.24850
322.31133,1.25738
322.07026,1.26604
321.82919,1.26983
321.58812,1.26522
321.34705,1.25392
321.10598,1.24129
320.86491,1.23374
320.62384,1.23355
320.38277,1.23642
320.14170,1.23676
319.90063,1.23510
319.65956,1.23602
319.41849,1.24044
319.17742,1.24487
318.93635,1.24692
318.69528,1.24747
318.45421,1.24707
318.21313,1.24656
317.97206,1.24954
317.73099,1.25430
317.48992,1.25155
317.24885,1.23780
317.00778,1.22097
316.76671,1.20913
316.52564,1.20487
316.28457,1.21045
316.04350,1.22713
315.80243,1.24933
315.56136,1.26793
315.32029,1.27995
315.07922,1.28743
314.83815,1.28902
314.59708,1.28438
314.35601,1.27875
314.11494,1.27729
313.87386,1.28179
313.63279,1.28996
313.39172,1.29538
313.15065,1.29341
312.90958,1.28925
312.66851,1.29051
312.42744,1.29399
312.18637,1.28973
311.94530,1.27696
311.70423,1.26648
311.46316,1.26773
311.22209,1.28062
310.98102,1.29772
310.73995,1.30917
310.49888,1.31144
310.25781,1.31121
310.01674,1.31479
309.77567,1.32109
309.53459,1.32756
309.29352,1.33365
309.05245,1.33700
308.81138,1.33412
308.57031,1.32570
308.32924,1.31623
308.08817,1.30934
307.84710,1.30660
307.60603,1.30803
307.36496,1.31174
307.12389,1.31467
306.88282,1.31466
306.64175,1.31132
306.40068,1.30766
306.15961,1.30879
305.91854,1.31460
305.67747,1.31774
305.43640,1.31137
305.19532,1.29836
304.95425,1.28912
304.71318,1.28991
304.47211,1.29687
304.23104,1.30128
303.98997,1.29870
303.74890,1.29108
303.50783,1.28177
303.26676,1.27321
303.02569,1.26817
302.78462,1.26836
302.54355,1.27193
302.30248,1.27486
302.06141,1.27509
301.82034,1.27439
301.57927,1.27543
301.33820,1.27689
301.09713,1.27404
300.85605,1.26491
300.61498,1.25281
300.37391,1.24201
300.13284,1.23332
299.89177,1.22477
299.65070,1.21658
299.40963,1.21301
299.16856,1.21580
298.92749,1.21906
298.68642,1.21646
298.44535,1.21009
298.20428,1.20556
297.96321,1.20376
297.72214,1.20230
297.48107,1.19988
297.24000,1.19645
296.99893,1.19241
296.75786,1.18807
296.51678,1.18341
296.27571,1.17913
296.03464,1.17595
295.79357,1.17251
295.55250,1.16682
295.31143,1.15981
295.07036,1.15391
294.82929,1.15084
294.58822,1.15141
294.34715,1.15380
294.10608,1.15450
293.86501,1.15293
293.62394,1.15151
293.38287,1.15026
293.14180,1.14676
292.90073,1.14111
292.65966,1.13585
292.41859,1.13148
292.17751,1.12633
291.93644,1.11990
291.69537,1.11434
291.45430,1.11219
291.21323,1.11283
290.97216,1.11305
290.73109,1.11164
290.49002,1.11013
290.24895,1.10881
290.00788,1.10610
289.76681,1.10271
289.52574,1.10264
289.28467,1.10751
289.04360,1.11282
288.80253,1.11257
288.56146,1.10640
288.32039,1.09882
288.07932,1.09423
287.83824,1.09501
287.59717,1.10073
287.35610,1.10723
287.11503,1.10927
286.87396,1.10530
286.63289,1.09815
286.39182,1.09191
286.15075,1.08870
285.90968,1.08778
285.66861,1.08715
285.42754,1.08573
285.18647,1.08353
284.94540,1.08055
284.70433,1.07689
284.46326,1.07332
284.22219,1.07125
283.98112,1.07193
283.74005,1.07531
283.49897,1.07977
283.25790,1.08391
283.01683,1.08813
282.77576,1.09263
282.53469,1.09489
282.29362,1.09249
282.05255,1.08799
281.81148,1.08664
281.57041,1.08957
281.32934,1.09341
281.08827,1.09574
280.84720,1.09629
280.60613,1.09410
280.36506,1.08837
280.12399,1.08115
279.88292,1.07588
279.64185,1.07416
279.40078,1.07551
279.15970,1.07898
278.91863,1.08390
278.67756,1.08922
278.43649,1.09305
278.19542,1.09412
277.95435,1.09307
277.71328,1.09107
277.47221,1.08856
277.23114,1.08671
276.99007,1.08743
276.74900,1.09051
276.50793,1.09317
276.26686,1.09362
276.02579,1.09283
275.78472,1.09254
275.54365,1.09333
275.30258,1.09437
275.06151,1.09496
274.82043,1.09618
274.57936,1.09989
274.33829,1.10516
274.09722,1.10770
273.85615,1.10504
273.61508,1.09984
273.37401,1.09599
273.13294,1.09504
272.89187,1.09737
272.65080,1.10297
272.40973,1.11000
272.16866,1.11517
271.92759,1.11662
271.68652,1.11507
271.44545,1.11244
271.20438,1.11059
270.96331,1.11075
270.72224,1.11394
270.48116,1.12130
270.24009,1.13210
269.99902,1.14147
269.75795,1.14395
269.51688,1.13977
269.27581,1.13505
269.03474,1.13613
268.79367,1.14424
268.55260,1.15495
268.31153,1.16263
268.07046,1.16603
267.82939,1.16852
267.58832,1.17322
267.34725,1.17948
267.10618,1.18397
266.86511,1.18512
266.62404,1.18592
266.38297,1.19009
266.14189,1.19672
265.90082,1.20213
265.65975,1.20577
265.41868,1.21088
265.17761,1.21958
264.93654,1.23014
264.69547,1.24052
264.45440,1.25091
264.21333,1.26209
263.97226,1.27334
263.73119,1.28333
263.49012,1.29308
263.24905,1.30523
263.00798,1.32025
262.76691,1.33669
262.52584,1.35506
262.28477,1.37669
262.04370,1.39834
261.80262,1.41408
261.56155,1.42283
261.32048,1.43066
261.07941,1.44374
260.83834,1.46248
260.59727,1.48373
260.35620,1.50347
260.11513,1.51896
259.87406,1.53170
259.63299,1.54608
259.39192,1.56472
259.15085,1.58820
258.90978,1.61598
258.66871,1.64436
258.42764,1.66760
258.18657,1.68212
257.94550,1.68812
257.70443,1.69276
257.46335,1.70331
257.22228,1.72322
256.98121,1.75141
256.74014,1.77443
256.49907,1.77780
256.25800,1.76576
256.01693,1.74838
255.77586,1.72487
255.53479,1.69363
255.29372,1.66496
255.05265,1.65124
254.81158,1.65175
254.57051,1.65022
254.32944,1.63129
254.08837,1.60188
253.84730,1.58339
253.60623,1.58459
253.36516,1.59245
253.12408,1.59118
252.88301,1.57979
252.64194,1.56508
252.40087,1.55139
252.15980,1.54236
251.91873,1.53939
251.67766,1.53919
251.43659,1.53711
251.19552,1.53150
250.95445,1.52387
250.71338,1.51622
250.47231,1.51041
250.23124,1.50731
249.99017,1.50592
249.74910,1.50578
249.50803,1.50730
249.26696,1.50870
249.02589,1.50678
248.78481,1.50321
248.54374,1.50523
248.30267,1.51548
248.06160,1.52519
247.82053,1.52280
247.57946,1.50976
247.33839,1.49890
247.09732,1.49841
246.85625,1.50733
246.61518,1.52155
246.37411,1.53675
246.13304,1.54578
245.89197,1.54157
245.65090,1.52749
245.40983,1.51739
245.16876,1.52320
244.92769,1.54670
244.68661,1.58097
244.44554,1.61868
244.20447,1.66012
243.96340,1.71222
243.72233,1.77771
243.48126,1.84343
243.24019,1.88811
242.99912,1.90314
242.75805,1.88112
242.51698,1.83512
242.27591,1.80048
242.03484,1.77180
241.79377,1.72613
241.55270,1.65540
241.31163,1.57368
241.07056,1.49936
240.82949,1.43803
240.58842,1.38530
240.34734,1.33882
240.10627,1.30002
239.86520,1.26792
239.62413,1.23841
239.38306,1.20888
239.14199,1.17924
238.90092,1.15003
238.65985,1.12234
238.41878,1.09772
238.17771,1.07717
237.93664,1.06091
237.69557,1.04866
237.45450,1.03888
237.21343,1.02837
236.97236,1.01407
236.73129,0.99630
236.49022,0.97932
236.24915,0.96694
236.00807,0.95849
235.76700,0.95056
235.52593,0.94157
235.28486,0.93306
235.04379,0.92649
234.80272,0.92091
234.56165,0.91487
234.32058,0.90912
234.07951,0.90532
233.83844,0.90303
233.59737,0.90025
233.35630,0.89618
233.11523,0.89146
232.87416,0.88672
232.63309,0.88269
232.39202,0.88037
232.15095,0.87994
231.90988,0.88023
231.66880,0.87970
231.42773,0.87771
231.18666,0.87456
230.94559,0.87029
230.70452,0.86455
230.46345,0.85833
230.22238,0.85396
229.98131,0.85212
229.74024,0.85077
229.49917,0.84800
229.25810,0.84382
229.01703,0.83862
228.77596,0.83276
228.53489,0.82801
228.29382,0.82637
228.05275,0.82668
227.81168,0.82529
227.57061,0.82141
227.32953,0.81811
227.08846,0.81752
226.84739,0.81872
226.60632,0.81990
226.36525,0.81988
226.12418,0.81820
225.88311,0.81600
225.64204,0.81535
225.40097,0.81624
225.15990,0.81633
224.91883,0.81465
224.67776,0.81334
224.43669,0.81455
224.19562,0.81759
223.95455,0.82011
223.71348,0.82062
223.47241,0.81951
223.23134,0.81861
222.99026,0.81985
222.74919,0.82374
222.50812,0.82912
222.26705,0.83489
222.02598,0.84097
221.78491,0.84699
221.54384,0.85188
221.30277,0.85563
221.06170,0.85945
220.82063,0.86411
220.57956,0.86988
220.33849,0.87712
220.09742,0.88520
219.85635,0.89235
219.61528,0.89820
219.37421,0.90473
219.13314,0.91366
218.89207,0.92424
218.65099,0.93480
218.40992,0.94505
218.16885,0.95561
217.92778,0.96619
217.68671,0.97627
217.44564,0.98703
217.20457,1.00019
216.96350,1.01527
216.72243,1.03015
216.48136,1.04395
216.24029,1.05718
215.99922,1.06978
215.75815,1.08106
215.51708,1.09096
215.27601,1.09976
215.03494,1.10722
214.79387,1.11397
214.55280,1.12233
214.31172,1.13370
214.07065,1.14698
213.82958,1.16131
213.58851,1.17718
213.34744,1.19295
213.10637,1.20485
212.86530,1.21210
212.62423,1.21679
212.38316,1.21901
212.14209,1.21804
211.90102,1.21642
211.65995,1.21704
211.41888,1.21916
211.17781,1.22115
210.93674,1.22387
210.69567,1.22736
210.45460,1.22906
210.21353,1.22778
209.97245,1.22472
209.73138,1.22001
209.49031,1.21276
209.24924,1.20530
209.00817,1.20278
208.76710,1.20709
208.52603,1.21305
208.28496,1.21290
208.04389,1.20476
207.80282,1.19350
207.56175,1.18381
207.32068,1.17549
207.07961,1.16621
206.83854,1.15594
206.59747,1.14656
206.35640,1.13835
206.11533,1.12963
205.87426,1.11888
205.63318,1.10550
205.39211,1.08995
205.15104,1.07406
204.90997,1.06006
204.66890,1.04813
204.42783,1.03634
204.18676,1.02438
203.94569,1.01438
203.70462,1.00673
203.46355,0.99926
203.22248,0.99090
202.98141,0.98126
202.74034,0.96783
202.49927,0.94961
202.25820,0.93084
202.01713,0.91553
201.77606,0.90311
201.53499,0.89096
201.29391,0.87749
201.05284,0.86361
200.81177,0.85247
200.57070,0.84565
200.32963,0.83999
200.08856,0.83101
199.84749,0.81833
199.60642,0.80529
199.36535,0.79456
199.12428,0.78599
198.88321,0.77725
198.64214,0.76633
198.40107,0.75412
198.16000,0.74348
197.91893,0.73593
197.67786,0.73035
197.43679,0.72420
197.19572,0.71571
196.95464,0.70567
196.71357,0.69659
196.47250,0.68981
196.23143,0.68455
195.99036,0.67949
195.74929,0.67400
195.50822,0.66785
195.26715,0.66099
195.02608,0.65367
194.78501,0.64637
194.54394,0.63928
194.30287,0.63260
194.06180,0.62721
193.82073,0.62412
193.57966,0.62307
193.33859,0.62247
193.09752,0.62078
192.85645,0.61740
192.61537,0.61209
192.37430,0.60507
192.13323,0.59754
191.89216,0.59113
191.65109,0.58670
191.41002,0.58399
191.16895,0.58187
190.92788,0.57919
190.68681,0.57570
190.44574,0.57233
190.20467,0.57015
189.96360,0.56908
189.72253,0.56784
189.48146,0.56504
189.24039,0.56070
188.99932,0.55670
188.75825,0.55494
188.51718,0.55524
188.27610,0.55560
188.03503,0.55485
187.79396,0.55348
187.55289,0.55201
187.31182,0.55006
187.07075,0.54747
186.82968,0.54486
186.58861,0.54285
186.34754,0.54162
186.10647,0.54117
185.86540,0.54125
185.62433,0.54153
185.38326,0.54202
185.14219,0.54339
184.90112,0.54597
184.66005,0.54883
184.41898,0.55050
184.17791,0.55074
183.93683,0.55069
183.69576,0.55150
183.45469,0.55334
183.21362,0.55551
182.97255,0.55682
182.73148,0.55647
182.49041,0.55516
182.24934,0.55478
182.00827,0.55652
181.76720,0.55945
181.52613,0.56159
181.28506,0.56242
181.04399,0.56320
180.80292,0.56508
180.56185,0.56787
180.32078,0.57081
180.07971,0.57316
179.83864,0.57478
179.59756,0.57681
179.35649,0.58111
179.11542,0.58824
178.87435,0.59668
178.63328,0.60461
178.39221,0.61171
178.15114,0.61888
177.91007,0.62678
177.66900,0.63521
177.42793,0.64416
177.18686,0.65455
176.94579,0.66686
176.70472,0.68021
176.46365,0.69386
176.22258,0.70818
175.98151,0.72312
175.74044,0.73783
175.49937,0.75273
175.25829,0.76932
175.01722,0.78760
174.77615,0.80592
174.53508,0.82316
174.29401,0.83989
174.05294,0.85747
173.81187,0.87680
173.57080,0.89701
173.32973,0.91518
173.08866,0.92820
172.84759,0.93516
172.60652,0.93767
172.36545,0.93819
172.12438,0.93846
171.88331,0.93874
171.64224,0.93844
171.40117,0.93756
171.16010,0.93685
170.91902,0.93685
170.67795,0.93686
170.43688,0.93495
170.19581,0.92979
169.95474,0.92228
169.71367,0.91424
169.47260,0.90675
169.23153,0.90055
168.99046,0.89611
168.74939,0.89261
168.50832,0.88883
168.26725,0.88543
168.02618,0.88424
167.78511,0.88508
167.54404,0.88501
167.30297,0.88226
167.06190,0.87907
166.82083,0.87890
166.57975,0.88203
166.33868,0.88580
166.09761,0.88850
165.85654,0.89106
165.61547,0.89519
165.37440,0.90119
165.13333,0.90715
164.89226,0.91089
164.65119,0.91343
164.41012,0.91876
164.16905,0.92896
163.92798,0.94144
163.68691,0.95245
163.44584,0.96175
163.20477,0.97153
162.96370,0.98146
162.72263,0.98832
162.48156,0.99105
162.24048,0.99236
161.99941,0.99500
161.75834,0.99913
161.51727,1.00343
161.27620,1.00613
161.03513,1.00601
160.79406,1.00432
160.55299,1.00335
160.31192,1.00257
160.07085,0.99966
159.82978,0.99510
159.58871,0.99147
159.34764,0.98874
159.10657,0.98476
158.86550,0.97971
158.62443,0.97609
158.38336,0.97438
158.14229,0.97231
157.90121,0.96861
157.66014,0.96404
157.41907,0.95858
157.17800,0.95113
156.93693,0.94197
156.69586,0.93290
156.45479,0.92529
156.21372,0.91915
155.97265,0.91385
155.73158,0.90842
155.49051,0.90167
155.24944,0.89315
155.00837,0.88369
154.76730,0.87413
154.52623,0.86415
154.28516,0.85297
154.04409,0.84063
153.80302,0.82763
153.56194,0.81377
153.32087,0.79877
153.07980,0.78352
152.83873,0.76932
152.59766,0.75598
152.35659,0.74220
152.11552,0.72778
151.87445,0.71383
151.63338,0.70044
151.39231,0.68622
151.15124,0.67111
150.91017,0.65658
150.66910,0.64288
150.42803,0.62931
150.18696,0.61668
149.94589,0.60647
149.70482,0.59810
149.46375,0.58963
149.22267,0.58022
148.98160,0.57063
148.74053,0.56196
148.49946,0.55489
148.25839,0.54979
148.01732,0.54651
147.77625,0.54415
147.53518,0.54156
147.29411,0.53853
147.05304,0.53615
146.81197,0.53567
146.57090,0.53727
146.32983,0.53999
146.08876,0.54267
145.84769,0.54497
145.60662,0.54750
145.36555,0.55126
145.12448,0.55672
144.88340,0.56306
144.64233,0.56859
144.40126,0.57226
144.16019,0.57473
143.91912,0.57707
143.67805,0.57867
143.43698,0.57762
143.19591,0.57334
142.95484,0.56712
142.71377,0.55990
142.47270,0.55095
142.23163,0.53997
141.99056,0.52895
141.74949,0.52058
141.50842,0.51551
141.26735,0.51224
141.02628,0.50911
140.78521,0.50540
140.54413,0.50108
140.30306,0.49677
140.06199,0.49381
139.82092,0.49334
139.57985,0.49528
139.33878,0.49862
139.09771,0.50264
138.85664,0.50714
138.61557,0.51204
138.37450,0.51760
138.13343,0.52486
137.89236,0.53503
137.65129,0.54806
137.41022,0.56197
137.16915,0.57478
136.92808,0.58687
136.68701,0.60037
136.44594,0.61699
136.20486,0.63721
135.96379,0.66041
135.72272,0.68501
135.48165,0.70984
135.24058,0.73552
134.99951,0.76306
134.75844,0.79200
134.51737,0.82114
134.27630,0.84988
134.03523,0.87913
133.79416,0.91105
133.55309,0.94675
133.31202,0.98413
133.07095,1.01957
132.82988,1.05125
132.58881,1.07911
132.34774,1.10362
132.10667,1.12500
131.86559,1.14096
131.62452,1.14820
131.38345,1.14711
131.14238,1.14175
130.90131,1.13471
130.66024,1.12450
130.41917,1.10781
130.17810,1.08199
129.93703,1.04839
129.69596,1.01270
129.45489,0.97957
129.21382,0.94880
128.97275,0.91752
128.73168,0.88469
128.49061,0.85231
128.24954,0.82210
128.00847,0.79353
127.76740,0.76561
127.52632,0.73883
127.28525,0.71408
127.04418,0.69091
126.80311,0.66801
126.56204,0.64465
126.32097,0.62160
126.07990,0.60069
125.83883,0.58310
125.59776,0.56761
125.35669,0.55192
125.11562,0.53609
124.87455,0.52300
124.63348,0.51425
124.39241,0.50772
124.15134,0.50020
123.91027,0.49078
123.66920,0.48074
123.42812,0.47145
123.18705,0.46328
122.94598,0.45620
122.70491,0.45032
122.46384,0.44589
122.22277,0.44322
121.98170,0.44226
121.74063,0.44225
121.49956,0.44244
121.25849,0.44347
121.01742,0.44714
120.77635,0.45423
120.53528,0.46330
120.29421,0.47188
120.05314,0.47957
119.81207,0.48921
119.57100,0.50390
119.32993,0.52318
119.08885,0.54446
118.84778,0.56761
118.60671,0.59479
118.36564,0.62526
118.12457,0.65442
117.88350,0.67936
117.64243,0.70239
117.40136,0.72624
117.16029,0.74793
116.91922,0.76168
116.67815,0.76722
116.43708,0.76929
116.19601,0.76995
115.95494,0.76689
115.71387,0.75890
115.47280,0.74787
115.23173,0.73547
114.99066,0.72242
114.74958,0.71067
114.50851,0.70217
114.26744,0.69526
114.02637,0.68612
113.78530,0.67524
113.54423,0.66781
113.30316,0.66625
113.06209,0.66742
112.82102,0.66833
112.57995,0.66995
112.33888,0.67385
112.09781,0.67975
111.85674,0.68679
111.61567,0.69401
111.37460,0.69954
111.13353,0.70231
110.89246,0.70440
110.65139,0.70842
110.41031,0.71233
110.16924,0.71078
109.92817,0.70240
109.68710,0.69082
109.44603,0.67812
109.20496,0.66293
108.96389,0.64467
108.72282,0.62502
108.48175,0.60525
108.24068,0.58593
107.99961,0.56860
107.75854,0.55433
107.51747,0.54099
107.27640,0.52544
107.03533,0.50795
106.79426,0.49091
106.55319,0.47497
106.31212,0.46030
106.07104,0.44851
105.82997,0.43910
105.58890,0.42834
105.34783,0.41494
105.10676,0.40229
104.86569,0.39254
104.62462,0.38367
104.38355,0.37396
104.14248,0.36454
103.90141,0.35654
103.66034,0.34965
103.41927,0.34348
103.17820,0.33740
102.93713,0.33039
102.69606,0.32295
102.45499,0.31707
102.21392,0.31313
101.97285,0.30932
101.73177,0.30433
101.49070,0.29841
101.24963,0.29276
101.00856,0.28902
100.76749,0.28761
100.52642,0.28642
100.28535,0.28326
100.04428,0.27890
99.80321,0.27542
99.56214,0.27366
99.32107,0.27317
99.08000,0.27243
98.83893,0.26998
98.59786,0.26673
98.35679,0.26492
98.11572,0.26475
97.87465,0.26478
97.63358,0.26471
97.39250,0.26507
97.15143,0.26568
96.91036,0.26644
96.66929,0.26807
96.42822,0.27122
96.18715,0.27590
95.94608,0.28167
95.70501,0.28786
95.46394,0.29390
95.22287,0.29945
94.98180,0.30420
94.74073,0.30803
94.49966,0.31107
94.25859,0.31336
94.01752,0.31491
93.77645,0.31582
93.53538,0.31596
93.29431,0.31522
93.05323,0.31418
92.81216,0.31361
92.57109,0.31356
92.33002,0.31373
92.08895,0.31409
91.84788,0.31476
91.60681,0.31618
91.36574,0.31986
91.12467,0.32818
90.88360,0.34282
90.64253,0.36355
90.40146,0.38885
90.16039,0.41758
89.91932,0.44990
89.67825,0.48684
89.43718,0.52893
89.19611,0.57456
88.95504,0.61936
88.71396,0.65798
88.47289,0.68642
88.23182,0.70121
87.99075,0.69789
87.74968,0.67473
87.50861,0.63745
87.26754,0.59577
87.02647,0.55609
86.78540,0.51960
86.54433,0.48592
86.30326,0.45552
86.06219,0.42857
85.82112,0.40404
85.58005,0.38111
85.33898,0.35992
85.09791,0.34041
84.85684,0.32183
84.61577,0.30414
84.37469,0.28897
84.13362,0.27783
83.89255,0.26971
83.65148,0.26170
83.41041,0.25225
83.16934,0.24260
82.92827,0.23460
82.68720,0.22853
82.44613,0.22346
82.20506,0.21877
81.96399,0.21471
81.72292,0.21178
81.48185,0.20984
81.24078,0.20813
80.99971,0.20606
80.75864,0.20363
80.51757,0.20090
80.27650,0.19752
80.03542,0.19334
79.79435,0.18926
79.55328,0.18700
79.31221,0.18752
79.07114,0.18974
78.83007,0.19123
78.58900,0.19032
78.34793,0.18716
78.10686,0.18283
77.86579,0.17837
77.62472,0.17450
77.38365,0.17147
77.14258,0.16912
76.90151,0.16728
76.66044,0.16592
76.41937,0.16515
76.17830,0.16508
75.93723,0.16533
75.69615,0.16498
75.45508,0.16355
75.21401,0.16149
74.97294,0.15941
74.73187,0.15800
74.49080,0.15854
74.24973,0.16201
74.00866,0.16698
73.76759,0.17009
73.52652,0.16899
73.28545,0.16439
73.04438,0.15923
72.80331,0.15610
72.56224,0.15566
72.32117,0.15708
72.08010,0.15932
71.83903,0.16127
71.59796,0.16188
71.35688,0.16102
71.11581,0.15992
70.87474,0.16034
70.63367,0.16363
70.39260,0.17064
70.15153,0.18139
69.91046,0.19431
69.66939,0.20648
69.42832,0.21542
69.18725,0.22054
68.94618,0.22307
68.70511,0.22414
68.46404,0.22223
68.22297,0.21370
67.98190,0.19819
67.74083,0.18161
67.49976,0.17070
67.25869,0.16671
67.01761,0.16544
66.77654,0.16141
66.53547,0.15270
66.29440,0.14305
66.05333,0.13836
65.81226,0.14068
65.57119,0.14637
65.33012,0.14993
65.08905,0.15059
64.84798,0.15360
64.60691,0.16373
64.36584,0.17947
64.12477,0.19361
63.88370,0.19946
63.64263,0.19714
63.40156,0.19210
63.16049,0.18807
62.91942,0.18363
62.67834,0.17599
62.43727,0.16651
62.19620,0.15974
61.95513,0.15768
61.71406,0.15710
61.47299,0.15314
61.23192,0.14601
60.99085,0.14098
60.74978,0.14086
60.50871,0.14204
60.26764,0.13965
60.02657,0.13491
59.78550,0.13358
59.54443,0.13772
59.30336,0.14268
59.06229,0.14408
58.82122,0.14461
58.58015,0.14687
58.33907,0.14621
58.09800,0.13879
57.85693,0.13160
57.61586,0.13323
57.37479,0.13923
57.13372,0.13785
56.89265,0.12843
56.65158,0.12194
56.41051,0.12290
56.16944,0.12432
55.92837,0.12168
55.68730,0.11997
55.44623,0.12263
55.20516,0.12538
54.96409,0.12568
54.72302,0.12810
54.48195,0.13462
54.24088,0.13984
53.99980,0.14122
53.75873,0.14341
53.51766,0.14784
53.27659,0.15012
53.03552,0.15049
52.79445,0.15414
52.55338,0.15989
52.31231,0.16184
52.07124,0.16133
51.83017,0.16148
51.58910,0.15786
51.34803,0.14904
51.10696,0.14289
50.86589,0.14362
50.62482,0.14779
50.38375,0.15324
50.14268,0.15890
49.90161,0.16148
49.66053,0.16077
49.41946,0.15958
49.17839,0.15712
48.93732,0.15386
48.69625,0.15502
48.45518,0.16116
48.21411,0.16595
47.97304,0.16567
47.73197,0.16168
47.49090,0.15636
47.24983,0.15135
47.00876,0.14537
46.76769,0.13651
46.52662,0.12857
46.28555,0.12692
46.04448,0.12981
45.80341,0.13148
45.56234,0.13047
45.32126,0.13044
45.08019,0.13467
44.83912,0.14147
44.59805,0.14567
44.35698,0.14448
44.11591,0.13919
43.87484,0.13317
43.63377,0.13176
43.39270,0.13854
43.15163,0.14718
42.91056,0.14638
42.66949,0.13777
42.42842,0.13541
42.18735,0.14622
41.94628,0.16275
41.70521,0.17357
41.46414,0.18035
41.22307,0.19278
40.98199,0.20863
40.74092,0.21352
40.49985,0.20152
40.25878,0.18462
40.01771,0.17952
39.77664,0.18993
39.53557,0.20688
39.29450,0.21982
39.05343,0.22400
38.81236,0.22156
38.57129,0.21840
38.33022,0.22007
38.08915,0.22718
37.84808,0.23404
37.60701,0.23329
37.36594,0.22154
37.12487,0.20315
36.88380,0.18723
36.64272,0.17798
36.40165,0.17328
36.16058,0.17185
35.91951,0.17570
35.67844,0.18490
35.43737,0.19379
35.19630,0.19431
34.95523,0.18168
34.71416,0.15345
34.47309,0.10548
34.23202,0.04161
33.99095,-0.00249
33.74988,0.02212
33.50881,0.11673
33.26774,0.21273
33.02667,0.25327
32.78560,0.22507
32.54453,0.15419
32.30345,0.10082
32.06238,0.09888
31.82131,0.11624
31.58024,0.11750
31.33917,0.09777
31.09810,0.06915
30.85703,0.04385
30.61596,0.02645
30.37489,0.01495
30.13382,0.00628
29.89275,-0.00167
29.65168,-0.00990
29.41061,-0.01605
29.16954,-0.01490
28.92847,-0.00452
28.68740,0.00800
28.44633,0.01047
28.20526,-0.00193
27.96418,-0.02202
27.72311,-0.04019
27.48204,-0.05304
27.24097,-0.06080
26.99990,-0.06581
26.75883,-0.07633
26.51776,-0.09818
26.27669,-0.12954
26.03562,-0.15174
25.79455,-0.10258
25.55348,-0.05169
25.31241,-0.14361
25.07134,-0.21218
24.83027,-0.06298
24.58920,-0.01484
24.34813,-0.04334
24.10706,-0.08345
23.86599,-0.12885
23.62491,-0.16708
23.38384,-0.18797
23.14277,-0.20419
22.90170,-0.22362
22.66063,-0.23299
22.41956,-0.22437
22.17849,-0.20944
21.93742,-0.20238
21.69635,-0.20734
21.45528,-0.21963
21.21421,-0.23189
20.97314,-0.23886
20.73207,-0.23500
20.49100,-0.22409
20.24993,-0.22226
20.00886,-0.23336
19.76779,-0.25072
19.52672,-0.27241
19.28564,-0.29494
19.04457,-0.31130
18.80350,-0.32220
18.56243,-0.32710
18.32136,-0.31903
18.08029,-0.30600
17.83922,-0.31053
17.59815,-0.29741
17.35708,-0.14880
17.11601,-0.01729
16.87494,0.02572
16.63387,0.02154
16.39280,0.00318
16.15173,-0.05309
15.91066,-0.17872
15.66959,-0.28074
15.42852,-0.29339
15.18745,-0.29039
14.94637,-0.29443
14.70530,-0.30526
14.46423,-0.32734
14.22316,-0.35431
13.98209,-0.36989
13.74102,-0.36374
13.49995,-0.33822
13.25888,-0.30800
13.01781,-0.28385
12.77674,-0.26942
12.53567,-0.26856
12.29460,-0.27274
12.05353,-0.27059
11.81246,-0.26622
11.57139,-0.27115
11.33032,-0.28774
11.08925,-0.31106
10.84818,-0.33094
10.60710,-0.32916
10.36603,-0.30164
10.12496,-0.26504
9.88389,-0.23830
9.64282,-0.23268
9.40175,-0.16390
9.16068,0.15858
8.91961,0.54855
8.67854,0.78693
8.43747,0.86514
8.19640,0.80755
7.95533,0.61785
7.71426,0.31230
7.47319,-0.04934
7.23212,-0.27703
6.99105,-0.29122
6.74998,-0.29828
6.50891,-0.30246
6.26783,-0.28939
6.02676,-0.26909
5.78569,-0.25595
5.54462,-0.26113
5.30355,-0.28899
5.06248,-0.32178
4.82141,-0.32875
4.58034,-0.30840
4.33927,-0.28385
4.09820,-0.26649
3.85713,-0.26235
3.61606,-0.26934
3.37499,-0.27705
3.13392,-0.28627
2.89285,-0.29812
2.65178,-0.30345
2.41071,-0.29873
2.16964,-0.29020
1.92856,-0.28388
1.68749,-0.28093
1.44642,-0.28316
1.20535,-0.28586
0.96428,-0.28450
0.72321,-0.30047
0.48214,-0.36103
0.24107,-0.40178
-0.00000,-0.31084
