399.69498,1.89082
399.45391,1.92314
399.21284,1.94698
398.97177,1.94742
398.73070,1.94100
398.48963,1.92350
398.24856,1.89833
398.00749,1.86846
397.76642,1.87005
397.52535,1.93048
397.28428,1.98172
397.04321,1.94908
396.80214,1.85741
396.56107,1.78541
396.32000,1.76318
396.07892,1.81776
395.83785,1.97290
395.59678,2.17408
395.35571,2.24832
395.11464,2.30340
394.87357,2.34525
394.63250,2.27055
394.39143,2.22516
394.15036,2.15898
393.90929,2.20766
393.66822,2.18943
393.42715,2.00273
393.18608,1.89731
392.94501,1.85307
392.70394,1.81554
392.46287,1.78351
392.22180,1.78703
391.98073,1.82977
391.73965,1.88600
391.49858,1.93245
391.25751,1.97363
391.01644,2.02766
390.77537,2.15826
390.53430,2.34040
390.29323,2.16141
390.05216,2.07289
389.81109,2.05282
389.57002,2.03661
389.32895,2.09067
389.08788,2.14802
388.84681,2.29609
388.60574,2.64126
388.36467,2.51809
388.12360,2.28836
387.88253,2.12090
387.64146,1.91633
387.40038,1.81757
387.15931,1.82746
386.91824,1.97901
386.67717,2.23750
386.43610,2.22473
386.19503,2.01191
385.95396,1.93663
385.71289,1.98242
385.47182,2.03698
385.23075,2.01407
384.98968,1.95825
384.74861,1.96602
384.50754,1.94052
384.26647,1.83817
384.02540,1.80292
383.78433,1.81698
383.54326,1.91635
383.30219,1.99549
383.06111,1.90718
382.82004,1.88079
382.57897,1.98776
382.33790,1.98385
382.09683,1.95015
381.85576,1.96526
381.61469,2.02338
381.37362,1.96808
381.13255,1.89374
380.89148,1.91809
380.65041,2.02890
380.40934,2.25945
380.16827,2.14144
379.92720,1.93855
379.68613,1.91050
379.44506,2.00675
379.20399,2.08531
378.96292,1.99121
378.72184,1.93781
378.48077,2.02644
378.23970,2.18480
377.99863,2.35938
377.75756,2.30196
377.51649,2.15356
377.27542,2.22990
377.03435,2.43073
376.79328,2.43546
376.55221,2.20298
376.31114,2.06124
376.07007,2.07836
375.82900,2.13736
375.58793,2.12689
375.34686,2.10836
375.10579,2.07230
374.86472,1.98057
374.62365,1.84094
374.38257,1.77099
374.14150,1.81361
373.90043,1.90658
373.65936,1.96040
373.41829,1.94842
373.17722,2.00661
372.93615,2.15205
372.69508,2.10710
372.45401,2.02060
372.21294,1.99385
371.97187,2.00812
371.73080,1.98447
371.48973,1.96110
371.24866,2.00337
371.00759,1.96644
370.76652,1.82273
370.52545,1.71376
370.28437,1.67933
370.04330,1.69180
369.80223,1.70608
369.56116,1.69007
369.32009,1.65003
369.07902,1.62106
368.83795,1.62110
368.59688,1.64066
368.35581,1.66420
368.11474,1.68743
367.87367,1.70241
367.63260,1.67778
367.39153,1.62378
367.15046,1.58748
366.90939,1.58683
366.66832,1.61392
366.42725,1.65644
366.18618,1.68605
365.94510,1.66432
365.70403,1.62078
365.46296,1.60525
365.22189,1.60934
364.98082,1.59576
364.73975,1.56583
364.49868,1.55114
364.25761,1.56157
364.01654,1.58459
363.77547,1.60928
363.53440,1.62027
363.29333,1.59817
363.05226,1.54848
362.81119,1.49577
362.57012,1.45499
362.32905,1.43238
362.08798,1.43503
361.84691,1.46142
361.60583,1.49182
361.36476,1.49940
361.12369,1.48037
360.88262,1.46369
360.64155,1.47847
360.40048,1.52055
360.15941,1.55583
359.91834,1.56716
359.67727,1.57122
359.43620,1.57626
359.19513,1.57194
358.95406,1.54625
358.71299,1.51479
358.47192,1.51077
358.23085,1.54234
357.98978,1.58017
357.74871,1.58596
357.50764,1.56113
357.26656,1.53170
357.02549,1.51062
356.78442,1.50399
356.54335,1.51497
356.30228,1.53562
356.06121,1.55522
355.82014,1.56774
355.57907,1.56725
355.33800,1.54560
355.09693,1.50442
354.85586,1.46828
354.61479,1.46344
354.37372,1.49225
354.13265,1.53462
353.89158,1.56494
353.65051,1.57972
353.40944,1.59021
353.16837,1.59268
352.92729,1.57108
352.68622,1.52933
352.44515,1.49315
352.20408,1.47834
351.96301,1.47978
351.72194,1.48916
351.48087,1.50300
351.23980,1.51447
350.99873,1.52330
350.75766,1.54106
350.51659,1.56237
350.27552,1.55037
350.03445,1.50454
349.79338,1.47004
349.55231,1.46990
349.31124,1.49082
349.07017,1.50749
348.82910,1.50177
348.58802,1.47188
348.34695,1.43632
348.10588,1.42796
347.86481,1.46043
347.62374,1.50277
347.38267,1.52238
347.14160,1.52762
346.90053,1.53002
346.65946,1.52505
346.41839,1.51244
346.17732,1.51587
345.93625,1.55978
345.69518,1.64698
345.45411,1.74523
345.21304,1.78543
344.97197,1.74568
344.73090,1.69353
344.48983,1.68351
344.24875,1.72639
344.00768,1.78237
343.76661,1.76953
343.52554,1.67836
343.28447,1.59504
343.04340,1.56858
342.80233,1.58587
342.56126,1.61293
342.32019,1.63797
342.07912,1.65446
341.83805,1.64210
341.59698,1.61171
341.35591,1.59638
341.11484,1.61389
340.87377,1.65956
340.63270,1.71039
340.39163,1.75032
340.15056,1.78102
339.90948,1.80256
339.66841,1.79425
339.42734,1.75327
339.18627,1.72639
338.94520,1.75331
338.70413,1.84544
338.46306,1.95423
338.22199,1.95033
337.98092,1.87572
337.73985,1.81950
337.49878,1.80966
337.25771,1.83521
337.01664,1.87652
336.77557,1.91217
336.53450,1.90882
336.29343,1.90217
336.05236,1.94039
335.81129,2.00656
335.57021,2.00941
335.32914,1.92627
335.08807,1.83260
334.84700,1.80033
334.60593,1.83239
334.36486,1.87107
334.12379,1.87094
333.88272,1.82948
333.64165,1.79660
333.40058,1.80336
333.15951,1.82575
332.91844,1.84583
332.67737,1.85589
332.43630,1.85815
332.19523,1.84674
331.95416,1.80087
331.71309,1.73072
331.47202,1.66509
331.23094,1.61819
330.98987,1.58161
330.74880,1.56967
330.50773,1.59692
330.26666,1.64715
330.02559,1.68588
329.78452,1.68891
329.54345,1.66466
329.30238,1.63755
329.06131,1.61753
328.82024,1.60754
328.57917,1.61411
328.33810,1.63126
328.09703,1.62930
327.85596,1.59612
327.61489,1.56032
327.37382,1.56110
327.13275,1.61638
326.89167,1.69801
326.65060,1.75114
326.40953,1.77891
326.16846,1.81359
325.92739,1.82329
325.68632,1.76129
325.44525,1.69393
325.20418,1.69044
324.96311,1.73541
324.72204,1.78623
324.48097,1.80802
324.23990,1.79069
323.99883,1.76226
323.75776,1.71217
323.51669,1.65020
323.27562,1.62236
323.03455,1.63518
322.79348,1.65134
322.55240,1.64252
322.31133,1.65116
322.07026,1.74629
321.82919,1.92887
321.58812,2.00780
321.34705,1.97511
321.10598,2.02348
320.86491,2.13810
320.62384,2.18019
320.38277,2.17923
320.14170,2.09603
319.90063,1.92968
319.65956,1.84620
319.41849,1.93213
319.17742,2.14130
318.93635,2.14395
318.69528,1.90359
318.45421,1.82175
318.21313,1.88209
317.97206,1.98477
317.73099,2.02149
317.48992,1.96249
317.24885,1.88580
317.00778,1.87544
316.76671,1.91523
316.52564,1.92748
316.28457,1.87209
316.04350,1.84318
315.80243,1.89378
315.56136,1.99195
315.32029,2.05179
315.07922,2.04246
314.83815,2.03539
314.59708,2.05321
314.35601,1.99468
314.11494,1.92608
313.87386,1.99829
313.63279,2.18605
313.39172,2.26553
313.15065,2.17770
312.90958,2.13838
312.66851,2.21510
312.42744,2.39713
312.18637,2.50490
311.94530,2.28432
311.70423,2.09987
311.46316,2.05289
311.22209,2.00296
310.98102,1.94927
310.73995,1.97541
310.49888,1.90856
310.25781,1.85139
310.01674,1.86786
309.77567,1.88764
309.53459,1.90832
309.29352,1.99653
309.05245,2.15859
308.81138,2.28551
308.57031,2.18314
308.32924,2.02594
308.08817,1.97269
307.84710,2.03563
307.60603,2.17182
307.36496,2.33755
307.12389,2.31854
306.88282,2.10962
306.64175,1.93572
306.40068,1.82998
306.15961,1.76503
305.91854,1.73346
305.67747,1.72617
305.43640,1.71185
305.19532,1.67538
304.95425,1.64305
304.71318,1.62094
304.47211,1.58915
304.23104,1.56126
303.98997,1.56513
303.74890,1.59380
303.50783,1.61570
303.26676,1.60751
303.02569,1.56402
302.78462,1.49891
302.54355,1.44347
302.30248,1.42369
302.06141,1.43998
301.82034,1.46239
301.57927,1.45079
301.33820,1.40544
301.09713,1.36947
300.85605,1.37112
300.61498,1.39825
300.37391,1.41818
300.13284,1.41770
299.89177,1.41184
299.65070,1.41161
299.40963,1.40939
299.16856,1.39571
298.92749,1.37706
298.68642,1.36600
298.44535,1.36081
298.20428,1.34649
297.96321,1.31501
297.72214,1.27625
297.48107,1.24705
297.24000,1.23388
296.99893,1.23118
296.75786,1.22862
296.51678,1.22057
296.27571,1.21001
296.03464,1.20023
295.79357,1.19308
295.55250,1.19160
295.31143,1.19755
295.07036,1.20421
294.82929,1.19990
294.58822,1.18450
294.34715,1.17191
294.10608,1.17339
293.86501,1.18699
293.62394,1.20166
293.38287,1.20491
293.14180,1.19167
292.90073,1.17186
292.65966,1.15911
292.41859,1.15595
292.17751,1.15698
291.93644,1.15952
291.69537,1.16529
291.45430,1.17348
291.21323,1.17871
290.97216,1.17820
290.73109,1.17570
290.49002,1.17426
290.24895,1.17018
290.00788,1.15909
289.76681,1.14431
289.52574,1.13346
289.28467,1.12973
289.04360,1.12927
288.80253,1.12638
288.56146,1.11967
288.32039,1.11231
288.07932,1.10940
287.83824,1.11356
287.59717,1.12201
287.35610,1.12808
287.11503,1.12544
286.87396,1.11556
286.63289,1.10670
286.39182,1.10262
286.15075,1.09878
285.90968,1.09233
285.66861,1.08739
285.42754,1.08863
285.18647,1.09465
284.94540,1.09704
284.70433,1.08961
284.46326,1.07858
284.22219,1.07600
283.98112,1.08452
283.74005,1.09474
283.49897,1.09778
283.25790,1.09553
283.01683,1.09403
282.77576,1.09452
282.53469,1.09386
282.29362,1.08999
282.05255,1.08430
281.81148,1.07970
281.57041,1.07799
281.32934,1.07854
281.08827,1.07895
280.84720,1.07722
280.60613,1.07343
280.36506,1.06969
280.12399,1.06930
279.88292,1.07484
279.64185,1.08445
279.40078,1.09038
279.15970,1.08620
278.91863,1.07526
278.67756,1.06670
278.43649,1.06457
278.19542,1.06601
277.95435,1.06836
277.71328,1.07235
277.47221,1.07783
277.23114,1.08241
276.99007,1.08527
276.74900,1.08744
276.50793,1.08897
276.26686,1.08866
276.02579,1.08530
275.78472,1.07945
275.54365,1.07425
275.30258,1.07227
275.06151,1.07194
274.82043,1.06992
274.57936,1.06549
274.33829,1.05922
274.09722,1.05035
273.85615,1.04049
273.61508,1.03608
273.37401,1.04125
273.13294,1.05210
272.89187,1.06317
272.65080,1.07432
272.40973,1.08547
272.16866,1.09241
271.92759,1.09265
271.68652,1.08923
271.44545,1.08679
271.20438,1.08842
270.96331,1.09597
270.72224,1.10900
270.48116,1.12214
270.24009,1.12583
269.99902,1.11376
269.75795,1.09146
269.51688,1.07305
269.27581,1.06896
269.03474,1.07876
268.79367,1.09312
268.55260,1.10213
268.31153,1.10328
268.07046,1.10130
267.82939,1.10136
267.58832,1.10416
267.34725,1.10783
267.10618,1.11029
266.86511,1.11012
266.62404,1.10877
266.38297,1.11072
266.14189,1.11891
265.90082,1.13125
265.65975,1.14307
265.41868,1.15130
265.17761,1.15490
264.93654,1.15472
264.69547,1.15447
264.45440,1.15815
264.21333,1.16482
263.97226,1.16751
263.73119,1.16111
263.49012,1.15075
263.24905,1.14792
263.00798,1.16088
262.76691,1.18997
262.52584,1.22611
262.28477,1.25481
262.04370,1.26867
261.80262,1.27440
261.56155,1.28143
261.32048,1.28853
261.07941,1.29046
260.83834,1.28821
260.59727,1.28809
260.35620,1.29457
260.11513,1.30792
259.87406,1.32927
259.63299,1.36052
259.39192,1.39414
259.15085,1.41311
258.90978,1.41265
258.66871,1.40874
258.42764,1.41895
258.18657,1.44359
257.94550,1.47062
257.70443,1.49441
257.46335,1.52092
257.22228,1.55189
256.98121,1.57958
256.74014,1.59746
256.49907,1.61026
256.25800,1.62481
256.01693,1.64333
255.77586,1.66638
255.53479,1.69179
255.29372,1.72626
255.05265,1.78428
254.81158,1.87171
254.57051,1.97616
254.32944,2.04114
254.08837,2.00903
253.84730,1.92889
253.60623,1.87447
253.36516,1.89311
253.12408,1.96642
252.88301,2.04099
252.64194,2.13043
252.40087,2.17987
252.15980,2.18445
251.91873,2.18355
251.67766,2.19613
251.43659,2.19854
251.19552,2.19485
250.95445,2.20948
250.71338,2.25817
250.47231,2.33987
250.23124,2.38097
249.99017,2.32811
249.74910,2.25171
249.50803,2.23678
249.26696,2.32183
249.02589,2.44485
248.78481,2.54628
248.54374,2.63552
248.30267,2.59968
248.06160,2.39403
247.82053,2.24514
247.57946,2.12696
247.33839,2.01966
247.09732,1.93720
246.85625,1.90453
246.61518,1.93486
246.37411,1.99105
246.13304,2.01919
245.89197,2.02338
245.65090,2.03029
245.40983,2.06569
245.16876,2.09806
244.92769,2.02947
244.68661,1.87229
244.44554,1.73576
244.20447,1.66014
243.96340,1.62958
243.72233,1.60731
243.48126,1.57477
243.24019,1.54106
242.99912,1.51517
242.75805,1.49225
242.51698,1.46657
242.27591,1.43912
242.03484,1.40426
241.79377,1.35477
241.55270,1.29741
241.31163,1.24631
241.07056,1.20775
240.82949,1.17804
240.58842,1.15155
240.34734,1.12642
240.10627,1.10317
239.86520,1.08149
239.62413,1.06101
239.38306,1.04398
239.14199,1.03292
238.90092,1.02442
238.65985,1.01026
238.41878,0.98765
238.17771,0.96382
237.93664,0.94675
237.69557,0.93583
237.45450,0.92482
237.21343,0.91129
236.97236,0.89879
236.73129,0.89004
236.49022,0.88355
236.24915,0.87790
236.00807,0.87410
235.76700,0.87210
235.52593,0.86866
235.28486,0.86119
235.04379,0.85124
234.80272,0.84138
234.56165,0.83147
234.32058,0.82057
234.07951,0.80928
233.83844,0.79871
233.59737,0.79041
233.35630,0.78710
233.11523,0.78977
232.87416,0.79522
232.63309,0.79829
232.39202,0.79587
232.15095,0.78847
231.90988,0.77957
231.66880,0.77305
231.42773,0.77038
231.18666,0.77050
230.94559,0.77192
230.70452,0.77332
230.46345,0.77365
230.22238,0.77302
229.98131,0.77164
229.74024,0.76830
229.49917,0.76174
229.25810,0.75285
229.01703,0.74434
228.77596,0.73880
228.53489,0.73724
228.29382,0.73882
228.05275,0.74171
227.81168,0.74394
227.57061,0.74390
227.32953,0.74106
227.08846,0.73672
226.84739,0.73366
226.60632,0.73466
226.36525,0.73967
226.12418,0.74425
225.88311,0.74392
225.64204,0.74067
225.40097,0.74056
225.15990,0.74451
224.91883,0.74686
224.67776,0.74371
224.43669,0.73801
224.19562,0.73459
223.95455,0.73504
223.71348,0.73937
223.47241,0.74793
223.23134,0.75846
222.99026,0.76449
222.74919,0.76158
222.50812,0.75397
222.26705,0.75040
222.02598,0.75508
221.78491,0.76539
221.54384,0.77622
221.30277,0.78386
221.06170,0.78679
220.82063,0.78583
220.57956,0.78398
220.33849,0.78448
220.09742,0.78869
219.85635,0.79621
219.61528,0.80614
219.37421,0.81732
219.13314,0.82786
218.89207,0.83614
218.65099,0.84245
218.40992,0.84977
218.16885,0.86184
217.92778,0.87856
217.68671,0.89408
217.44564,0.90317
217.20457,0.90774
216.96350,0.91304
216.72243,0.92080
216.48136,0.93013
216.24029,0.94062
215.99922,0.95106
215.75815,0.95914
215.51708,0.96474
215.27601,0.97022
215.03494,0.97720
214.79387,0.98583
214.55280,0.99560
214.31172,1.00472
214.07065,1.01072
213.82958,1.01337
213.58851,1.01543
213.34744,1.01899
213.10637,1.02245
212.86530,1.02420
212.62423,1.02743
212.38316,1.03600
212.14209,1.04684
211.90102,1.05287
211.65995,1.05256
211.41888,1.04890
211.17781,1.04218
210.93674,1.03228
210.69567,1.02388
210.45460,1.02265
210.21353,1.02810
209.97245,1.03465
209.73138,1.03791
209.49031,1.03733
209.24924,1.03497
209.00817,1.03297
208.76710,1.03229
208.52603,1.03222
208.28496,1.03013
208.04389,1.02327
207.80282,1.01149
207.56175,0.99745
207.32068,0.98501
207.07961,0.97706
206.83854,0.97420
206.59747,0.97440
206.35640,0.97329
206.11533,0.96625
205.87426,0.95347
205.63318,0.94140
205.39211,0.93584
205.15104,0.93589
204.90997,0.93635
204.66890,0.93385
204.42783,0.92763
204.18676,0.91746
203.94569,0.90413
203.70462,0.88967
203.46355,0.87533
203.22248,0.86078
202.98141,0.84585
202.74034,0.83224
202.49927,0.82251
202.25820,0.81707
202.01713,0.81302
201.77606,0.80630
201.53499,0.79550
201.29391,0.78332
201.05284,0.77331
200.81177,0.76586
200.57070,0.75890
200.32963,0.75115
200.08856,0.74255
199.84749,0.73284
199.60642,0.72247
199.36535,0.71350
199.12428,0.70696
198.88321,0.70087
198.64214,0.69270
198.40107,0.68226
198.16000,0.67143
197.91893,0.66219
197.67786,0.65533
197.43679,0.65029
197.19572,0.64622
196.95464,0.64270
196.71357,0.63904
196.47250,0.63402
196.23143,0.62704
195.99036,0.61901
195.74929,0.61201
195.50822,0.60741
195.26715,0.60426
195.02608,0.60048
194.78501,0.59592
194.54394,0.59214
194.30287,0.58869
194.06180,0.58248
193.82073,0.57237
193.57966,0.56166
193.33859,0.55455
193.09752,0.55184
192.85645,0.55075
192.61537,0.54839
192.37430,0.54452
192.13323,0.54055
191.89216,0.53680
191.65109,0.53223
191.41002,0.52647
191.16895,0.52121
190.92788,0.51851
190.68681,0.51804
190.44574,0.51744
190.20467,0.51560
189.96360,0.51377
189.72253,0.51298
189.48146,0.51249
189.24039,0.51139
188.99932,0.50967
188.75825,0.50785
188.51718,0.50634
188.27610,0.50505
188.03503,0.50329
187.79396,0.50109
187.55289,0.49983
187.31182,0.50008
187.07075,0.50032
186.82968,0.49931
186.58861,0.49791
186.34754,0.49710
186.10647,0.49621
185.86540,0.49453
185.62433,0.49312
185.38326,0.49342
185.14219,0.49516
184.90112,0.49668
184.66005,0.49658
184.41898,0.49467
184.17791,0.49196
183.93683,0.49045
183.69576,0.49202
183.45469,0.49660
183.21362,0.50206
182.97255,0.50594
182.73148,0.50713
182.49041,0.50610
182.24934,0.50420
182.00827,0.50253
181.76720,0.50137
181.52613,0.50074
181.28506,0.50132
181.04399,0.50342
180.80292,0.50607
180.56185,0.50859
180.32078,0.51178
180.07971,0.51611
179.83864,0.52000
179.59756,0.52198
179.35649,0.52345
179.11542,0.52736
178.87435,0.53458
178.63328,0.54289
178.39221,0.55013
178.15114,0.55711
177.91007,0.56659
177.66900,0.57915
177.42793,0.59145
177.18686,0.60006
176.94579,0.60556
176.70472,0.61121
176.46365,0.61919
176.22258,0.62933
175.98151,0.64023
175.74044,0.65104
175.49937,0.66272
175.25829,0.67725
175.01722,0.69514
174.77615,0.71417
174.53508,0.73126
174.29401,0.74504
174.05294,0.75651
173.81187,0.76807
173.57080,0.78184
173.32973,0.79738
173.08866,0.81083
172.84759,0.81724
172.60652,0.81571
172.36545,0.81135
172.12438,0.80989
171.88331,0.81156
171.64224,0.81187
171.40117,0.80876
171.16010,0.80637
170.91902,0.80941
170.67795,0.81566
170.43688,0.81677
170.19581,0.80765
169.95474,0.79357
169.71367,0.78465
169.47260,0.78565
169.23153,0.79258
168.99046,0.79762
168.74939,0.79616
168.50832,0.78944
168.26725,0.78215
168.02618,0.77845
167.78511,0.77877
167.54404,0.77949
167.30297,0.77692
167.06190,0.77140
166.82083,0.76620
166.57975,0.76389
166.33868,0.76558
166.09761,0.77151
165.85654,0.78037
165.61547,0.78882
165.37440,0.79333
165.13333,0.79292
164.89226,0.79012
164.65119,0.78940
164.41012,0.79430
164.16905,0.80515
163.92798,0.81900
163.68691,0.83243
163.44584,0.84396
163.20477,0.85317
162.96370,0.85906
162.72263,0.86138
162.48156,0.86274
162.24048,0.86647
161.99941,0.87187
161.75834,0.87475
161.51727,0.87424
161.27620,0.87481
161.03513,0.87816
160.79406,0.87911
160.55299,0.87382
160.31192,0.86638
160.07085,0.86217
159.82978,0.85990
159.58871,0.85494
159.34764,0.84731
159.10657,0.84208
158.86550,0.84169
158.62443,0.84193
158.38336,0.83743
158.14229,0.82834
157.90121,0.82002
157.66014,0.81636
157.41907,0.81565
157.17800,0.81282
156.93693,0.80544
156.69586,0.79765
156.45479,0.79521
156.21372,0.79752
155.97265,0.79756
155.73158,0.78921
155.49051,0.77392
155.24944,0.75950
155.00837,0.75235
154.76730,0.75150
154.52623,0.74990
154.28516,0.74190
154.04409,0.72852
153.80302,0.71486
153.56194,0.70472
153.32087,0.69748
153.07980,0.68964
152.83873,0.67890
152.59766,0.66600
152.35659,0.65319
152.11552,0.64199
151.87445,0.63180
151.63338,0.62073
151.39231,0.60871
151.15124,0.59799
150.91017,0.58954
150.66910,0.58145
150.42803,0.57179
150.18696,0.56046
149.94589,0.54826
149.70482,0.53643
149.46375,0.52689
149.22267,0.52129
148.98160,0.51915
148.74053,0.51699
148.49946,0.51094
148.25839,0.50118
148.01732,0.49193
147.77625,0.48622
147.53518,0.48314
147.29411,0.48096
147.05304,0.47962
146.81197,0.47941
146.57090,0.47985
146.32983,0.48078
146.08876,0.48297
145.84769,0.48693
145.60662,0.49212
145.36555,0.49767
145.12448,0.50299
144.88340,0.50736
144.64233,0.50981
144.40126,0.51031
144.16019,0.51072
143.91912,0.51301
143.67805,0.51669
143.43698,0.51893
143.19591,0.51720
142.95484,0.51132
142.71377,0.50319
142.47270,0.49475
142.23163,0.48642
141.99056,0.47797
141.74949,0.47026
141.50842,0.46497
141.26735,0.46208
141.02628,0.45921
140.78521,0.45417
140.54413,0.44734
140.30306,0.44104
140.06199,0.43735
139.82092,0.43713
139.57985,0.43975
139.33878,0.44318
139.09771,0.44583
138.85664,0.44838
138.61557,0.45238
138.37450,0.45811
138.13343,0.46540
137.89236,0.47467
137.65129,0.48529
137.41022,0.49520
137.16915,0.50399
136.92808,0.51394
136.68701,0.52677
136.44594,0.54162
136.20486,0.55748
135.96379,0.57496
135.72272,0.59479
135.48165,0.61578
135.24058,0.63626
134.99951,0.65762
134.75844,0.68342
134.51737,0.71319
134.27630,0.74052
134.03523,0.76081
133.79416,0.77738
133.55309,0.79601
133.31202,0.81780
133.07095,0.84050
132.82988,0.86233
132.58881,0.88216
132.34774,0.89899
132.10667,0.91120
131.86559,0.91786
131.62452,0.92233
131.38345,0.92869
131.14238,0.93402
130.90131,0.93159
130.66024,0.92063
130.41917,0.90541
130.17810,0.88730
129.93703,0.86657
129.69596,0.84694
129.45489,0.82872
129.21382,0.80489
128.97275,0.77329
128.73168,0.74357
128.49061,0.72468
128.24954,0.71360
128.00847,0.70018
127.76740,0.67841
127.52632,0.64964
127.28525,0.61842
127.04418,0.58925
126.80311,0.56497
126.56204,0.54506
126.32097,0.52713
126.07990,0.51042
125.83883,0.49636
125.59776,0.48514
125.35669,0.47445
125.11562,0.46250
124.87455,0.45039
124.63348,0.44010
124.39241,0.43139
124.15134,0.42246
123.91027,0.41342
123.66920,0.40684
123.42812,0.40375
123.18705,0.40144
122.94598,0.39714
122.70491,0.39183
122.46384,0.38847
122.22277,0.38782
121.98170,0.38776
121.74063,0.38599
121.49956,0.38289
121.25849,0.38145
121.01742,0.38429
120.77635,0.39130
120.53528,0.40013
120.29421,0.40839
120.05314,0.41515
119.81207,0.42171
119.57100,0.43132
119.32993,0.44673
119.08885,0.46742
118.84778,0.48991
118.60671,0.51114
118.36564,0.53144
118.12457,0.55282
117.88350,0.57506
117.64243,0.59555
117.40136,0.61268
117.16029,0.62655
116.91922,0.63670
116.67815,0.64190
116.43708,0.64234
116.19601,0.63995
115.95494,0.63605
115.71387,0.62950
115.47280,0.61826
115.23173,0.60340
114.99066,0.58911
114.74958,0.57754
114.50851,0.56746
114.26744,0.55843
114.02637,0.55264
113.78530,0.55043
113.54423,0.54880
113.30316,0.54648
113.06209,0.54671
112.82102,0.55284
112.57995,0.56318
112.33888,0.57193
112.09781,0.57544
111.85674,0.57528
111.61567,0.57335
111.37460,0.56919
111.13353,0.56459
110.89246,0.56440
110.65139,0.56938
110.41031,0.57331
110.16924,0.57015
109.92817,0.56019
109.68710,0.54800
109.44603,0.53719
109.20496,0.52744
108.96389,0.51588
108.72282,0.50079
108.48175,0.48313
108.24068,0.46471
107.99961,0.44757
107.75854,0.43471
107.51747,0.42741
107.27640,0.42203
107.03533,0.41316
106.79426,0.39980
106.55319,0.38558
106.31212,0.37360
106.07104,0.36429
105.82997,0.35735
105.58890,0.35184
105.34783,0.34440
105.10676,0.33181
104.86569,0.31597
104.62462,0.30259
104.38355,0.29435
104.14248,0.28848
103.90141,0.28194
103.66034,0.27576
103.41927,0.27216
103.17820,0.27037
102.93713,0.26782
102.69606,0.26379
102.45499,0.25934
102.21392,0.25462
101.97285,0.24859
101.73177,0.24129
101.49070,0.23441
101.24963,0.22953
101.00856,0.22681
100.76749,0.22534
100.52642,0.22377
100.28535,0.22093
100.04428,0.21695
99.80321,0.21394
99.56214,0.21372
99.32107,0.21501
99.08000,0.21502
98.83893,0.21358
98.59786,0.21281
98.35679,0.21308
98.11572,0.21251
97.87465,0.21060
97.63358,0.20972
97.39250,0.21169
97.15143,0.21510
96.91036,0.21738
96.66929,0.21801
96.42822,0.21809
96.18715,0.21888
95.94608,0.22187
95.70501,0.22839
95.46394,0.23746
95.22287,0.24554
94.98180,0.24989
94.74073,0.25091
94.49966,0.25051
94.25859,0.25001
94.01752,0.25030
93.77645,0.25193
93.53538,0.25428
93.29431,0.25593
93.05323,0.25591
92.81216,0.25393
92.57109,0.25028
92.33002,0.24666
92.08895,0.24600
91.84788,0.24993
91.60681,0.25689
91.36574,0.26398
91.12467,0.27035
90.88360,0.27821
90.64253,0.29059
90.40146,0.30900
90.16039,0.33341
89.91932,0.36338
89.67825,0.39835
89.43718,0.43762
89.19611,0.47939
88.95504,0.51923
88.71396,0.55094
88.47289,0.56945
88.23182,0.57290
87.99075,0.56353
87.74968,0.54628
87.50861,0.52410
87.26754,0.49635
87.02647,0.46376
86.78540,0.43063
86.54433,0.40061
86.30326,0.37430
86.06219,0.35124
85.82112,0.33099
85.58005,0.31256
85.33898,0.29534
85.09791,0.27999
84.85684,0.26677
84.61577,0.25461
84.37469,0.24298
84.13362,0.23250
83.89255,0.22310
83.65148,0.21341
83.41041,0.20296
83.16934,0.19356
82.92827,0.18695
82.68720,0.18230
82.44613,0.17720
82.20506,0.17064
81.96399,0.16386
81.72292,0.15859
81.48185,0.15538
81.24078,0.15329
80.99971,0.15075
80.75864,0.14670
80.51757,0.14142
80.27650,0.13639
80.03542,0.13311
79.79435,0.13171
79.55328,0.13116
79.31221,0.13059
79.07114,0.12980
78.83007,0.12907
78.58900,0.12874
78.34793,0.12857
78.10686,0.12718
77.86579,0.12328
77.62472,0.11771
77.38365,0.11307
77.14258,0.11105
76.90151,0.11092
76.66044,0.11101
76.41937,0.11108
76.17830,0.11255
75.93723,0.11574
75.69615,0.11771
75.45508,0.11518
75.21401,0.10949
74.97294,0.10535
74.73187,0.10494
74.49080,0.10617
74.24973,0.10665
74.00866,0.10637
73.76759,0.10620
73.52652,0.10636
73.28545,0.10716
73.04438,0.10932
72.80331,0.11246
72.56224,0.11452
72.32117,0.11352
72.08010,0.10989
71.83903,0.10632
71.59796,0.10527
71.35688,0.10685
71.11581,0.10883
70.87474,0.10879
70.63367,0.10726
70.39260,0.10801
70.15153,0.11394
69.91046,0.12349
69.66939,0.13274
69.42832,0.13997
69.18725,0.14591
68.94618,0.15014
68.70511,0.15042
68.46404,0.14624
68.22297,0.13981
67.98190,0.13275
67.74083,0.12463
67.49976,0.11561
67.25869,0.10773
67.01761,0.10286
66.77654,0.10046
66.53547,0.09803
66.29440,0.09320
66.05333,0.08646
65.81226,0.08121
65.57119,0.08046
65.33012,0.08402
65.08905,0.08948
64.84798,0.09471
64.60691,0.09906
64.36584,0.10341
64.12477,0.10888
63.88370,0.11462
63.64263,0.11794
63.40156,0.11747
63.16049,0.11459
62.91942,0.11098
62.67834,0.10675
62.43727,0.10165
62.19620,0.09656
61.95513,0.09251
61.71406,0.08933
61.47299,0.08649
61.23192,0.08445
60.99085,0.08366
60.74978,0.08326
60.50871,0.08189
60.26764,0.07946
60.02657,0.07733
59.78550,0.07677
59.54443,0.07732
59.30336,0.07718
59.06229,0.07546
58.82122,0.07310
58.58015,0.07107
58.33907,0.06916
58.09800,0.06686
57.85693,0.06409
57.61586,0.06087
57.37479,0.05731
57.13372,0.05413
56.89265,0.05249
56.65158,0.05232
56.41051,0.05208
56.16944,0.05063
55.92837,0.04842
55.68730,0.04658
55.44623,0.04576
55.20516,0.04609
54.96409,0.04814
54.72302,0.05296
54.48195,0.05959
54.24088,0.06379
53.99980,0.06243
53.75873,0.05827
53.51766,0.05723
53.27659,0.06189
53.03552,0.06980
52.79445,0.07651
52.55338,0.07865
52.31231,0.07687
52.07124,0.07596
51.83017,0.07959
51.58910,0.08557
51.34803,0.08761
51.10696,0.08223
50.86589,0.07307
50.62482,0.06703
50.38375,0.06715
50.14268,0.07006
49.90161,0.06992
49.66053,0.06491
49.41946,0.05937
49.17839,0.05892
48.93732,0.06357
48.69625,0.06697
48.45518,0.06424
48.21411,0.05695
47.97304,0.04811
47.73197,0.03795
47.49090,0.02790
47.24983,0.02287
47.00876,0.02476
46.76769,0.02773
46.52662,0.02476
46.28555,0.01580
46.04448,0.00626
45.80341,-0.00022
45.56234,-0.00418
45.32126,-0.00614
45.08019,-0.00467
44.83912,-0.00001
44.59805,0.00432
44.35698,0.00641
44.11591,0.00968
43.87484,0.01656
43.63377,0.02092
43.39270,0.01357
43.15163,-0.00473
42.91056,-0.02046
42.66949,-0.02068
42.42842,-0.00623
42.18735,0.01088
41.94628,0.01922
41.70521,0.01537
41.46414,0.00503
41.22307,-0.00140
40.98199,0.00189
40.74092,0.01221
40.49985,0.02454
40.25878,0.03629
40.01771,0.04458
39.77664,0.04553
39.53557,0.03976
39.29450,0.03303
39.05343,0.03119
38.81236,0.03836
38.57129,0.05493
38.33022,0.07282
38.08915,0.08123
37.84808,0.07867
37.60701,0.06974
37.36594,0.05532
37.12487,0.03771
36.88380,0.02621
36.64272,0.02535
36.40165,0.02666
36.16058,0.02055
35.91951,0.00977
35.67844,0.00614
35.43737,0.01495
35.19630,0.02849
34.95523,0.03669
34.71416,0.03759
34.47309,0.03468
34.23202,0.02739
33.99095,0.01659
33.74988,0.01278
33.50881,0.02182
33.26774,0.03681
33.02667,0.05221
32.78560,0.07053
32.54453,0.09029
32.30345,0.10184
32.06238,0.09960
31.82131,0.08558
31.58024,0.06012
31.33917,0.02460
31.09810,-0.01232
30.85703,-0.03775
30.61596,-0.04483
30.37489,-0.03733
30.13382,-0.01847
29.89275,0.00840
29.65168,0.02680
29.41061,0.02133
29.16954,0.00183
28.92847,-0.00750
28.68740,0.00480
28.44633,0.02502
28.20526,0.03714
27.96418,0.04964
27.72311,0.07130
27.48204,0.08369
27.24097,0.07258
26.99990,0.05505
26.75883,0.05408
26.51776,0.05880
26.27669,0.03937
26.03562,0.01055
25.79455,0.02030
25.55348,0.07909
25.31241,0.14354
25.07134,0.15168
24.83027,0.10380
24.58920,0.07779
24.34813,0.10246
24.10706,0.12851
23.86599,0.11972
23.62491,0.09688
23.38384,0.08800
23.14277,0.09406
22.90170,0.10308
22.66063,0.12982
22.41956,0.20022
22.17849,0.30463
21.93742,0.37073
21.69635,0.37330
21.45528,0.34407
21.21421,0.31312
20.97314,0.29398
20.73207,0.28006
20.49100,0.26743
20.24993,0.25530
20.00886,0.25843
19.76779,0.27670
19.52672,0.29315
19.28564,0.30134
19.04457,0.29451
18.80350,0.26516
18.56243,0.26897
18.32136,0.38024
18.08029,0.57297
17.83922,0.73138
17.59815,0.89059
17.35708,0.86985
17.11601,0.82291
16.87494,0.83288
16.63387,0.78424
16.39280,0.63692
16.15173,0.59478
15.91066,0.60184
15.66959,0.51941
15.42852,0.41910
15.18745,0.43937
14.94637,0.57179
14.70530,0.61208
14.46423,0.54279
14.22316,0.51330
13.98209,0.56033
13.74102,0.62847
13.49995,0.68343
13.25888,0.59271
13.01781,0.49725
12.77674,0.43614
12.53567,0.39141
12.29460,0.39230
12.05353,0.47979
11.81246,0.63831
11.57139,0.68121
11.33032,0.61541
11.08925,0.66601
10.84818,0.73786
10.60710,0.91615
10.36603,0.78582
10.12496,0.72216
9.88389,0.79048
9.64282,0.81057
9.40175,0.88767
9.16068,0.99593
8.91961,0.96522
8.67854,0.93646
8.43747,0.99265
8.19640,0.98414
7.95533,0.98860
7.71426,1.00611
7.47319,1.13340
7.23212,1.27304
6.99105,1.00726
6.74998,0.88902
6.50891,0.72599
6.26783,0.58362
6.02676,0.63025
5.78569,0.94009
5.54462,0.89319
5.30355,0.53924
5.06248,0.43915
4.82141,0.49865
4.58034,0.59809
4.33927,0.63705
4.09820,0.58069
3.85713,0.52304
3.61606,0.56158
3.37499,0.70012
3.13392,0.88525
2.89285,1.02485
2.65178,0.97713
2.41071,0.81837
2.16964,0.65638
1.92856,0.50607
1.68749,0.43684
1.44642,0.45071
1.20535,0.54304
0.96428,0.69934
0.72321,0.78001
0.48214,0.73795
0.24107,0.65307
-0.00000,0.39978
