399.69498,1.61549
399.45391,1.60993
399.21284,1.59140
398.97177,1.58003
398.73070,1.58888
398.48963,1.61431
398.24856,1.64243
398.00749,1.65553
397.76642,1.64360
397.52535,1.61584
397.28428,1.59203
397.04321,1.58660
396.80214,1.60135
396.56107,1.62258
396.32000,1.63200
396.07892,1.63053
395.83785,1.63467
395.59678,1.64595
395.35571,1.64763
395.11464,1.63361
394.87357,1.61511
394.63250,1.59599
394.39143,1.57307
394.15036,1.55206
393.90929,1.54551
393.66822,1.55431
393.42715,1.56127
393.18608,1.55072
392.94501,1.52703
392.70394,1.50612
392.46287,1.50009
392.22180,1.51105
391.98073,1.53230
391.73965,1.55170
391.49858,1.55853
391.25751,1.55431
391.01644,1.54980
390.77537,1.54854
390.53430,1.54301
390.29323,1.53345
390.05216,1.52855
389.81109,1.52796
389.57002,1.52586
389.32895,1.52368
389.08788,1.52740
388.84681,1.53399
388.60574,1.53232
388.36467,1.52310
388.12360,1.52434
387.88253,1.54289
387.64146,1.55608
387.40038,1.54052
387.15931,1.50919
386.91824,1.49059
386.67717,1.49388
386.43610,1.50789
386.19503,1.51558
385.95396,1.50465
385.71289,1.48160
385.47182,1.46570
385.23075,1.46170
384.98968,1.45848
384.74861,1.44817
384.50754,1.43607
384.26647,1.42350
384.02540,1.40303
383.78433,1.38189
383.54326,1.37264
383.30219,1.37559
383.06111,1.37839
382.82004,1.36975
382.57897,1.35104
382.33790,1.32809
382.09683,1.30683
381.85576,1.29170
381.61469,1.28141
381.37362,1.27471
381.13255,1.27782
380.89148,1.29339
380.65041,1.31142
380.40934,1.32085
380.16827,1.32359
379.92720,1.32926
379.68613,1.34149
379.44506,1.35635
379.20399,1.36422
378.96292,1.35938
378.72184,1.35483
378.48077,1.36827
378.23970,1.39564
377.99863,1.41648
377.75756,1.42029
377.51649,1.41406
377.27542,1.41087
377.03435,1.41450
376.79328,1.42237
376.55221,1.43806
376.31114,1.46588
376.07007,1.49564
375.82900,1.50924
375.58793,1.50178
375.34686,1.48355
375.10579,1.46482
374.86472,1.45067
374.62365,1.44389
374.38257,1.44540
374.14150,1.45492
373.90043,1.46993
373.65936,1.48512
373.41829,1.49437
373.17722,1.49263
372.93615,1.48021
372.69508,1.46404
372.45401,1.45097
372.21294,1.44354
371.97187,1.44210
371.73080,1.44703
371.48973,1.45926
371.24866,1.48008
371.00759,1.50308
370.76652,1.51066
370.52545,1.49241
370.28437,1.46328
370.04330,1.44772
369.80223,1.45108
369.56116,1.46056
369.32009,1.46254
369.07902,1.45425
368.83795,1.44254
368.59688,1.43198
368.35581,1.41887
368.11474,1.39947
367.87367,1.37914
367.63260,1.36868
367.39153,1.37486
367.15046,1.39401
366.90939,1.41236
366.66832,1.41610
366.42725,1.40514
366.18618,1.39248
365.94510,1.38863
365.70403,1.39283
365.46296,1.39886
365.22189,1.40109
364.98082,1.39507
364.73975,1.38289
364.49868,1.37382
364.25761,1.37196
364.01654,1.37044
363.77547,1.36379
363.53440,1.35692
363.29333,1.35479
363.05226,1.35350
362.81119,1.34707
362.57012,1.33732
362.32905,1.33262
362.08798,1.33871
361.84691,1.35453
361.60583,1.37474
361.36476,1.39260
361.12369,1.40337
360.88262,1.40571
360.64155,1.39936
360.40048,1.38539
360.15941,1.36770
359.91834,1.35206
359.67727,1.34284
359.43620,1.33952
359.19513,1.33928
358.95406,1.34417
358.71299,1.35896
358.47192,1.38162
358.23085,1.39962
357.98978,1.39798
357.74871,1.37538
357.50764,1.34528
357.26656,1.32135
357.02549,1.31131
356.78442,1.31741
356.54335,1.33468
356.30228,1.35028
356.06121,1.34970
355.82014,1.33170
355.57907,1.31228
355.33800,1.30682
355.09693,1.31732
354.85586,1.33481
354.61479,1.34697
354.37372,1.34717
354.13265,1.34112
353.89158,1.33922
353.65051,1.34473
353.40944,1.35337
353.16837,1.35783
352.92729,1.35217
352.68622,1.33908
352.44515,1.32831
352.20408,1.32517
351.96301,1.32596
351.72194,1.32577
351.48087,1.32619
351.23980,1.32871
350.99873,1.32892
350.75766,1.32496
350.51659,1.32269
350.27552,1.32701
350.03445,1.33380
349.79338,1.33525
349.55231,1.32962
349.31124,1.32276
349.07017,1.32094
348.82910,1.32448
348.58802,1.33058
348.34695,1.33849
348.10588,1.34955
347.86481,1.36306
347.62374,1.37497
347.38267,1.38218
347.14160,1.38450
346.90053,1.38124
346.65946,1.37009
346.41839,1.35399
346.17732,1.34272
345.93625,1.34066
345.69518,1.34056
345.45411,1.33604
345.21304,1.33006
344.97197,1.32559
344.73090,1.32276
344.48983,1.32629
344.24875,1.34296
344.00768,1.36870
343.76661,1.38597
343.52554,1.38284
343.28447,1.36906
343.04340,1.36019
342.80233,1.36310
342.56126,1.37704
342.32019,1.39657
342.07912,1.41652
341.83805,1.43121
341.59698,1.43240
341.35591,1.42234
341.11484,1.41511
340.87377,1.41876
340.63270,1.42919
340.39163,1.43343
340.15056,1.42265
339.90948,1.40518
339.66841,1.39514
339.42734,1.39466
339.18627,1.39586
338.94520,1.39759
338.70413,1.40643
338.46306,1.42333
338.22199,1.44153
337.98092,1.45706
337.73985,1.47106
337.49878,1.48082
337.25771,1.48029
337.01664,1.47306
336.77557,1.46881
336.53450,1.46989
336.29343,1.46950
336.05236,1.45876
335.81129,1.43760
335.57021,1.41803
335.32914,1.41094
335.08807,1.41050
334.84700,1.40435
334.60593,1.39841
334.36486,1.40988
334.12379,1.43605
333.88272,1.45142
333.64165,1.44372
333.40058,1.42639
333.15951,1.41284
332.91844,1.40415
332.67737,1.39740
332.43630,1.39397
332.19523,1.39468
331.95416,1.39615
331.71309,1.39455
331.47202,1.38428
331.23094,1.36460
330.98987,1.34411
330.74880,1.32863
330.50773,1.31757
330.26666,1.31142
330.02559,1.31646
329.78452,1.33573
329.54345,1.36187
329.30238,1.38624
329.06131,1.40387
328.82024,1.40720
328.57917,1.39158
328.33810,1.37073
328.09703,1.36053
327.85596,1.36343
327.61489,1.37222
327.37382,1.37448
327.13275,1.36184
326.89167,1.34015
326.65060,1.32282
326.40953,1.31982
326.16846,1.33301
325.92739,1.35391
325.68632,1.36578
325.44525,1.35946
325.20418,1.34545
324.96311,1.33775
324.72204,1.33629
324.48097,1.33727
324.23990,1.34559
323.99883,1.36417
323.75776,1.38411
323.51669,1.39538
323.27562,1.39670
323.03455,1.39010
322.79348,1.37765
322.55240,1.36449
322.31133,1.35859
322.07026,1.36062
321.82919,1.36524
321.58812,1.37066
321.34705,1.38134
321.10598,1.39522
320.86491,1.39966
320.62384,1.39079
320.38277,1.37849
320.14170,1.36858
319.90063,1.36299
319.65956,1.36846
319.41849,1.38436
319.17742,1.39266
318.93635,1.37936
318.69528,1.35946
318.45421,1.35283
318.21313,1.35537
317.97206,1.35528
317.73099,1.35533
317.48992,1.36355
317.24885,1.37595
317.00778,1.38071
316.76671,1.37403
316.52564,1.36120
316.28457,1.34844
316.04350,1.34391
315.80243,1.35342
315.56136,1.36793
315.32029,1.37220
315.07922,1.36610
314.83815,1.35959
314.59708,1.35913
314.35601,1.36393
314.11494,1.37283
313.87386,1.38603
313.63279,1.40208
313.39172,1.41892
313.15065,1.43336
312.90958,1.43995
312.66851,1.43453
312.42744,1.42089
312.18637,1.40818
311.94530,1.40111
311.70423,1.39660
311.46316,1.38792
311.22209,1.37425
310.98102,1.36413
310.73995,1.36795
310.49888,1.38942
310.25781,1.41720
310.01674,1.42981
309.77567,1.42254
309.53459,1.41075
309.29352,1.40592
309.05245,1.40771
308.81138,1.41256
308.57031,1.42061
308.32924,1.43113
308.08817,1.43876
307.84710,1.44079
307.60603,1.43970
307.36496,1.43658
307.12389,1.43151
306.88282,1.42461
306.64175,1.41716
306.40068,1.41354
306.15961,1.41765
305.91854,1.42515
305.67747,1.42526
305.43640,1.41479
305.19532,1.40244
304.95425,1.39789
304.71318,1.40484
304.47211,1.41588
304.23104,1.41762
303.98997,1.40683
303.74890,1.38950
303.50783,1.37690
303.26676,1.37926
303.02569,1.39318
302.78462,1.40320
302.54355,1.40059
302.30248,1.39200
302.06141,1.38606
301.82034,1.38441
301.57927,1.38606
301.33820,1.38899
301.09713,1.38589
300.85605,1.36892
300.61498,1.34314
300.37391,1.32543
300.13284,1.32608
299.89177,1.33887
299.65070,1.34759
299.40963,1.34236
299.16856,1.32986
298.92749,1.32363
298.68642,1.32867
298.44535,1.33781
298.20428,1.34238
297.96321,1.34320
297.72214,1.34694
297.48107,1.35343
297.24000,1.35321
296.99893,1.34050
296.75786,1.32296
296.51678,1.31105
296.27571,1.30479
296.03464,1.29862
295.79357,1.29360
295.55250,1.29488
295.31143,1.30085
295.07036,1.30423
294.82929,1.30128
294.58822,1.29256
294.34715,1.27949
294.10608,1.26631
293.86501,1.25879
293.62394,1.25802
293.38287,1.25923
293.14180,1.25759
292.90073,1.25222
292.65966,1.24525
292.41859,1.24114
292.17751,1.24522
291.93644,1.25694
291.69537,1.26476
291.45430,1.25671
291.21323,1.23832
290.97216,1.22721
290.73109,1.23266
290.49002,1.24807
290.24895,1.26059
290.00788,1.26516
289.76681,1.26407
289.52574,1.25869
289.28467,1.24847
289.04360,1.23549
288.80253,1.22545
288.56146,1.22163
288.32039,1.22088
288.07932,1.21936
287.83824,1.21835
287.59717,1.21860
287.35610,1.21679
287.11503,1.21147
286.87396,1.20614
286.63289,1.20540
286.39182,1.21041
286.15075,1.21752
285.90968,1.22112
285.66861,1.21964
285.42754,1.21667
285.18647,1.21522
284.94540,1.21422
284.70433,1.21178
284.46326,1.20871
284.22219,1.20606
283.98112,1.20192
283.74005,1.19471
283.49897,1.18703
283.25790,1.18364
283.01683,1.18710
282.77576,1.19640
282.53469,1.20722
282.29362,1.21227
282.05255,1.20650
281.81148,1.19491
281.57041,1.18826
281.32934,1.19128
281.08827,1.19991
280.84720,1.20727
280.60613,1.21028
280.36506,1.21126
280.12399,1.21326
279.88292,1.21371
279.64185,1.20651
279.40078,1.19243
279.15970,1.18016
278.91863,1.17722
278.67756,1.18377
278.43649,1.19444
278.19542,1.20369
277.95435,1.20809
277.71328,1.20609
277.47221,1.19991
277.23114,1.19469
276.99007,1.19250
276.74900,1.19154
276.50793,1.19154
276.26686,1.19444
276.02579,1.19988
275.78472,1.20534
275.54365,1.20873
275.30258,1.20751
275.06151,1.20062
274.82043,1.19286
274.57936,1.19037
274.33829,1.19277
274.09722,1.19505
273.85615,1.19469
273.61508,1.19326
273.37401,1.19381
273.13294,1.19904
272.89187,1.20789
272.65080,1.21411
272.40973,1.21318
272.16866,1.20839
271.92759,1.20646
271.68652,1.20902
271.44545,1.21267
271.20438,1.21615
270.96331,1.22064
270.72224,1.22466
270.48116,1.22439
270.24009,1.21928
269.99902,1.21353
269.75795,1.21185
269.51688,1.21598
269.27581,1.22431
269.03474,1.23334
268.79367,1.24025
268.55260,1.24505
268.31153,1.24972
268.07046,1.25542
267.82939,1.26168
267.58832,1.26837
267.34725,1.27622
267.10618,1.28392
266.86511,1.28752
266.62404,1.28540
266.38297,1.28203
266.14189,1.28357
265.90082,1.29094
265.65975,1.29985
265.41868,1.30746
265.17761,1.31544
264.93654,1.32423
264.69547,1.33021
264.45440,1.33195
264.21333,1.33404
263.97226,1.34252
263.73119,1.35966
263.49012,1.38198
263.24905,1.40381
263.00798,1.42323
262.76691,1.43978
262.52584,1.45217
262.28477,1.46333
262.04370,1.47986
261.80262,1.50300
261.56155,1.52529
261.32048,1.53979
261.07941,1.54779
260.83834,1.55630
260.59727,1.57194
260.35620,1.59657
260.11513,1.62381
259.87406,1.64181
259.63299,1.64706
259.39192,1.65016
259.15085,1.66436
258.90978,1.69655
258.66871,1.74576
258.42764,1.80418
258.18657,1.85805
257.94550,1.89048
257.70443,1.89292
257.46335,1.88404
257.22228,1.89419
256.98121,1.92519
256.74014,1.94908
256.49907,1.94341
256.25800,1.92061
256.01693,1.89787
255.77586,1.88168
255.53479,1.86155
255.29372,1.82706
255.05265,1.79145
254.81158,1.76417
254.57051,1.73749
254.32944,1.71208
254.08837,1.69937
253.84730,1.70358
253.60623,1.71092
253.36516,1.70139
253.12408,1.67356
252.88301,1.64299
252.64194,1.61718
252.40087,1.59570
252.15980,1.58135
251.91873,1.57993
251.67766,1.59565
251.43659,1.62165
251.19552,1.64187
250.95445,1.64965
250.71338,1.65253
250.47231,1.65567
250.23124,1.65498
249.99017,1.64589
249.74910,1.62929
249.50803,1.60996
249.26696,1.59427
249.02589,1.58785
248.78481,1.59060
248.54374,1.59401
248.30267,1.59014
248.06160,1.58338
247.82053,1.58353
247.57946,1.58950
247.33839,1.59299
247.09732,1.59246
246.85625,1.59216
246.61518,1.59595
246.37411,1.61044
246.13304,1.64157
245.89197,1.67691
245.65090,1.69126
245.40983,1.68077
245.16876,1.66898
244.92769,1.67357
244.68661,1.68932
244.44554,1.70831
244.20447,1.73556
243.96340,1.77528
243.72233,1.81778
243.48126,1.85467
243.24019,1.89688
242.99912,1.95537
242.75805,2.01964
242.51698,2.05569
242.27591,1.98541
242.03484,1.85873
241.79377,1.74833
241.55270,1.66438
241.31163,1.59147
241.07056,1.51644
240.82949,1.45138
240.58842,1.41383
240.34734,1.39822
240.10627,1.37947
239.86520,1.34256
239.62413,1.29861
239.38306,1.26443
239.14199,1.24263
238.90092,1.22399
238.65985,1.20129
238.41878,1.17740
238.17771,1.15854
237.93664,1.14560
237.69557,1.13425
237.45450,1.12044
237.21343,1.10416
236.97236,1.08805
236.73129,1.07326
236.49022,1.05811
236.24915,1.04175
236.00807,1.02670
235.76700,1.01604
235.52593,1.00968
235.28486,1.00533
235.04379,1.00044
234.80272,0.99236
234.56165,0.98150
234.32058,0.97208
234.07951,0.96687
233.83844,0.96360
233.59737,0.95832
233.35630,0.95129
233.11523,0.94638
232.87416,0.94481
232.63309,0.94386
232.39202,0.94230
232.15095,0.94286
231.90988,0.94607
231.66880,0.94671
231.42773,0.94127
231.18666,0.93321
230.94559,0.92661
230.70452,0.92166
230.46345,0.91818
230.22238,0.91682
229.98131,0.91529
229.74024,0.90999
229.49917,0.90228
229.25810,0.89673
229.01703,0.89383
228.77596,0.89089
228.53489,0.88849
228.29382,0.88910
228.05275,0.89035
227.81168,0.88768
227.57061,0.88239
227.32953,0.87934
227.08846,0.87936
226.84739,0.87990
226.60632,0.87924
226.36525,0.87665
226.12418,0.87186
225.88311,0.86633
225.64204,0.86210
225.40097,0.85964
225.15990,0.85869
224.91883,0.86030
224.67776,0.86520
224.43669,0.87057
224.19562,0.87210
223.95455,0.86919
223.71348,0.86499
223.47241,0.86279
223.23134,0.86490
222.99026,0.87216
222.74919,0.88278
222.50812,0.89379
222.26705,0.90320
222.02598,0.90883
221.78491,0.90843
221.54384,0.90349
221.30277,0.89907
221.06170,0.89896
220.82063,0.90389
220.57956,0.91291
220.33849,0.92456
220.09742,0.93775
219.85635,0.95141
219.61528,0.96311
219.37421,0.97080
219.13314,0.97514
218.89207,0.97732
218.65099,0.97786
218.40992,0.97960
218.16885,0.98716
217.92778,1.00237
217.68671,1.02302
217.44564,1.04456
217.20457,1.06168
216.96350,1.07186
216.72243,1.07904
216.48136,1.08925
216.24029,1.10324
215.99922,1.11689
215.75815,1.12757
215.51708,1.13665
215.27601,1.14675
215.03494,1.15973
214.79387,1.17516
214.55280,1.18959
214.31172,1.20054
214.07065,1.20905
213.82958,1.21632
213.58851,1.22160
213.34744,1.22448
213.10637,1.22737
212.86530,1.23335
212.62423,1.24323
212.38316,1.25654
212.14209,1.27268
211.90102,1.29011
211.65995,1.30521
211.41888,1.31168
211.17781,1.30400
210.93674,1.28476
210.69567,1.26649
210.45460,1.26165
210.21353,1.27086
209.97245,1.28160
209.73138,1.27987
209.49031,1.26531
209.24924,1.24931
209.00817,1.23960
208.76710,1.23523
208.52603,1.23489
208.28496,1.24046
208.04389,1.24937
207.80282,1.25226
207.56175,1.24417
207.32068,1.23111
207.07961,1.22110
206.83854,1.21494
206.59747,1.20809
206.35640,1.19767
206.11533,1.18501
205.87426,1.17172
205.63318,1.15677
205.39211,1.13927
205.15104,1.12062
204.90997,1.10415
204.66890,1.09407
204.42783,1.09240
204.18676,1.09417
203.94569,1.08800
203.70462,1.06681
203.46355,1.03845
203.22248,1.01915
202.98141,1.01685
202.74034,1.02333
202.49927,1.02075
202.25820,1.00013
202.01713,0.97039
201.77606,0.94457
201.53499,0.92914
201.29391,0.92392
201.05284,0.92274
200.81177,0.91671
200.57070,0.90216
200.32963,0.88381
200.08856,0.86873
199.84749,0.85956
199.60642,0.85264
199.36535,0.84236
199.12428,0.82773
198.88321,0.81343
198.64214,0.80442
198.40107,0.80045
198.16000,0.79641
197.91893,0.78782
197.67786,0.77584
197.43679,0.76529
197.19572,0.75855
196.95464,0.75363
196.71357,0.74733
196.47250,0.73868
196.23143,0.72909
195.99036,0.71997
195.74929,0.71114
195.50822,0.70227
195.26715,0.69443
195.02608,0.68874
194.78501,0.68435
194.54394,0.67974
194.30287,0.67530
194.06180,0.67250
193.82073,0.67088
193.57966,0.66797
193.33859,0.66262
193.09752,0.65681
192.85645,0.65301
192.61537,0.65050
192.37430,0.64592
192.13323,0.63843
191.89216,0.63208
191.65109,0.63067
191.41002,0.63197
191.16895,0.62967
190.92788,0.62161
190.68681,0.61292
190.44574,0.60858
190.20467,0.60730
189.96360,0.60513
189.72253,0.60179
189.48146,0.59989
189.24039,0.60017
188.99932,0.60069
188.75825,0.59939
188.51718,0.59639
188.27610,0.59374
188.03503,0.59304
187.79396,0.59345
187.55289,0.59295
187.31182,0.59057
187.07075,0.58692
186.82968,0.58390
186.58861,0.58319
186.34754,0.58338
186.10647,0.58059
185.86540,0.57429
185.62433,0.56947
185.38326,0.57032
185.14219,0.57486
184.90112,0.57837
184.66005,0.58021
184.41898,0.58293
184.17791,0.58652
183.93683,0.58848
183.69576,0.58830
183.45469,0.58772
183.21362,0.58777
182.97255,0.58904
182.73148,0.59196
182.49041,0.59503
182.24934,0.59633
182.00827,0.59706
181.76720,0.59934
181.52613,0.60175
181.28506,0.60143
181.04399,0.59919
180.80292,0.59801
180.56185,0.59841
180.32078,0.59919
180.07971,0.60075
179.83864,0.60460
179.59756,0.61074
179.35649,0.61774
179.11542,0.62418
178.87435,0.62921
178.63328,0.63346
178.39221,0.63911
178.15114,0.64731
177.91007,0.65684
177.66900,0.66667
177.42793,0.67752
177.18686,0.69017
176.94579,0.70447
176.70472,0.71944
176.46365,0.73353
176.22258,0.74662
175.98151,0.76117
175.74044,0.77835
175.49937,0.79605
175.25829,0.81296
175.01722,0.82976
174.77615,0.84571
174.53508,0.85899
174.29401,0.86988
174.05294,0.87978
173.81187,0.88954
173.57080,0.89989
173.32973,0.91133
173.08866,0.92433
172.84759,0.94038
172.60652,0.95960
172.36545,0.97784
172.12438,0.98978
171.88331,0.99403
171.64224,0.99285
171.40117,0.98873
171.16010,0.98268
170.91902,0.97428
170.67795,0.96406
170.43688,0.95526
170.19581,0.95034
169.95474,0.94737
169.71367,0.94318
169.47260,0.93816
169.23153,0.93432
168.99046,0.93151
168.74939,0.92894
168.50832,0.92797
168.26725,0.92917
168.02618,0.92873
167.78511,0.92173
167.54404,0.90897
167.30297,0.89713
167.06190,0.89238
166.82083,0.89589
166.57975,0.90503
166.33868,0.91671
166.09761,0.92903
165.85654,0.93977
165.61547,0.94557
165.37440,0.94390
165.13333,0.93583
164.89226,0.92688
164.65119,0.92439
164.41012,0.93236
164.16905,0.94896
163.92798,0.96949
163.68691,0.98979
163.44584,1.00504
163.20477,1.00956
162.96370,1.00385
162.72263,0.99747
162.48156,0.99892
162.24048,1.00772
161.99941,1.01838
161.75834,1.02853
161.51727,1.03906
161.27620,1.04804
161.03513,1.05062
160.79406,1.04514
160.55299,1.03492
160.31192,1.02457
160.07085,1.01730
159.82978,1.01447
159.58871,1.01518
159.34764,1.01582
159.10657,1.01210
158.86550,1.00340
158.62443,0.99377
158.38336,0.98808
158.14229,0.98773
157.90121,0.98960
157.66014,0.98870
157.41907,0.98206
157.17800,0.97036
156.93693,0.95693
156.69586,0.94589
156.45479,0.93985
156.21372,0.93791
155.97265,0.93669
155.73158,0.93336
155.49051,0.92612
155.24944,0.91306
155.00837,0.89538
154.76730,0.87924
154.52623,0.86972
154.28516,0.86529
154.04409,0.86059
153.80302,0.85157
153.56194,0.83697
153.32087,0.81869
153.07980,0.80143
152.83873,0.78941
152.59766,0.78233
152.35659,0.77548
152.11552,0.76392
151.87445,0.74641
151.63338,0.72636
151.39231,0.70919
151.15124,0.69763
150.91017,0.68900
150.66910,0.67795
150.42803,0.66232
150.18696,0.64502
149.94589,0.62996
149.70482,0.61834
149.46375,0.60930
149.22267,0.60142
148.98160,0.59346
148.74053,0.58540
148.49946,0.57844
148.25839,0.57351
148.01732,0.57029
147.77625,0.56780
147.53518,0.56514
147.29411,0.56189
147.05304,0.55843
146.81197,0.55600
146.57090,0.55556
146.32983,0.55667
146.08876,0.55828
145.84769,0.56063
145.60662,0.56525
145.36555,0.57263
145.12448,0.58071
144.88340,0.58654
144.64233,0.58975
144.40126,0.59288
144.16019,0.59748
143.91912,0.60165
143.67805,0.60248
143.43698,0.60013
143.19591,0.59726
142.95484,0.59446
142.71377,0.58900
142.47270,0.57879
142.23163,0.56572
141.99056,0.55362
141.74949,0.54428
141.50842,0.53698
141.26735,0.53064
141.02628,0.52516
140.78521,0.52089
140.54413,0.51796
140.30306,0.51640
140.06199,0.51636
139.82092,0.51774
139.57985,0.51999
139.33878,0.52279
139.09771,0.52595
138.85664,0.52867
138.61557,0.53045
138.37450,0.53290
138.13343,0.53834
137.89236,0.54674
137.65129,0.55595
137.41022,0.56497
137.16915,0.57493
136.92808,0.58736
136.68701,0.60296
136.44594,0.62169
136.20486,0.64250
135.96379,0.66409
135.72272,0.68648
135.48165,0.71062
135.24058,0.73687
134.99951,0.76561
134.75844,0.79832
134.51737,0.83523
134.27630,0.87285
134.03523,0.90651
133.79416,0.93413
133.55309,0.95687
133.31202,0.97892
133.07095,1.00615
132.82988,1.04102
132.58881,1.07948
132.34774,1.11492
132.10667,1.14173
131.86559,1.15501
131.62452,1.15433
131.38345,1.14748
131.14238,1.14282
130.90131,1.14059
130.66024,1.13548
130.41917,1.12276
130.17810,1.10200
129.93703,1.07642
129.69596,1.04704
129.45489,1.01131
129.21382,0.96975
128.97275,0.92798
128.73168,0.89084
128.49061,0.85939
128.24954,0.83185
128.00847,0.80503
127.76740,0.77710
127.52632,0.74919
127.28525,0.72318
127.04418,0.69942
126.80311,0.67745
126.56204,0.65662
126.32097,0.63605
126.07990,0.61593
125.83883,0.59779
125.59776,0.58258
125.35669,0.56976
125.11562,0.55828
124.87455,0.54708
124.63348,0.53512
124.39241,0.52233
124.15134,0.50980
123.91027,0.49820
123.66920,0.48716
123.42812,0.47636
123.18705,0.46670
122.94598,0.45964
122.70491,0.45575
122.46384,0.45442
122.22277,0.45477
121.98170,0.45606
121.74063,0.45731
121.49956,0.45796
121.25849,0.45865
121.01742,0.46066
120.77635,0.46496
120.53528,0.47220
120.29421,0.48213
120.05314,0.49319
119.81207,0.50440
119.57100,0.51724
119.32993,0.53378
119.08885,0.55401
118.84778,0.57702
118.60671,0.60329
118.36564,0.63356
118.12457,0.66615
117.88350,0.69812
117.64243,0.72909
117.40136,0.75975
117.16029,0.78640
116.91922,0.80212
116.67815,0.80464
116.43708,0.79743
116.19601,0.78408
115.95494,0.76728
115.71387,0.75089
115.47280,0.73772
115.23173,0.72642
114.99066,0.71442
114.74958,0.70308
114.50851,0.69645
114.26744,0.69564
114.02637,0.69768
113.78530,0.69961
113.54423,0.70119
113.30316,0.70245
113.06209,0.70085
112.82102,0.69366
112.57995,0.68208
112.33888,0.67064
112.09781,0.66359
111.85674,0.66343
111.61567,0.67193
111.37460,0.68965
111.13353,0.71291
110.89246,0.73246
110.65139,0.73861
110.41031,0.72956
110.16924,0.71137
109.92817,0.69008
109.68710,0.66859
109.44603,0.64981
109.20496,0.63762
108.96389,0.63357
108.72282,0.63410
108.48175,0.63144
108.24068,0.61793
107.99961,0.59200
107.75854,0.55986
107.51747,0.52995
107.27640,0.50797
107.03533,0.49553
106.79426,0.48923
106.55319,0.48282
106.31212,0.47237
106.07104,0.45893
105.82997,0.44544
105.58890,0.43327
105.34783,0.42263
105.10676,0.41396
104.86569,0.40687
104.62462,0.39913
104.38355,0.38898
104.14248,0.37730
103.90141,0.36630
103.66034,0.35744
103.41927,0.35127
103.17820,0.34742
102.93713,0.34384
102.69606,0.33738
102.45499,0.32681
102.21392,0.31486
101.97285,0.30593
101.73177,0.30227
101.49070,0.30265
101.24963,0.30306
101.00856,0.29913
100.76749,0.29019
100.52642,0.28050
100.28535,0.27530
100.04428,0.27707
99.80321,0.28383
99.56214,0.28968
99.32107,0.28935
99.08000,0.28269
98.83893,0.27352
98.59786,0.26630
98.35679,0.26426
98.11572,0.26708
97.87465,0.26975
97.63358,0.26784
97.39250,0.26360
97.15143,0.26271
96.91036,0.26646
96.66929,0.27015
96.42822,0.27046
96.18715,0.27209
95.94608,0.28136
95.70501,0.29587
95.46394,0.30536
95.22287,0.30489
94.98180,0.30251
94.74073,0.30747
94.49966,0.31784
94.25859,0.32389
94.01752,0.32368
93.77645,0.32497
93.53538,0.32968
93.29431,0.33079
93.05323,0.32593
92.81216,0.32194
92.57109,0.32240
92.33002,0.32344
92.08895,0.32375
91.84788,0.32686
91.60681,0.33231
91.36574,0.33591
91.12467,0.34007
90.88360,0.35221
90.64253,0.37287
90.40146,0.39605
90.16039,0.42132
89.91932,0.45339
89.67825,0.49211
89.43718,0.53434
89.19611,0.57946
88.95504,0.62392
88.71396,0.66167
88.47289,0.69215
88.23182,0.71133
87.99075,0.70778
87.74968,0.68231
87.50861,0.64908
87.26754,0.61576
87.02647,0.58258
86.78540,0.54976
86.54433,0.51694
86.30326,0.48372
86.06219,0.45230
85.82112,0.42444
85.58005,0.39931
85.33898,0.37633
85.09791,0.35564
84.85684,0.33638
84.61577,0.31811
84.37469,0.30171
84.13362,0.28768
83.89255,0.27585
83.65148,0.26589
83.41041,0.25629
83.16934,0.24554
82.92827,0.23510
82.68720,0.22769
82.44613,0.22280
82.20506,0.21751
81.96399,0.21106
81.72292,0.20577
81.48185,0.20369
81.24078,0.20421
80.99971,0.20458
80.75864,0.20285
80.51757,0.19992
80.27650,0.19782
80.03542,0.19657
79.79435,0.19464
79.55328,0.19183
79.31221,0.18940
79.07114,0.18762
78.83007,0.18549
78.58900,0.18275
78.34793,0.18035
78.10686,0.17877
77.86579,0.17706
77.62472,0.17405
77.38365,0.16993
77.14258,0.16593
76.90151,0.16257
76.66044,0.15951
76.41937,0.15706
76.17830,0.15705
75.93723,0.16070
75.69615,0.16569
75.45508,0.16745
75.21401,0.16429
74.97294,0.15981
74.73187,0.15907
74.49080,0.16325
74.24973,0.16877
74.00866,0.17126
73.76759,0.17009
73.52652,0.16809
73.28545,0.16732
73.04438,0.16737
72.80331,0.16746
72.56224,0.16739
72.32117,0.16680
72.08010,0.16585
71.83903,0.16536
71.59796,0.16462
71.35688,0.16139
71.11581,0.15547
70.87474,0.15001
70.63367,0.14887
70.39260,0.15455
70.15153,0.16796
69.91046,0.18798
69.66939,0.21114
69.42832,0.23229
69.18725,0.24578
68.94618,0.24776
68.70511,0.23840
68.46404,0.22150
68.22297,0.20198
67.98190,0.18384
67.74083,0.16899
67.49976,0.15754
67.25869,0.14949
67.01761,0.14528
66.77654,0.14456
66.53547,0.14540
66.29440,0.14564
66.05333,0.14482
65.81226,0.14457
65.57119,0.14711
65.33012,0.15356
65.08905,0.16320
64.84798,0.17392
64.60691,0.18351
64.36584,0.19106
64.12477,0.19678
63.88370,0.20025
63.64263,0.20031
63.40156,0.19696
63.16049,0.19207
62.91942,0.18736
62.67834,0.18298
62.43727,0.17862
62.19620,0.17433
61.95513,0.16978
61.71406,0.16410
61.47299,0.15704
61.23192,0.14917
60.99085,0.14075
60.74978,0.13200
60.50871,0.12410
60.26764,0.11877
60.02657,0.11686
59.78550,0.11754
59.54443,0.11881
59.30336,0.11923
59.06229,0.11910
58.82122,0.11980
58.58015,0.12302
58.33907,0.13058
58.09800,0.14316
57.85693,0.15984
57.61586,0.17868
57.37479,0.19465
57.13372,0.19753
56.89265,0.18025
56.65158,0.14887
56.41051,0.11558
56.16944,0.08952
55.92837,0.07572
55.68730,0.07627
55.44623,0.09138
55.20516,0.11975
54.96409,0.15600
54.72302,0.18603
54.48195,0.19261
54.24088,0.17469
53.99980,0.14655
53.75873,0.12145
53.51766,0.10783
53.27659,0.11169
53.03552,0.13784
52.79445,0.18480
52.55338,0.22795
52.31231,0.22330
52.07124,0.17848
51.83017,0.13811
51.58910,0.12264
51.34803,0.13416
51.10696,0.16299
50.86589,0.18238
50.62482,0.16731
50.38375,0.13149
50.14268,0.10448
49.90161,0.10470
49.66053,0.13968
49.41946,0.19318
49.17839,0.19952
48.93732,0.14027
48.69625,0.09366
48.45518,0.09756
48.21411,0.14757
47.97304,0.19247
47.73197,0.16332
47.49090,0.11602
47.24983,0.11484
47.00876,0.14663
46.76769,0.14671
46.52662,0.10793
46.28555,0.08826
46.04448,0.10261
45.80341,0.11680
45.56234,0.11034
45.32126,0.10502
45.08019,0.10849
44.83912,0.11133
44.59805,0.11986
44.35698,0.13821
44.11591,0.14602
43.87484,0.13759
43.63377,0.13591
43.39270,0.14663
43.15163,0.15719
42.91056,0.16277
42.66949,0.16456
42.42842,0.16133
42.18735,0.15835
41.94628,0.15855
41.70521,0.15305
41.46414,0.13935
41.22307,0.12768
40.98199,0.12657
40.74092,0.13670
40.49985,0.14964
40.25878,0.15413
40.01771,0.15170
39.77664,0.15509
39.53557,0.16847
39.29450,0.18532
39.05343,0.20164
38.81236,0.21544
38.57129,0.22251
38.33022,0.22263
38.08915,0.22297
37.84808,0.22976
37.60701,0.24111
37.36594,0.24998
37.12487,0.25185
36.88380,0.24660
36.64272,0.23661
36.40165,0.22547
36.16058,0.21520
35.91951,0.20504
35.67844,0.19533
35.43737,0.18972
35.19630,0.19167
34.95523,0.20144
34.71416,0.21542
34.47309,0.22696
34.23202,0.22866
33.99095,0.21952
33.74988,0.20955
33.50881,0.21220
33.26774,0.23054
33.02667,0.25311
32.78560,0.26581
32.54453,0.26283
32.30345,0.24942
32.06238,0.23403
31.82131,0.21391
31.58024,0.18124
31.33917,0.14552
31.09810,0.12821
30.85703,0.13257
30.61596,0.13833
30.37489,0.13273
30.13382,0.12586
29.89275,0.12733
29.65168,0.13308
29.41061,0.13323
29.16954,0.12066
28.92847,0.10103
28.68740,0.09152
28.44633,0.09929
28.20526,0.11057
27.96418,0.10772
27.72311,0.09130
27.48204,0.07243
27.24097,0.05618
26.99990,0.04351
26.75883,0.03654
26.51776,0.02982
26.27669,0.01256
26.03562,-0.00780
25.79455,-0.00980
25.55348,0.00076
25.31241,0.00049
25.07134,-0.01312
24.83027,-0.02527
24.58920,-0.02991
24.34813,-0.03452
24.10706,-0.04535
23.86599,-0.06143
23.62491,-0.07865
23.38384,-0.09197
23.14277,-0.09570
22.90170,-0.09130
22.66063,-0.09151
22.41956,-0.10394
22.17849,-0.11997
21.93742,-0.13528
21.69635,-0.16049
21.45528,-0.18857
21.21421,-0.18609
20.97314,-0.14624
20.73207,-0.10392
20.49100,-0.09372
20.24993,-0.11868
20.00886,-0.15284
19.76779,-0.16894
19.52672,-0.16281
19.28564,-0.14684
19.04457,-0.13055
18.80350,-0.12576
18.56243,-0.14277
18.32136,-0.17398
18.08029,-0.19909
17.83922,-0.21462
17.59815,-0.23469
17.35708,-0.25403
17.11601,-0.24848
16.87494,-0.22794
16.63387,-0.21740
16.39280,-0.21845
16.15173,-0.21790
15.91066,-0.21431
15.66959,-0.21253
15.42852,-0.20376
15.18745,-0.18784
14.94637,-0.18808
14.70530,-0.21590
14.46423,-0.24493
14.22316,-0.25551
13.98209,-0.24185
13.74102,-0.21881
13.49995,-0.21027
13.25888,-0.20411
13.01781,-0.19309
12.77674,-0.19628
12.53567,-0.22306
12.29460,-0.25253
12.05353,-0.26366
11.81246,-0.25661
11.57139,-0.23243
11.33032,-0.21270
11.08925,-0.21561
10.84818,-0.23207
10.60710,-0.22965
10.36603,-0.21049
10.12496,-0.18913
9.88389,-0.18420
9.64282,-0.19901
9.40175,-0.21972
9.16068,-0.23599
8.91961,-0.24215
8.67854,-0.22685
8.43747,-0.20703
8.19640,-0.19215
7.95533,-0.16697
7.71426,-0.14448
7.47319,-0.15140
7.23212,-0.18818
6.99105,-0.22001
6.74998,-0.22695
6.50891,-0.22591
6.26783,-0.22064
6.02676,-0.21815
5.78569,-0.21863
5.54462,-0.21589
5.30355,-0.21323
5.06248,-0.21150
4.82141,-0.20760
4.58034,-0.20808
4.33927,-0.21746
4.09820,-0.22879
3.85713,-0.23688
3.61606,-0.23802
3.37499,-0.23641
3.13392,-0.23962
2.89285,-0.24634
2.65178,-0.24201
2.41071,-0.22685
2.16964,-0.22202
1.92856,-0.22402
1.68749,-0.21088
1.44642,-0.18975
1.20535,-0.18059
0.96428,-0.18942
0.72321,-0.22777
0.48214,-0.29000
0.24107,-0.29411
-0.00000,-0.18549
