399.69498,1.67005
399.45391,1.65103
399.21284,1.62654
398.97177,1.60551
398.73070,1.60057
398.48963,1.60811
398.24856,1.61865
398.00749,1.63971
397.76642,1.68084
397.52535,1.72229
397.28428,1.73144
397.04321,1.71605
396.80214,1.70169
396.56107,1.68252
396.32000,1.65138
396.07892,1.62370
395.83785,1.60867
395.59678,1.60094
395.35571,1.59157
395.11464,1.57778
394.87357,1.56690
394.63250,1.57139
394.39143,1.59563
394.15036,1.62685
393.90929,1.64436
393.66822,1.63732
393.42715,1.61384
393.18608,1.58946
392.94501,1.57065
392.70394,1.55811
392.46287,1.55573
392.22180,1.56885
391.98073,1.59486
391.73965,1.61860
391.49858,1.62205
391.25751,1.60664
391.01644,1.59785
390.77537,1.61478
390.53430,1.64834
390.29323,1.67166
390.05216,1.66856
389.81109,1.64915
389.57002,1.63314
389.32895,1.63441
389.08788,1.65570
388.84681,1.66929
388.60574,1.63938
388.36467,1.57694
388.12360,1.52451
387.88253,1.50363
387.64146,1.50383
387.40038,1.50920
387.15931,1.51751
386.91824,1.52416
386.67717,1.51852
386.43610,1.50801
386.19503,1.50523
385.95396,1.51050
385.71289,1.51600
385.47182,1.51483
385.23075,1.50447
384.98968,1.48046
384.74861,1.45725
384.50754,1.45387
384.26647,1.45710
384.02540,1.43665
383.78433,1.39489
383.54326,1.36576
383.30219,1.36717
383.06111,1.38637
382.82004,1.39532
382.57897,1.37714
382.33790,1.35189
382.09683,1.34707
381.85576,1.36704
381.61469,1.39800
381.37362,1.41841
381.13255,1.41474
380.89148,1.39663
380.65041,1.38407
380.40934,1.37876
380.16827,1.37562
379.92720,1.38016
379.68613,1.39239
379.44506,1.40112
379.20399,1.40090
378.96292,1.39890
378.72184,1.39994
378.48077,1.39851
378.23970,1.39348
377.99863,1.39731
377.75756,1.41733
377.51649,1.44124
377.27542,1.45251
377.03435,1.45608
376.79328,1.46429
376.55221,1.46987
376.31114,1.45987
376.07007,1.43023
375.82900,1.39140
375.58793,1.36541
375.34686,1.36858
375.10579,1.39963
374.86472,1.43537
374.62365,1.44801
374.38257,1.43832
374.14150,1.43237
373.90043,1.44971
373.65936,1.48126
373.41829,1.50330
373.17722,1.51020
372.93615,1.50753
372.69508,1.49693
372.45401,1.48834
372.21294,1.49204
371.97187,1.50129
371.73080,1.50257
371.48973,1.49263
371.24866,1.47806
371.00759,1.47159
370.76652,1.47526
370.52545,1.47486
370.28437,1.46397
370.04330,1.45361
369.80223,1.45687
369.56116,1.47155
369.32009,1.48067
369.07902,1.47598
368.83795,1.46971
368.59688,1.47730
368.35581,1.49620
368.11474,1.50698
367.87367,1.50137
367.63260,1.48921
367.39153,1.48107
367.15046,1.48357
366.90939,1.49099
366.66832,1.48799
366.42725,1.47026
366.18618,1.44525
365.94510,1.42097
365.70403,1.40244
365.46296,1.39117
365.22189,1.38788
364.98082,1.39368
364.73975,1.40845
364.49868,1.42710
364.25761,1.43937
364.01654,1.43908
363.77547,1.43146
363.53440,1.42436
363.29333,1.41768
363.05226,1.41010
362.81119,1.40594
362.57012,1.40702
362.32905,1.40339
362.08798,1.38533
361.84691,1.36136
361.60583,1.34613
361.36476,1.34539
361.12369,1.35817
360.88262,1.37977
360.64155,1.40158
360.40048,1.41443
360.15941,1.41193
359.91834,1.39237
359.67727,1.36887
359.43620,1.35989
359.19513,1.36877
358.95406,1.38176
358.71299,1.38427
358.47192,1.37515
358.23085,1.36225
357.98978,1.35233
357.74871,1.34674
357.50764,1.34197
357.26656,1.33695
357.02549,1.33916
356.78442,1.35397
356.54335,1.37007
356.30228,1.37237
356.06121,1.36711
355.82014,1.36917
355.57907,1.37670
355.33800,1.37747
355.09693,1.37101
354.85586,1.36705
354.61479,1.36904
354.37372,1.37318
354.13265,1.37704
353.89158,1.38136
353.65051,1.38651
353.40944,1.38875
353.16837,1.38193
352.92729,1.36945
352.68622,1.36419
352.44515,1.36808
352.20408,1.36658
351.96301,1.35033
351.72194,1.32765
351.48087,1.31404
351.23980,1.31706
350.99873,1.33232
350.75766,1.34890
350.51659,1.36024
350.27552,1.37237
350.03445,1.39412
349.79338,1.41884
349.55231,1.42616
349.31124,1.40868
349.07017,1.38502
348.82910,1.38016
348.58802,1.40045
348.34695,1.42907
348.10588,1.44649
347.86481,1.45025
347.62374,1.44768
347.38267,1.44001
347.14160,1.41956
346.90053,1.38658
346.65946,1.35631
346.41839,1.34243
346.17732,1.34189
345.93625,1.34255
345.69518,1.34420
345.45411,1.35881
345.21304,1.38843
344.97197,1.41583
344.73090,1.42546
344.48983,1.42423
344.24875,1.42877
344.00768,1.44160
343.76661,1.45021
343.52554,1.44984
343.28447,1.45041
343.04340,1.45625
342.80233,1.46068
342.56126,1.46238
342.32019,1.46681
342.07912,1.46673
341.83805,1.45006
341.59698,1.42527
341.35591,1.40818
341.11484,1.40342
340.87377,1.40654
340.63270,1.41174
340.39163,1.41931
340.15056,1.43533
339.90948,1.46408
339.66841,1.49841
339.42734,1.51419
339.18627,1.49807
338.94520,1.47411
338.70413,1.45739
338.46306,1.43874
338.22199,1.41711
337.98092,1.40551
337.73985,1.40710
337.49878,1.41639
337.25771,1.43566
337.01664,1.46825
336.77557,1.50409
336.53450,1.52504
336.29343,1.52464
336.05236,1.51437
335.81129,1.50885
335.57021,1.51382
335.32914,1.52724
335.08807,1.53646
334.84700,1.53067
334.60593,1.50741
334.36486,1.46634
334.12379,1.41960
333.88272,1.38656
333.64165,1.38231
333.40058,1.40797
333.15951,1.44747
332.91844,1.47754
332.67737,1.48535
332.43630,1.47524
332.19523,1.45109
331.95416,1.41177
331.71309,1.37079
331.47202,1.35006
331.23094,1.35473
330.98987,1.36945
330.74880,1.37806
330.50773,1.38228
330.26666,1.39241
330.02559,1.40808
329.78452,1.41655
329.54345,1.41041
329.30238,1.40060
329.06131,1.40156
328.82024,1.41005
328.57917,1.41168
328.33810,1.40761
328.09703,1.40863
327.85596,1.40967
327.61489,1.39631
327.37382,1.37218
327.13275,1.36461
326.89167,1.38902
326.65060,1.42330
326.40953,1.43220
326.16846,1.41279
325.92739,1.38775
325.68632,1.37041
325.44525,1.35791
325.20418,1.34834
324.96311,1.35135
324.72204,1.36907
324.48097,1.38234
324.23990,1.37428
323.99883,1.36172
323.75776,1.36807
323.51669,1.39322
323.27562,1.41830
323.03455,1.43223
322.79348,1.44067
322.55240,1.44164
322.31133,1.43109
322.07026,1.42369
321.82919,1.41761
321.58812,1.40096
321.34705,1.37820
321.10598,1.37131
320.86491,1.38992
320.62384,1.41511
320.38277,1.42715
320.14170,1.42446
319.90063,1.42110
319.65956,1.42021
319.41849,1.41349
319.17742,1.40336
318.93635,1.39896
318.69528,1.39690
318.45421,1.38757
318.21313,1.37658
317.97206,1.37828
317.73099,1.38817
317.48992,1.38285
317.24885,1.36298
317.00778,1.34942
316.76671,1.35056
316.52564,1.36011
316.28457,1.37138
316.04350,1.38737
315.80243,1.41583
315.56136,1.45254
315.32029,1.46665
315.07922,1.45133
314.83815,1.43766
314.59708,1.43298
314.35601,1.42464
314.11494,1.41854
313.87386,1.43482
313.63279,1.47244
313.39172,1.49767
313.15065,1.48382
312.90958,1.45206
312.66851,1.43023
312.42744,1.41896
312.18637,1.41212
311.94530,1.41562
311.70423,1.43619
311.46316,1.46528
311.22209,1.48593
310.98102,1.49024
310.73995,1.48426
310.49888,1.47762
310.25781,1.47675
310.01674,1.48364
309.77567,1.48888
309.53459,1.48320
309.29352,1.47724
309.05245,1.47406
308.81138,1.46131
308.57031,1.44302
308.32924,1.44180
308.08817,1.46522
307.84710,1.48778
307.60603,1.47558
307.36496,1.43151
307.12389,1.38681
306.88282,1.37420
306.64175,1.41058
306.40068,1.47946
306.15961,1.52711
305.91854,1.51730
305.67747,1.48770
305.43640,1.48736
305.19532,1.51549
304.95425,1.54045
304.71318,1.54177
304.47211,1.52081
304.23104,1.49243
303.98997,1.47069
303.74890,1.45753
303.50783,1.45155
303.26676,1.45428
303.02569,1.46303
302.78462,1.46345
302.54355,1.44486
302.30248,1.41806
302.06141,1.39897
301.82034,1.39246
301.57927,1.39187
301.33820,1.38573
301.09713,1.37182
300.85605,1.36450
300.61498,1.37193
300.37391,1.38105
300.13284,1.37837
299.89177,1.37079
299.65070,1.37085
299.40963,1.38061
299.16856,1.39365
298.92749,1.40196
298.68642,1.39920
298.44535,1.38115
298.20428,1.35631
297.96321,1.33809
297.72214,1.33129
297.48107,1.33526
297.24000,1.34691
296.99893,1.35616
296.75786,1.35457
296.51678,1.34788
296.27571,1.34337
296.03464,1.33801
295.79357,1.32642
295.55250,1.31204
295.31143,1.30525
295.07036,1.30954
294.82929,1.31545
294.58822,1.31408
294.34715,1.30897
294.10608,1.30879
293.86501,1.31546
293.62394,1.32187
293.38287,1.31861
293.14180,1.30392
292.90073,1.28595
292.65966,1.27160
292.41859,1.26169
292.17751,1.26079
291.93644,1.27242
291.69537,1.28720
291.45430,1.29041
291.21323,1.27793
290.97216,1.25846
290.73109,1.24249
290.49002,1.23418
290.24895,1.23399
290.00788,1.24037
289.76681,1.24858
289.52574,1.25296
289.28467,1.25244
289.04360,1.25070
288.80253,1.24874
288.56146,1.24405
288.32039,1.23855
288.07932,1.23905
287.83824,1.24888
287.59717,1.26279
287.35610,1.26989
287.11503,1.26324
286.87396,1.24828
286.63289,1.23755
286.39182,1.23578
286.15075,1.23538
285.90968,1.22940
285.66861,1.22141
285.42754,1.21608
285.18647,1.21136
284.94540,1.20647
284.70433,1.20629
284.46326,1.21341
284.22219,1.22290
283.98112,1.22991
283.74005,1.23545
283.49897,1.23915
283.25790,1.23628
283.01683,1.22512
282.77576,1.21063
282.53469,1.20023
282.29362,1.19857
282.05255,1.20492
281.81148,1.21245
281.57041,1.21363
281.32934,1.20919
281.08827,1.20702
280.84720,1.21195
280.60613,1.22096
280.36506,1.22796
280.12399,1.23110
279.88292,1.23243
279.64185,1.23099
279.40078,1.22334
279.15970,1.21225
278.91863,1.20817
278.67756,1.21656
278.43649,1.22863
278.19542,1.23177
277.95435,1.22689
277.71328,1.22533
277.47221,1.23175
277.23114,1.23903
276.99007,1.23926
276.74900,1.23395
276.50793,1.22856
276.26686,1.22393
276.02579,1.21793
275.78472,1.21047
275.54365,1.20342
275.30258,1.19829
275.06151,1.19704
274.82043,1.20069
274.57936,1.20660
274.33829,1.21048
274.09722,1.21180
273.85615,1.21496
273.61508,1.22330
273.37401,1.23374
273.13294,1.23976
272.89187,1.23956
272.65080,1.23819
272.40973,1.24059
272.16866,1.24601
271.92759,1.24898
271.68652,1.24554
271.44545,1.24033
271.20438,1.24409
270.96331,1.26081
270.72224,1.28093
270.48116,1.29131
270.24009,1.28872
269.99902,1.27894
269.75795,1.26797
269.51688,1.25910
269.27581,1.25641
269.03474,1.26474
268.79367,1.28294
268.55260,1.30157
268.31153,1.31006
268.07046,1.30576
267.82939,1.29555
267.58832,1.28755
267.34725,1.28492
267.10618,1.28605
266.86511,1.28838
266.62404,1.29405
266.38297,1.30852
266.14189,1.33088
265.90082,1.34967
265.65975,1.35446
265.41868,1.34976
265.17761,1.34949
264.93654,1.36191
264.69547,1.38456
264.45440,1.40811
264.21333,1.42185
263.97226,1.42045
263.73119,1.41055
263.49012,1.40582
263.24905,1.41353
263.00798,1.43022
262.76691,1.44891
262.52584,1.46564
262.28477,1.47782
262.04370,1.48597
261.80262,1.49769
261.56155,1.51998
261.32048,1.55042
261.07941,1.57729
260.83834,1.59304
260.59727,1.60749
260.35620,1.63674
260.11513,1.68309
259.87406,1.73050
259.63299,1.76123
259.39192,1.77578
259.15085,1.78749
258.90978,1.80825
258.66871,1.84523
258.42764,1.89548
258.18657,1.94534
257.94550,1.98005
257.70443,2.00163
257.46335,2.03510
257.22228,2.06389
256.98121,2.05932
256.74014,2.02615
256.49907,1.99269
256.25800,1.98548
256.01693,2.01801
255.77586,2.05670
255.53479,2.03373
255.29372,1.95403
255.05265,1.88767
254.81158,1.86354
254.57051,1.85131
254.32944,1.81985
254.08837,1.79123
253.84730,1.79487
253.60623,1.81108
253.36516,1.80546
253.12408,1.77891
252.88301,1.75799
252.64194,1.76183
252.40087,1.78229
252.15980,1.78805
251.91873,1.75656
251.67766,1.70623
251.43659,1.66900
251.19552,1.65294
250.95445,1.64904
250.71338,1.65127
250.47231,1.65987
250.23124,1.67847
249.99017,1.71047
249.74910,1.74134
249.50803,1.74749
249.26696,1.73086
249.02589,1.69692
248.78481,1.65711
248.54374,1.62561
248.30267,1.60614
248.06160,1.60530
247.82053,1.62778
247.57946,1.65620
247.33839,1.66448
247.09732,1.65267
246.85625,1.63086
246.61518,1.60689
246.37411,1.59399
246.13304,1.60432
245.89197,1.63656
245.65090,1.67490
245.40983,1.69852
245.16876,1.69732
244.92769,1.68439
244.68661,1.68330
244.44554,1.70955
244.20447,1.76367
243.96340,1.83353
243.72233,1.90033
243.48126,1.93794
243.24019,1.94960
242.99912,1.96459
242.75805,1.97542
242.51698,1.95187
242.27591,1.89820
242.03484,1.83782
241.79377,1.75544
241.55270,1.68934
241.31163,1.62128
241.07056,1.54574
240.82949,1.47931
240.58842,1.43289
240.34734,1.40139
240.10627,1.37153
239.86520,1.33515
239.62413,1.29540
239.38306,1.26160
239.14199,1.23821
238.90092,1.22052
238.65985,1.20142
238.41878,1.18002
238.17771,1.16033
237.93664,1.14382
237.69557,1.12862
237.45450,1.11315
237.21343,1.09743
236.97236,1.08164
236.73129,1.06590
236.49022,1.05072
236.24915,1.03600
236.00807,1.02264
235.76700,1.01361
235.52593,1.01047
235.28486,1.00941
235.04379,1.00429
234.80272,0.99489
234.56165,0.98671
234.32058,0.98160
234.07951,0.97535
233.83844,0.96646
233.59737,0.95966
233.35630,0.95796
233.11523,0.95705
232.87416,0.95108
232.63309,0.94187
232.39202,0.93661
232.15095,0.93709
231.90988,0.93702
231.66880,0.93239
231.42773,0.92791
231.18666,0.92773
230.94559,0.92813
230.70452,0.92480
230.46345,0.92065
230.22238,0.92030
229.98131,0.92286
229.74024,0.92445
229.49917,0.92327
229.25810,0.91838
229.01703,0.90880
228.77596,0.89729
228.53489,0.88979
228.29382,0.88849
228.05275,0.88930
227.81168,0.88828
227.57061,0.88687
227.32953,0.88775
227.08846,0.89029
226.84739,0.89312
226.60632,0.89625
226.36525,0.89817
226.12418,0.89602
225.88311,0.89074
225.64204,0.88569
225.40097,0.88063
225.15990,0.87330
224.91883,0.86477
224.67776,0.85887
224.43669,0.85855
224.19562,0.86444
223.95455,0.87371
223.71348,0.88086
223.47241,0.88392
223.23134,0.88722
222.99026,0.89289
222.74919,0.89661
222.50812,0.89664
222.26705,0.89668
222.02598,0.89710
221.78491,0.89441
221.54384,0.89021
221.30277,0.89147
221.06170,0.90075
220.82063,0.91373
220.57956,0.92643
220.33849,0.93862
220.09742,0.94999
219.85635,0.95937
219.61528,0.96762
219.37421,0.97591
219.13314,0.98349
218.89207,0.99106
218.65099,1.00175
218.40992,1.01659
218.16885,1.03421
217.92778,1.05368
217.68671,1.07091
217.44564,1.07759
217.20457,1.07512
216.96350,1.07690
216.72243,1.08867
216.48136,1.10398
216.24029,1.11822
215.99922,1.13333
215.75815,1.15046
215.51708,1.16673
215.27601,1.17841
215.03494,1.18380
214.79387,1.18560
214.55280,1.18935
214.31172,1.19680
214.07065,1.20655
213.82958,1.21962
213.58851,1.23697
213.34744,1.25442
213.10637,1.26495
212.86530,1.26367
212.62423,1.25302
212.38316,1.24389
212.14209,1.24310
211.90102,1.24720
211.65995,1.25163
211.41888,1.25666
211.17781,1.26379
210.93674,1.27495
210.69567,1.29304
210.45460,1.31357
210.21353,1.31948
209.97245,1.29883
209.73138,1.26417
209.49031,1.23905
209.24924,1.23517
209.00817,1.24849
208.76710,1.27090
208.52603,1.29780
208.28496,1.31916
208.04389,1.31787
207.80282,1.29108
207.56175,1.25391
207.32068,1.22334
207.07961,1.20992
206.83854,1.21460
206.59747,1.22692
206.35640,1.23160
206.11533,1.22140
205.87426,1.19860
205.63318,1.16958
205.39211,1.14314
205.15104,1.12707
204.90997,1.12265
204.66890,1.12060
204.42783,1.10705
204.18676,1.08067
203.94569,1.05520
203.70462,1.04311
203.46355,1.04635
203.22248,1.05752
202.98141,1.06205
202.74034,1.04570
202.49927,1.01151
202.25820,0.97757
202.01713,0.95655
201.77606,0.94894
201.53499,0.94762
201.29391,0.94358
201.05284,0.93295
200.81177,0.91924
200.57070,0.90798
200.32963,0.89968
200.08856,0.88911
199.84749,0.87312
199.60642,0.85539
199.36535,0.84139
199.12428,0.83284
198.88321,0.82695
198.64214,0.81937
198.40107,0.80852
198.16000,0.79706
197.91893,0.78824
197.67786,0.78228
197.43679,0.77758
197.19572,0.77267
196.95464,0.76515
196.71357,0.75315
196.47250,0.74016
196.23143,0.73326
195.99036,0.73395
195.74929,0.73453
195.50822,0.72748
195.26715,0.71541
195.02608,0.70634
194.78501,0.70379
194.54394,0.70418
194.30287,0.70139
194.06180,0.69344
193.82073,0.68366
193.57966,0.67530
193.33859,0.66821
193.09752,0.66069
192.85645,0.65271
192.61537,0.64698
192.37430,0.64613
192.13323,0.64859
191.89216,0.64835
191.65109,0.64108
191.41002,0.63111
191.16895,0.62658
190.92788,0.62843
190.68681,0.62944
190.44574,0.62428
190.20467,0.61653
189.96360,0.61276
189.72253,0.61450
189.48146,0.61776
189.24039,0.61737
188.99932,0.61297
188.75825,0.60986
188.51718,0.61174
188.27610,0.61456
188.03503,0.61136
187.79396,0.60288
187.55289,0.59632
187.31182,0.59470
187.07075,0.59406
186.82968,0.59148
186.58861,0.58917
186.34754,0.58846
186.10647,0.58695
185.86540,0.58468
185.62433,0.58607
185.38326,0.59202
185.14219,0.59627
184.90112,0.59395
184.66005,0.58896
184.41898,0.58738
184.17791,0.58934
183.93683,0.59173
183.69576,0.59487
183.45469,0.60028
183.21362,0.60544
182.97255,0.60720
182.73148,0.60704
182.49041,0.60770
182.24934,0.60810
182.00827,0.60610
181.76720,0.60298
181.52613,0.60138
181.28506,0.60157
181.04399,0.60277
180.80292,0.60550
180.56185,0.61004
180.32078,0.61501
180.07971,0.61947
179.83864,0.62446
179.59756,0.63080
179.35649,0.63753
179.11542,0.64324
178.87435,0.64759
178.63328,0.65204
178.39221,0.65906
178.15114,0.66913
177.91007,0.67999
177.66900,0.69038
177.42793,0.70149
177.18686,0.71282
176.94579,0.72170
176.70472,0.72902
176.46365,0.73954
176.22258,0.75406
175.98151,0.76774
175.74044,0.77918
175.49937,0.79344
175.25829,0.81229
175.01722,0.83073
174.77615,0.84686
174.53508,0.86504
174.29401,0.88657
174.05294,0.90701
173.81187,0.92164
173.57080,0.92832
173.32973,0.92974
173.08866,0.93453
172.84759,0.94690
172.60652,0.95986
172.36545,0.96767
172.12438,0.97468
171.88331,0.98397
171.64224,0.99143
171.40117,0.99522
171.16010,0.99874
170.91902,1.00230
170.67795,1.00056
170.43688,0.98847
170.19581,0.96724
169.95474,0.94431
169.71367,0.92647
169.47260,0.91566
169.23153,0.91231
168.99046,0.91725
168.74939,0.92840
168.50832,0.93942
168.26725,0.94409
168.02618,0.94101
167.78511,0.93445
167.54404,0.93046
167.30297,0.93064
167.06190,0.93041
166.82083,0.92497
166.57975,0.91572
166.33868,0.90927
166.09761,0.91115
165.85654,0.92141
165.61547,0.93609
165.37440,0.95093
165.13333,0.96227
164.89226,0.96858
164.65119,0.97216
164.41012,0.97523
164.16905,0.97764
163.92798,0.98035
163.68691,0.98517
163.44584,0.99016
163.20477,0.99243
162.96370,0.99514
162.72263,1.00403
162.48156,1.01792
162.24048,1.02898
161.99941,1.03186
161.75834,1.02886
161.51727,1.02644
161.27620,1.02888
161.03513,1.03533
160.79406,1.04209
160.55299,1.04637
160.31192,1.04757
160.07085,1.04642
159.82978,1.04303
159.58871,1.03608
159.34764,1.02501
159.10657,1.01140
158.86550,0.99787
158.62443,0.98733
158.38336,0.98321
158.14229,0.98793
157.90121,0.99847
157.66014,1.00365
157.41907,0.99236
157.17800,0.96690
156.93693,0.93951
156.69586,0.91977
156.45479,0.91203
156.21372,0.91777
155.97265,0.93331
155.73158,0.94694
155.49051,0.94578
155.24944,0.92861
155.00837,0.90620
154.76730,0.88894
154.52623,0.87964
154.28516,0.87619
154.04409,0.87530
153.80302,0.87170
153.56194,0.85856
153.32087,0.83555
153.07980,0.81183
152.83873,0.79605
152.59766,0.78781
152.35659,0.77943
152.11552,0.76457
151.87445,0.74426
151.63338,0.72383
151.39231,0.70773
151.15124,0.69750
150.91017,0.69073
150.66910,0.68254
150.42803,0.67014
150.18696,0.65526
149.94589,0.64131
149.70482,0.63011
149.46375,0.62127
149.22267,0.61328
148.98160,0.60505
148.74053,0.59658
148.49946,0.58861
148.25839,0.58207
148.01732,0.57738
147.77625,0.57377
147.53518,0.56985
147.29411,0.56561
147.05304,0.56333
146.81197,0.56588
146.57090,0.57292
146.32983,0.57986
146.08876,0.58311
145.84769,0.58494
145.60662,0.59026
145.36555,0.59904
145.12448,0.60550
144.88340,0.60567
144.64233,0.60325
144.40126,0.60466
144.16019,0.61073
143.91912,0.61598
143.67805,0.61581
143.43698,0.61158
143.19591,0.60679
142.95484,0.60147
142.71377,0.59340
142.47270,0.58288
142.23163,0.57297
141.99056,0.56509
141.74949,0.55683
141.50842,0.54545
141.26735,0.53256
141.02628,0.52308
140.78521,0.51959
140.54413,0.51989
140.30306,0.52061
140.06199,0.52157
139.82092,0.52431
139.57985,0.52803
139.33878,0.53064
139.09771,0.53252
138.85664,0.53607
138.61557,0.54146
138.37450,0.54633
138.13343,0.55041
137.89236,0.55699
137.65129,0.56817
137.41022,0.58203
137.16915,0.59651
136.92808,0.61271
136.68701,0.63208
136.44594,0.65346
136.20486,0.67487
135.96379,0.69565
135.72272,0.71573
135.48165,0.73585
135.24058,0.75800
134.99951,0.78280
134.75844,0.80839
134.51737,0.83417
134.27630,0.86220
134.03523,0.89365
133.79416,0.92692
133.55309,0.96042
133.31202,0.99401
133.07095,1.02707
132.82988,1.05807
132.58881,1.08467
132.34774,1.10316
132.10667,1.11274
131.86559,1.11898
131.62452,1.12538
131.38345,1.12755
131.14238,1.12154
130.90131,1.10860
130.66024,1.08929
130.41917,1.06458
130.17810,1.04163
129.93703,1.02582
129.69596,1.01093
129.45489,0.98812
129.21382,0.95963
128.97275,0.93221
128.73168,0.90616
128.49061,0.87963
128.24954,0.85229
128.00847,0.82288
127.76740,0.79117
127.52632,0.75963
127.28525,0.73009
127.04418,0.70244
126.80311,0.67674
126.56204,0.65333
126.32097,0.63222
126.07990,0.61360
125.83883,0.59766
125.59776,0.58410
125.35669,0.57211
125.11562,0.56045
124.87455,0.54807
124.63348,0.53549
124.39241,0.52471
124.15134,0.51747
123.91027,0.51432
123.66920,0.51458
123.42812,0.51556
123.18705,0.51363
122.94598,0.50736
122.70491,0.49886
122.46384,0.49158
122.22277,0.48689
121.98170,0.48309
121.74063,0.47815
121.49956,0.47247
121.25849,0.46808
121.01742,0.46648
120.77635,0.46834
120.53528,0.47382
120.29421,0.48227
120.05314,0.49299
119.81207,0.50579
119.57100,0.52015
119.32993,0.53588
119.08885,0.55524
118.84778,0.58182
118.60671,0.61655
118.36564,0.65542
118.12457,0.69206
117.88350,0.72250
117.64243,0.74692
117.40136,0.76754
117.16029,0.78473
116.91922,0.79657
116.67815,0.80127
116.43708,0.79796
116.19601,0.78771
115.95494,0.77540
115.71387,0.76741
115.47280,0.76582
115.23173,0.76621
114.99066,0.76156
114.74958,0.74920
114.50851,0.73365
114.26744,0.72146
114.02637,0.71381
113.78530,0.70500
113.54423,0.68979
113.30316,0.67076
113.06209,0.65528
112.82102,0.64795
112.57995,0.64924
112.33888,0.65852
112.09781,0.67536
111.85674,0.69832
111.61567,0.72394
111.37460,0.74777
111.13353,0.76623
110.89246,0.77546
110.65139,0.77080
110.41031,0.75255
110.16924,0.72844
109.92817,0.70582
109.68710,0.68608
109.44603,0.66932
109.20496,0.65885
108.96389,0.65645
108.72282,0.65719
108.48175,0.65226
108.24068,0.63543
107.99961,0.60713
107.75854,0.57426
107.51747,0.54425
107.27640,0.51977
107.03533,0.50107
106.79426,0.48996
106.55319,0.48782
106.31212,0.49144
106.07104,0.49295
105.82997,0.48442
105.58890,0.46435
105.34783,0.43856
105.10676,0.41457
104.86569,0.39705
104.62462,0.38852
104.38355,0.39060
104.14248,0.39986
103.90141,0.40392
103.66034,0.39096
103.41927,0.36467
103.17820,0.33920
102.93713,0.32465
102.69606,0.32329
102.45499,0.33128
102.21392,0.33928
101.97285,0.33673
101.73177,0.32169
101.49070,0.30316
101.24963,0.29197
101.00856,0.29274
100.76749,0.30131
100.52642,0.30706
100.28535,0.30232
100.04428,0.29114
99.80321,0.28314
99.56214,0.28270
99.32107,0.28717
99.08000,0.29010
98.83893,0.28600
98.59786,0.27644
98.35679,0.26898
98.11572,0.26840
97.87465,0.27141
97.63358,0.27018
97.39250,0.26252
97.15143,0.25625
96.91036,0.25981
96.66929,0.27318
96.42822,0.28719
96.18715,0.29248
95.94608,0.29190
95.70501,0.29647
95.46394,0.31064
95.22287,0.32642
94.98180,0.33127
94.74073,0.32724
94.49966,0.32924
94.25859,0.34194
94.01752,0.35141
93.77645,0.34372
93.53538,0.32904
93.29431,0.32553
93.05323,0.33269
92.81216,0.33553
92.57109,0.33092
92.33002,0.33126
92.08895,0.34031
91.84788,0.34776
91.60681,0.34871
91.36574,0.35115
91.12467,0.35970
90.88360,0.36995
90.64253,0.38184
90.40146,0.40334
90.16039,0.43563
89.91932,0.46966
89.67825,0.50192
89.43718,0.53959
89.19611,0.58296
88.95504,0.62332
88.71396,0.65839
88.47289,0.68667
88.23182,0.69884
87.99075,0.69583
87.74968,0.68428
87.50861,0.65856
87.26754,0.61931
87.02647,0.58369
86.78540,0.55811
86.54433,0.53231
86.30326,0.50185
86.06219,0.47238
85.82112,0.44507
85.58005,0.41780
85.33898,0.39312
85.09791,0.37202
84.85684,0.35212
84.61577,0.33396
84.37469,0.31950
84.13362,0.30636
83.89255,0.29124
83.65148,0.27542
83.41041,0.26204
83.16934,0.25166
82.92827,0.24317
82.68720,0.23623
82.44613,0.23118
82.20506,0.22744
81.96399,0.22328
81.72292,0.21774
81.48185,0.21204
81.24078,0.20807
80.99971,0.20590
80.75864,0.20407
80.51757,0.20243
80.27650,0.20260
80.03542,0.20492
79.79435,0.20676
79.55328,0.20575
79.31221,0.20296
79.07114,0.20149
78.83007,0.20289
78.58900,0.20516
78.34793,0.20433
78.10686,0.19915
77.86579,0.19284
77.62472,0.18830
77.38365,0.18450
77.14258,0.17954
76.90151,0.17414
76.66044,0.17039
76.41937,0.16932
76.17830,0.17056
75.93723,0.17289
75.69615,0.17490
75.45508,0.17542
75.21401,0.17342
74.97294,0.16812
74.73187,0.16051
74.49080,0.15405
74.24973,0.15272
74.00866,0.15782
73.76759,0.16665
73.52652,0.17390
73.28545,0.17509
73.04438,0.17003
72.80331,0.16360
72.56224,0.16241
72.32117,0.16992
72.08010,0.18298
71.83903,0.19220
71.59796,0.18872
71.35688,0.17406
71.11581,0.15910
70.87474,0.15274
70.63367,0.15655
70.39260,0.16833
70.15153,0.18638
69.91046,0.20968
69.66939,0.23602
69.42832,0.26107
69.18725,0.27747
68.94618,0.27695
68.70511,0.25882
68.46404,0.23266
68.22297,0.20899
67.98190,0.19180
67.74083,0.17923
67.49976,0.16848
67.25869,0.15938
67.01761,0.15350
66.77654,0.15150
66.53547,0.15256
66.29440,0.15542
66.05333,0.15922
65.81226,0.16355
65.57119,0.16813
65.33012,0.17331
65.08905,0.18007
64.84798,0.18768
64.60691,0.19246
64.36584,0.19102
64.12477,0.18381
63.88370,0.17400
63.64263,0.16409
63.40156,0.15406
63.16049,0.14308
62.91942,0.13242
62.67834,0.12500
62.43727,0.12206
62.19620,0.12238
61.95513,0.12455
61.71406,0.12836
61.47299,0.13430
61.23192,0.14286
60.99085,0.15333
60.74978,0.16484
60.50871,0.17894
60.26764,0.19811
60.02657,0.22027
59.78550,0.23727
59.54443,0.23979
59.30336,0.22372
59.06229,0.19455
58.82122,0.16204
58.58015,0.13252
58.33907,0.10906
58.09800,0.09294
57.85693,0.08330
57.61586,0.07847
57.37479,0.07886
57.13372,0.08794
56.89265,0.10853
56.65158,0.13820
56.41051,0.16911
56.16944,0.19091
55.92837,0.19293
55.68730,0.17262
55.44623,0.14176
55.20516,0.11387
54.96409,0.09516
54.72302,0.08692
54.48195,0.08972
54.24088,0.10525
53.99980,0.13613
53.75873,0.18696
53.51766,0.25662
53.27659,0.29288
53.03552,0.23182
52.79445,0.15268
52.55338,0.09882
52.31231,0.07422
52.07124,0.08154
51.83017,0.12681
51.58910,0.20129
51.34803,0.23048
51.10696,0.16176
50.86589,0.08747
50.62482,0.04942
50.38375,0.05351
50.14268,0.10602
49.90161,0.19224
49.66053,0.22618
49.41946,0.16190
49.17839,0.10285
48.93732,0.09732
48.69625,0.14635
48.45518,0.20236
48.21411,0.16381
47.97304,0.08612
47.73197,0.05924
47.49090,0.10032
47.24983,0.16119
47.00876,0.13750
46.76769,0.08145
46.52662,0.07720
46.28555,0.11738
46.04448,0.13060
45.80341,0.09869
45.56234,0.09067
45.32126,0.11699
45.08019,0.13041
44.83912,0.12096
44.59805,0.12824
44.35698,0.14727
44.11591,0.14288
43.87484,0.13117
43.63377,0.13770
43.39270,0.14186
43.15163,0.12990
42.91056,0.12107
42.66949,0.11711
42.42842,0.10735
42.18735,0.10081
41.94628,0.10275
41.70521,0.10447
41.46414,0.10899
41.22307,0.12194
40.98199,0.13166
40.74092,0.13139
40.49985,0.13050
40.25878,0.13330
40.01771,0.13832
39.77664,0.14926
39.53557,0.16689
39.29450,0.18103
39.05343,0.18382
38.81236,0.17996
38.57129,0.17770
38.33022,0.17963
38.08915,0.18114
37.84808,0.18132
37.60701,0.18577
37.36594,0.19208
37.12487,0.19179
36.88380,0.18655
36.64272,0.18553
36.40165,0.18905
36.16058,0.18947
35.91951,0.18678
35.67844,0.19101
35.43737,0.20724
35.19630,0.22208
34.95523,0.21566
34.71416,0.18813
34.47309,0.15779
34.23202,0.13931
33.99095,0.13528
33.74988,0.14156
33.50881,0.15217
33.26774,0.16291
33.02667,0.17178
32.78560,0.17602
32.54453,0.17658
32.30345,0.18029
32.06238,0.19124
31.82131,0.20388
31.58024,0.20717
31.33917,0.19802
31.09810,0.18004
30.85703,0.15450
30.61596,0.12437
30.37489,0.09728
30.13382,0.07685
29.89275,0.06507
29.65168,0.06967
29.41061,0.09236
29.16954,0.12108
28.92847,0.14553
28.68740,0.16507
28.44633,0.17766
28.20526,0.17795
27.96418,0.16834
27.72311,0.15716
27.48204,0.14588
27.24097,0.12549
26.99990,0.08995
26.75883,0.04789
26.51776,0.01559
26.27669,0.00845
26.03562,0.02686
25.79455,0.05503
25.55348,0.07144
25.31241,0.06006
25.07134,0.02463
24.83027,-0.01524
24.58920,-0.03954
24.34813,-0.04409
24.10706,-0.03934
23.86599,-0.03045
23.62491,-0.02150
23.38384,-0.02325
23.14277,-0.04207
22.90170,-0.07216
22.66063,-0.10204
22.41956,-0.12187
22.17849,-0.12458
21.93742,-0.11465
21.69635,-0.10524
21.45528,-0.10764
21.21421,-0.12020
20.97314,-0.12595
20.73207,-0.12268
20.49100,-0.12887
20.24993,-0.14335
20.00886,-0.15002
19.76779,-0.15908
19.52672,-0.18053
19.28564,-0.20101
19.04457,-0.20766
18.80350,-0.20786
18.56243,-0.20956
18.32136,-0.20362
18.08029,-0.19199
17.83922,-0.20060
17.59815,-0.23454
17.35708,-0.26788
17.11601,-0.27422
16.87494,-0.23914
16.63387,-0.19438
16.39280,-0.16791
16.15173,-0.15877
15.91066,-0.16730
15.66959,-0.19894
15.42852,-0.24507
15.18745,-0.26332
14.94637,-0.22585
14.70530,-0.20275
14.46423,-0.20397
14.22316,-0.22487
13.98209,-0.26461
13.74102,-0.26320
13.49995,-0.22785
13.25888,-0.19962
13.01781,-0.18189
12.77674,-0.16862
12.53567,-0.15933
12.29460,-0.15851
12.05353,-0.16528
11.81246,-0.17536
11.57139,-0.19106
11.33032,-0.21226
11.08925,-0.23187
10.84818,-0.24419
10.60710,-0.22141
10.36603,-0.19433
10.12496,-0.16774
9.88389,-0.14169
9.64282,-0.15106
9.40175,-0.17984
9.16068,-0.19439
8.91961,-0.19229
8.67854,-0.19114
8.43747,-0.20666
8.19640,-0.23106
7.95533,-0.23888
7.71426,-0.22913
7.47319,-0.23113
7.23212,-0.22788
6.99105,-0.21448
6.74998,-0.21538
6.50891,-0.22713
6.26783,-0.23480
6.02676,-0.22773
5.78569,-0.20339
5.54462,-0.17496
5.30355,-0.17051
5.06248,-0.19832
4.82141,-0.23197
4.58034,-0.23983
4.33927,-0.21533
4.09820,-0.17423
3.85713,-0.14907
3.61606,-0.16096
3.37499,-0.19484
3.13392,-0.22316
2.89285,-0.23807
2.65178,-0.23947
2.41071,-0.22479
2.16964,-0.20406
1.92856,-0.19057
1.68749,-0.18288
1.44642,-0.17499
1.20535,-0.18688
0.96428,-0.21444
0.72321,-0.20407
0.48214,-0.20928
0.24107,-0.23244
-0.00000,-0.12771
