399.69498,1.98391
399.45391,2.06640
399.21284,2.05989
398.97177,2.00235
398.73070,2.01625
398.48963,2.07813
398.24856,2.10126
398.00749,2.15174
397.76642,2.23753
397.52535,2.22648
397.28428,2.14451
397.04321,1.99984
396.80214,1.94289
396.56107,1.93142
396.32000,1.90872
396.07892,1.89031
395.83785,1.91760
395.59678,1.99098
395.35571,2.04133
395.11464,2.02052
394.87357,1.97045
394.63250,2.00308
394.39143,2.20140
394.15036,2.46219
393.90929,2.20084
393.66822,2.13256
393.42715,2.31614
393.18608,2.40203
392.94501,2.16702
392.70394,2.10341
392.46287,2.19212
392.22180,2.36465
391.98073,2.56927
391.73965,2.60648
391.49858,2.32275
391.25751,2.12018
391.01644,2.01761
390.77537,1.98912
390.53430,2.01602
390.29323,2.04671
390.05216,2.04438
389.81109,2.01762
389.57002,2.02057
389.32895,2.05240
389.08788,2.08423
388.84681,2.19512
388.60574,2.33630
388.36467,2.25670
388.12360,2.09503
387.88253,1.97876
387.64146,1.96043
387.40038,2.10190
387.15931,2.31401
386.91824,2.15458
386.67717,1.99958
386.43610,2.02249
386.19503,2.04284
385.95396,1.92281
385.71289,1.87005
385.47182,1.92043
385.23075,2.08050
384.98968,2.38478
384.74861,2.46996
384.50754,2.17817
384.26647,1.94549
384.02540,1.86283
383.78433,1.92373
383.54326,2.03433
383.30219,2.11192
383.06111,2.17986
382.82004,1.95298
382.57897,1.94628
382.33790,2.22148
382.09683,2.36157
381.85576,2.04288
381.61469,1.87708
381.37362,1.83922
381.13255,1.89982
380.89148,2.09628
380.65041,2.23412
380.40934,2.05467
380.16827,2.01434
379.92720,2.06605
379.68613,1.88710
379.44506,1.83545
379.20399,1.87722
378.96292,1.89392
378.72184,1.92223
378.48077,1.99448
378.23970,2.00300
377.99863,1.97662
377.75756,2.05650
377.51649,2.14057
377.27542,1.95329
377.03435,1.75765
376.79328,1.72299
376.55221,1.86650
376.31114,2.08828
376.07007,2.10218
375.82900,1.99183
375.58793,2.02032
375.34686,2.07468
375.10579,2.08659
374.86472,2.02377
374.62365,1.94539
374.38257,1.88667
374.14150,1.86907
373.90043,1.92590
373.65936,2.07811
373.41829,2.27112
373.17722,2.25275
372.93615,2.01894
372.69508,1.85047
372.45401,1.80817
372.21294,1.83911
371.97187,1.88229
371.73080,1.93043
371.48973,1.97800
371.24866,1.92366
371.00759,1.78634
370.76652,1.69835
370.52545,1.67003
370.28437,1.66730
370.04330,1.66643
369.80223,1.66507
369.56116,1.68637
369.32009,1.74392
369.07902,1.81300
368.83795,1.84594
368.59688,1.83188
368.35581,1.79975
368.11474,1.75977
367.87367,1.71028
367.63260,1.66211
367.39153,1.62445
367.15046,1.59416
366.90939,1.56508
366.66832,1.53705
366.42725,1.51480
366.18618,1.50477
365.94510,1.50947
365.70403,1.53115
365.46296,1.56193
365.22189,1.58479
364.98082,1.59295
364.73975,1.59285
364.49868,1.59177
364.25761,1.57810
364.01654,1.53879
363.77547,1.49986
363.53440,1.49031
363.29333,1.50664
363.05226,1.53083
362.81119,1.55710
362.57012,1.59497
362.32905,1.63035
362.08798,1.62222
361.84691,1.57381
361.60583,1.53298
361.36476,1.52589
361.12369,1.54475
360.88262,1.56011
360.64155,1.54529
360.40048,1.50380
360.15941,1.46550
359.91834,1.45254
359.67727,1.45101
359.43620,1.43851
359.19513,1.42723
358.95406,1.43862
358.71299,1.46326
358.47192,1.47391
358.23085,1.46466
357.98978,1.44916
357.74871,1.43487
357.50764,1.42468
357.26656,1.42231
357.02549,1.42593
356.78442,1.43151
356.54335,1.44456
356.30228,1.47123
356.06121,1.50015
355.82014,1.51562
355.57907,1.51866
355.33800,1.50981
355.09693,1.48022
354.85586,1.44357
354.61479,1.42854
354.37372,1.44370
354.13265,1.46744
353.89158,1.47417
353.65051,1.46777
353.40944,1.47232
353.16837,1.49503
352.92729,1.51716
352.68622,1.51571
352.44515,1.48619
352.20408,1.44878
351.96301,1.42634
351.72194,1.42652
351.48087,1.44342
351.23980,1.45910
350.99873,1.45414
350.75766,1.43178
350.51659,1.41595
350.27552,1.42418
350.03445,1.45882
349.79338,1.51125
349.55231,1.55465
349.31124,1.55233
349.07017,1.51228
348.82910,1.48481
348.58802,1.49911
348.34695,1.54099
348.10588,1.57331
347.86481,1.57709
347.62374,1.55098
347.38267,1.49890
347.14160,1.44857
346.90053,1.42974
346.65946,1.45054
346.41839,1.49356
346.17732,1.52584
345.93625,1.53268
345.69518,1.52653
345.45411,1.51848
345.21304,1.51291
344.97197,1.51022
344.73090,1.50845
344.48983,1.50539
344.24875,1.50195
344.00768,1.50392
343.76661,1.51229
343.52554,1.52015
343.28447,1.52389
343.04340,1.52760
342.80233,1.53945
342.56126,1.56436
342.32019,1.59561
342.07912,1.61847
341.83805,1.64334
341.59698,1.69601
341.35591,1.75936
341.11484,1.78315
340.87377,1.75114
340.63270,1.70309
340.39163,1.68107
340.15056,1.68408
339.90948,1.69974
339.66841,1.72220
339.42734,1.74866
339.18627,1.76608
338.94520,1.77558
338.70413,1.79207
338.46306,1.83305
338.22199,1.88830
337.98092,1.90754
337.73985,1.87924
337.49878,1.86781
337.25771,1.92774
337.01664,2.03008
336.77557,2.03909
336.53450,1.98046
336.29343,1.97555
336.05236,1.97956
335.81129,1.95301
335.57021,1.93567
335.32914,1.94838
335.08807,1.94546
334.84700,1.86491
334.60593,1.78324
334.36486,1.77481
334.12379,1.85726
333.88272,1.99989
333.64165,2.07698
333.40058,1.99827
333.15951,1.89489
332.91844,1.83622
332.67737,1.79428
332.43630,1.76414
332.19523,1.74076
331.95416,1.70265
331.71309,1.66725
331.47202,1.66054
331.23094,1.68060
330.98987,1.71706
330.74880,1.77127
330.50773,1.85618
330.26666,1.94567
330.02559,1.94865
329.78452,1.82724
329.54345,1.67249
329.30238,1.57155
329.06131,1.53868
328.82024,1.54303
328.57917,1.54603
328.33810,1.52866
328.09703,1.49570
327.85596,1.47150
327.61489,1.47398
327.37382,1.49964
327.13275,1.52416
326.89167,1.53412
326.65060,1.55364
326.40953,1.59756
326.16846,1.65103
325.92739,1.69536
325.68632,1.71442
325.44525,1.69449
325.20418,1.65723
324.96311,1.64210
324.72204,1.65940
324.48097,1.70397
324.23990,1.77468
323.99883,1.87554
323.75776,1.98046
323.51669,1.95425
323.27562,1.81493
323.03455,1.74703
322.79348,1.79626
322.55240,1.89427
322.31133,1.91957
322.07026,1.89258
321.82919,1.86954
321.58812,1.86526
321.34705,1.86453
321.10598,1.85602
320.86491,1.86082
320.62384,1.88006
320.38277,1.92031
320.14170,1.95789
319.90063,1.98989
319.65956,2.08363
319.41849,2.14287
319.17742,2.06258
318.93635,2.00500
318.69528,1.95769
318.45421,1.94732
318.21313,1.95808
317.97206,1.95895
317.73099,1.92081
317.48992,1.82993
317.24885,1.75479
317.00778,1.75368
316.76671,1.89709
316.52564,2.15614
316.28457,2.10663
316.04350,2.00720
315.80243,2.00329
315.56136,2.00242
315.32029,1.87849
315.07922,1.87398
314.83815,2.02933
314.59708,2.19225
314.35601,2.09320
314.11494,2.04234
313.87386,1.91128
313.63279,1.83373
313.39172,1.84534
313.15065,1.93740
312.90958,2.02333
312.66851,1.95704
312.42744,1.94772
312.18637,1.95761
311.94530,2.02198
311.70423,2.27065
311.46316,2.69537
311.22209,2.70907
310.98102,2.38766
310.73995,2.19306
310.49888,2.09698
310.25781,2.09458
310.01674,2.12885
309.77567,2.12251
309.53459,2.02849
309.29352,1.92460
309.05245,1.93591
308.81138,2.07287
308.57031,2.15775
308.32924,2.07702
308.08817,1.90361
307.84710,1.74403
307.60603,1.68384
307.36496,1.69766
307.12389,1.72400
306.88282,1.72216
306.64175,1.70223
306.40068,1.68270
306.15961,1.66872
305.91854,1.65541
305.67747,1.63664
305.43640,1.60727
305.19532,1.56438
304.95425,1.51416
304.71318,1.48115
304.47211,1.48275
304.23104,1.50330
303.98997,1.51706
303.74890,1.52506
303.50783,1.53333
303.26676,1.52663
303.02569,1.48767
302.78462,1.43252
302.54355,1.39365
302.30248,1.38095
302.06141,1.38036
301.82034,1.37780
301.57927,1.37042
301.33820,1.35483
301.09713,1.32698
300.85605,1.29940
300.61498,1.29180
300.37391,1.30183
300.13284,1.30502
299.89177,1.28827
299.65070,1.26588
299.40963,1.25070
299.16856,1.24216
298.92749,1.23944
298.68642,1.24490
298.44535,1.25739
298.20428,1.27087
297.96321,1.27730
297.72214,1.27110
297.48107,1.25580
297.24000,1.24246
296.99893,1.23479
296.75786,1.22290
296.51678,1.20025
296.27571,1.17699
296.03464,1.16484
295.79357,1.16246
295.55250,1.16137
295.31143,1.15796
295.07036,1.15366
294.82929,1.14752
294.58822,1.13799
294.34715,1.12775
294.10608,1.12100
293.86501,1.12004
293.62394,1.12599
293.38287,1.13932
293.14180,1.15954
292.90073,1.17971
292.65966,1.18466
292.41859,1.16703
292.17751,1.13843
291.93644,1.11567
291.69537,1.10555
291.45430,1.10491
291.21323,1.10696
290.97216,1.10603
290.73109,1.10059
290.49002,1.09370
290.24895,1.09034
290.00788,1.09300
289.76681,1.09837
289.52574,1.10035
289.28467,1.09795
289.04360,1.09568
288.80253,1.09527
288.56146,1.09434
288.32039,1.09178
288.07932,1.08882
287.83824,1.08501
287.59717,1.07827
287.35610,1.06910
287.11503,1.06020
286.87396,1.05425
286.63289,1.05424
286.39182,1.06103
286.15075,1.06888
285.90968,1.06941
285.66861,1.06194
285.42754,1.05364
285.18647,1.04974
284.94540,1.04806
284.70433,1.04232
284.46326,1.03118
284.22219,1.02171
283.98112,1.02080
283.74005,1.02788
283.49897,1.03939
283.25790,1.05558
283.01683,1.07570
282.77576,1.08901
282.53469,1.08128
282.29362,1.05366
282.05255,1.02499
281.81148,1.01234
281.57041,1.01743
281.32934,1.02957
281.08827,1.03648
280.84720,1.03371
280.60613,1.02517
280.36506,1.01670
280.12399,1.01221
279.88292,1.01377
279.64185,1.01976
279.40078,1.02337
279.15970,1.01947
278.91863,1.01209
278.67756,1.00923
278.43649,1.01289
278.19542,1.01813
277.95435,1.02036
277.71328,1.02097
277.47221,1.02418
277.23114,1.02981
276.99007,1.03257
276.74900,1.03022
276.50793,1.02879
276.26686,1.03425
276.02579,1.04244
275.78472,1.04262
275.54365,1.03029
275.30258,1.01294
275.06151,1.00222
274.82043,1.00362
274.57936,1.01327
274.33829,1.02271
274.09722,1.02696
273.85615,1.02800
273.61508,1.02923
273.37401,1.03120
273.13294,1.03374
272.89187,1.03649
272.65080,1.03649
272.40973,1.03102
272.16866,1.02289
271.92759,1.01630
271.68652,1.01103
271.44545,1.00554
271.20438,1.00127
270.96331,1.00119
270.72224,1.00688
270.48116,1.01625
270.24009,1.02411
269.99902,1.02836
269.75795,1.03341
269.51688,1.04317
269.27581,1.05432
269.03474,1.06044
268.79367,1.05922
268.55260,1.05285
268.31153,1.04591
268.07046,1.04339
267.82939,1.04707
267.58832,1.05390
267.34725,1.05997
267.10618,1.06470
266.86511,1.06979
266.62404,1.07512
266.38297,1.07668
266.14189,1.07205
265.90082,1.06589
265.65975,1.06532
265.41868,1.07301
265.17761,1.08683
264.93654,1.10267
264.69547,1.11650
264.45440,1.12627
264.21333,1.13074
263.97226,1.12831
263.73119,1.12208
263.49012,1.12143
263.24905,1.13456
263.00798,1.15968
262.76691,1.18467
262.52584,1.19936
262.28477,1.20686
262.04370,1.21647
261.80262,1.22986
261.56155,1.24170
261.32048,1.25170
261.07941,1.26651
260.83834,1.28834
260.59727,1.31025
260.35620,1.32359
260.11513,1.32660
259.87406,1.32413
259.63299,1.32124
259.39192,1.32193
259.15085,1.32957
258.90978,1.34199
258.66871,1.35283
258.42764,1.36202
258.18657,1.37945
257.94550,1.41227
257.70443,1.45227
257.46335,1.48530
257.22228,1.51263
256.98121,1.55213
256.74014,1.61091
256.49907,1.66793
256.25800,1.69672
256.01693,1.69697
255.77586,1.68510
255.53479,1.68305
255.29372,1.71844
255.05265,1.79893
254.81158,1.88529
254.57051,1.94023
254.32944,1.96825
254.08837,1.97343
253.84730,1.96895
253.60623,1.95875
253.36516,1.93825
253.12408,1.93854
252.88301,1.98945
252.64194,2.07508
252.40087,2.16356
252.15980,2.29928
251.91873,2.50816
251.67766,2.42929
251.43659,2.25366
251.19552,2.20086
250.95445,2.13337
250.71338,2.04250
250.47231,2.01070
250.23124,2.09213
249.99017,2.25584
249.74910,2.33993
249.50803,2.40057
249.26696,2.52851
249.02589,2.36993
248.78481,2.17841
248.54374,2.13666
248.30267,2.17817
248.06160,2.20803
247.82053,2.27275
247.57946,2.24460
247.33839,2.22862
247.09732,2.32469
246.85625,2.34864
246.61518,2.40628
246.37411,2.55109
246.13304,2.24413
245.89197,2.00497
245.65090,1.90693
245.40983,1.86671
245.16876,1.84336
244.92769,1.79088
244.68661,1.71950
244.44554,1.66359
244.20447,1.63857
243.96340,1.63626
243.72233,1.62722
243.48126,1.58763
243.24019,1.52237
242.99912,1.45783
242.75805,1.41415
242.51698,1.38611
242.27591,1.35765
242.03484,1.32213
241.79377,1.28459
241.55270,1.25247
241.31163,1.22696
241.07056,1.20307
240.82949,1.17419
240.58842,1.13707
240.34734,1.09613
240.10627,1.06084
239.86520,1.03616
239.62413,1.01910
239.38306,1.00515
239.14199,0.99251
238.90092,0.97832
238.65985,0.95958
238.41878,0.93986
238.17771,0.92533
237.93664,0.91468
237.69557,0.90186
237.45450,0.88563
237.21343,0.86946
236.97236,0.85575
236.73129,0.84546
236.49022,0.83931
236.24915,0.83639
236.00807,0.83388
235.76700,0.82906
235.52593,0.82085
235.28486,0.81076
235.04379,0.80185
234.80272,0.79559
234.56165,0.79117
234.32058,0.78757
234.07951,0.78424
233.83844,0.77958
233.59737,0.77234
233.35630,0.76518
233.11523,0.76253
232.87416,0.76385
232.63309,0.76316
232.39202,0.75683
232.15095,0.74855
231.90988,0.74379
231.66880,0.74306
231.42773,0.74296
231.18666,0.74120
230.94559,0.73813
230.70452,0.73464
230.46345,0.73112
230.22238,0.72729
229.98131,0.72201
229.74024,0.71512
229.49917,0.70947
229.25810,0.70882
229.01703,0.71328
228.77596,0.71909
228.53489,0.72264
228.29382,0.72272
228.05275,0.71955
227.81168,0.71417
227.57061,0.70855
227.32953,0.70479
227.08846,0.70372
226.84739,0.70455
226.60632,0.70611
226.36525,0.70779
226.12418,0.70878
225.88311,0.70746
225.64204,0.70380
225.40097,0.70158
225.15990,0.70450
224.91883,0.71027
224.67776,0.71234
224.43669,0.70854
224.19562,0.70364
223.95455,0.70184
223.71348,0.70213
223.47241,0.70250
223.23134,0.70359
222.99026,0.70597
222.74919,0.70842
222.50812,0.71086
222.26705,0.71578
222.02598,0.72432
221.78491,0.73302
221.54384,0.73738
221.30277,0.73845
221.06170,0.74168
220.82063,0.74927
220.57956,0.75794
220.33849,0.76472
220.09742,0.77090
219.85635,0.77896
219.61528,0.78850
219.37421,0.79616
219.13314,0.79909
218.89207,0.79918
218.65099,0.80208
218.40992,0.81121
218.16885,0.82428
217.92778,0.83661
217.68671,0.84612
217.44564,0.85340
217.20457,0.85834
216.96350,0.85932
216.72243,0.85661
216.48136,0.85507
216.24029,0.86119
215.99922,0.87717
215.75815,0.89878
215.51708,0.91870
215.27601,0.93290
215.03494,0.94234
214.79387,0.94888
214.55280,0.95229
214.31172,0.95267
214.07065,0.95411
213.82958,0.96138
213.58851,0.97444
213.34744,0.98901
213.10637,1.00153
212.86530,1.01088
212.62423,1.01562
212.38316,1.01453
212.14209,1.01007
211.90102,1.00606
211.65995,1.00338
211.41888,1.00205
211.17781,1.00360
210.93674,1.00728
210.69567,1.00846
210.45460,1.00520
210.21353,1.00154
209.97245,1.00215
209.73138,1.00851
209.49031,1.01878
209.24924,1.02652
209.00817,1.02357
208.76710,1.00971
208.52603,0.99498
208.28496,0.98803
208.04389,0.98674
207.80282,0.98383
207.56175,0.97696
207.32068,0.96833
207.07961,0.95844
206.83854,0.94687
206.59747,0.93732
206.35640,0.93411
206.11533,0.93448
205.87426,0.93234
205.63318,0.92774
205.39211,0.92478
205.15104,0.92318
204.90997,0.91850
204.66890,0.90927
204.42783,0.89841
204.18676,0.88788
203.94569,0.87651
203.70462,0.86371
203.46355,0.85194
203.22248,0.84286
202.98141,0.83436
202.74034,0.82445
202.49927,0.81477
202.25820,0.80686
202.01713,0.79854
201.77606,0.78692
201.53499,0.77234
201.29391,0.75815
201.05284,0.74754
200.81177,0.74102
200.57070,0.73590
200.32963,0.72836
200.08856,0.71728
199.84749,0.70536
199.60642,0.69558
199.36535,0.68862
199.12428,0.68320
198.88321,0.67784
198.64214,0.67205
198.40107,0.66619
198.16000,0.66071
197.91893,0.65505
197.67786,0.64784
197.43679,0.63888
197.19572,0.62970
196.95464,0.62200
196.71357,0.61640
196.47250,0.61194
196.23143,0.60662
195.99036,0.59967
195.74929,0.59263
195.50822,0.58659
195.26715,0.58061
195.02608,0.57444
194.78501,0.56988
194.54394,0.56705
194.30287,0.56228
194.06180,0.55288
193.82073,0.54179
193.57966,0.53407
193.33859,0.53081
193.09752,0.52934
192.85645,0.52760
192.61537,0.52578
192.37430,0.52449
192.13323,0.52372
191.89216,0.52340
191.65109,0.52342
191.41002,0.52285
191.16895,0.52048
190.92788,0.51639
190.68681,0.51178
190.44574,0.50728
190.20467,0.50272
189.96360,0.49826
189.72253,0.49416
189.48146,0.48984
189.24039,0.48472
188.99932,0.47965
188.75825,0.47611
188.51718,0.47456
188.27610,0.47469
188.03503,0.47626
187.79396,0.47887
187.55289,0.48110
187.31182,0.48078
187.07075,0.47724
186.82968,0.47281
186.58861,0.47061
186.34754,0.47105
186.10647,0.47213
185.86540,0.47280
185.62433,0.47369
185.38326,0.47488
185.14219,0.47575
184.90112,0.47622
184.66005,0.47617
184.41898,0.47509
184.17791,0.47348
183.93683,0.47337
183.69576,0.47563
183.45469,0.47846
183.21362,0.47987
182.97255,0.48001
182.73148,0.47983
182.49041,0.47971
182.24934,0.48011
182.00827,0.48153
181.76720,0.48352
181.52613,0.48520
181.28506,0.48643
181.04399,0.48755
180.80292,0.48885
180.56185,0.49089
180.32078,0.49415
180.07971,0.49828
179.83864,0.50235
179.59756,0.50569
179.35649,0.50851
179.11542,0.51189
178.87435,0.51648
178.63328,0.52164
178.39221,0.52676
178.15114,0.53257
177.91007,0.54014
177.66900,0.54894
177.42793,0.55734
177.18686,0.56516
176.94579,0.57433
176.70472,0.58630
176.46365,0.59976
176.22258,0.61260
175.98151,0.62493
175.74044,0.63773
175.49937,0.65003
175.25829,0.66077
175.01722,0.67159
174.77615,0.68487
174.53508,0.70056
174.29401,0.71616
174.05294,0.72931
173.81187,0.73983
173.57080,0.74928
173.32973,0.75879
173.08866,0.76805
172.84759,0.77626
172.60652,0.78209
172.36545,0.78508
172.12438,0.78795
171.88331,0.79346
171.64224,0.79894
171.40117,0.79861
171.16010,0.79161
170.91902,0.78336
170.67795,0.77927
170.43688,0.78002
170.19581,0.78235
169.95474,0.78306
169.71367,0.78160
169.47260,0.77891
169.23153,0.77537
168.99046,0.77103
168.74939,0.76694
168.50832,0.76415
168.26725,0.76187
168.02618,0.75858
167.78511,0.75447
167.54404,0.75104
167.30297,0.74902
167.06190,0.74848
166.82083,0.75024
166.57975,0.75509
166.33868,0.76154
166.09761,0.76576
165.85654,0.76559
165.61547,0.76428
165.37440,0.76716
165.13333,0.77427
164.89226,0.78078
164.65119,0.78514
164.41012,0.79154
164.16905,0.80237
163.92798,0.81329
163.68691,0.81849
163.44584,0.81820
163.20477,0.81810
162.96370,0.82291
162.72263,0.83294
162.48156,0.84518
162.24048,0.85531
161.99941,0.85964
161.75834,0.85721
161.51727,0.85010
161.27620,0.84213
161.03513,0.83706
160.79406,0.83566
160.55299,0.83434
160.31192,0.82963
160.07085,0.82341
159.82978,0.82028
159.58871,0.82165
159.34764,0.82509
159.10657,0.82697
158.86550,0.82444
158.62443,0.81785
158.38336,0.81158
158.14229,0.81015
157.90121,0.81289
157.66014,0.81432
157.41907,0.80938
157.17800,0.79764
156.93693,0.78281
156.69586,0.77000
156.45479,0.76320
156.21372,0.76245
155.97265,0.76265
155.73158,0.75828
155.49051,0.74963
155.24944,0.74152
155.00837,0.73734
154.76730,0.73703
154.52623,0.73790
154.28516,0.73574
154.04409,0.72753
153.80302,0.71463
153.56194,0.70133
153.32087,0.68947
153.07980,0.67637
152.83873,0.65955
152.59766,0.64119
152.35659,0.62554
152.11552,0.61383
151.87445,0.60417
151.63338,0.59489
151.39231,0.58564
151.15124,0.57629
150.91017,0.56657
150.66910,0.55639
150.42803,0.54570
150.18696,0.53486
149.94589,0.52508
149.70482,0.51730
149.46375,0.51085
149.22267,0.50425
148.98160,0.49720
148.74053,0.49050
148.49946,0.48422
148.25839,0.47753
148.01732,0.47080
147.77625,0.46613
147.53518,0.46504
147.29411,0.46651
147.05304,0.46823
146.81197,0.46872
146.57090,0.46792
146.32983,0.46650
146.08876,0.46534
145.84769,0.46524
145.60662,0.46669
145.36555,0.47015
145.12448,0.47578
144.88340,0.48258
144.64233,0.48843
144.40126,0.49235
144.16019,0.49555
143.91912,0.49892
143.67805,0.50068
143.43698,0.49869
143.19591,0.49392
142.95484,0.48930
142.71377,0.48547
142.47270,0.48028
142.23163,0.47219
141.99056,0.46238
141.74949,0.45283
141.50842,0.44469
141.26735,0.43840
141.02628,0.43408
140.78521,0.43133
140.54413,0.42945
140.30306,0.42807
140.06199,0.42792
139.82092,0.43007
139.57985,0.43395
139.33878,0.43681
139.09771,0.43697
138.85664,0.43668
138.61557,0.43927
138.37450,0.44513
138.13343,0.45250
137.89236,0.46045
137.65129,0.46892
137.41022,0.47795
137.16915,0.48845
136.92808,0.50227
136.68701,0.52003
136.44594,0.53967
136.20486,0.55855
135.96379,0.57625
135.72272,0.59428
135.48165,0.61352
135.24058,0.63302
134.99951,0.65180
134.75844,0.67102
134.51737,0.69254
134.27630,0.71588
134.03523,0.73898
133.79416,0.76168
133.55309,0.78538
133.31202,0.80863
133.07095,0.82731
132.82988,0.84081
132.58881,0.85341
132.34774,0.86859
132.10667,0.88564
131.86559,0.90105
131.62452,0.91090
131.38345,0.91309
131.14238,0.90836
130.90131,0.89921
130.66024,0.88763
130.41917,0.87329
130.17810,0.85460
129.93703,0.83230
129.69596,0.81022
129.45489,0.79100
129.21382,0.77360
128.97275,0.75625
128.73168,0.73851
128.49061,0.71953
128.24954,0.69805
128.00847,0.67481
127.76740,0.65188
127.52632,0.62918
127.28525,0.60498
127.04418,0.58030
126.80311,0.55860
126.56204,0.54123
126.32097,0.52653
126.07990,0.51265
125.83883,0.49848
125.59776,0.48324
125.35669,0.46718
125.11562,0.45187
124.87455,0.43869
124.63348,0.42803
124.39241,0.41980
124.15134,0.41338
123.91027,0.40682
123.66920,0.39802
123.42812,0.38740
123.18705,0.37810
122.94598,0.37279
122.70491,0.37116
122.46384,0.37085
122.22277,0.36979
121.98170,0.36768
121.74063,0.36603
121.49956,0.36641
121.25849,0.36861
121.01742,0.37153
120.77635,0.37537
120.53528,0.38130
120.29421,0.38930
120.05314,0.39858
119.81207,0.40959
119.57100,0.42300
119.32993,0.43759
119.08885,0.45153
118.84778,0.46522
118.60671,0.48115
118.36564,0.50154
118.12457,0.52632
117.88350,0.55246
117.64243,0.57554
117.40136,0.59308
117.16029,0.60540
116.91922,0.61361
116.67815,0.61879
116.43708,0.62203
116.19601,0.62298
115.95494,0.61944
115.71387,0.61016
115.47280,0.59746
115.23173,0.58580
114.99066,0.57733
114.74958,0.57023
114.50851,0.56189
114.26744,0.55240
114.02637,0.54372
113.78530,0.53696
113.54423,0.53229
113.30316,0.53029
113.06209,0.53079
112.82102,0.53196
112.57995,0.53215
112.33888,0.53251
112.09781,0.53567
111.85674,0.54141
111.61567,0.54647
111.37460,0.54971
111.13353,0.55378
110.89246,0.56000
110.65139,0.56543
110.41031,0.56606
110.16924,0.55987
109.92817,0.54753
109.68710,0.53259
109.44603,0.51892
109.20496,0.50660
108.96389,0.49340
108.72282,0.48016
108.48175,0.46977
108.24068,0.46137
107.99961,0.45027
107.75854,0.43420
107.51747,0.41652
107.27640,0.40168
107.03533,0.39032
106.79426,0.37999
106.55319,0.36899
106.31212,0.35768
106.07104,0.34696
105.82997,0.33726
105.58890,0.32837
105.34783,0.31920
105.10676,0.30886
104.86569,0.29861
104.62462,0.29126
104.38355,0.28735
104.14248,0.28385
103.90141,0.27810
103.66034,0.27133
103.41927,0.26589
103.17820,0.26115
102.93713,0.25507
102.69606,0.24838
102.45499,0.24359
102.21392,0.24093
101.97285,0.23857
101.73177,0.23603
101.49070,0.23399
101.24963,0.23169
101.00856,0.22779
100.76749,0.22264
100.52642,0.21779
100.28535,0.21360
100.04428,0.20919
99.80321,0.20441
99.56214,0.20046
99.32107,0.19826
99.08000,0.19735
98.83893,0.19678
98.59786,0.19619
98.35679,0.19554
98.11572,0.19474
97.87465,0.19406
97.63358,0.19411
97.39250,0.19520
97.15143,0.19725
96.91036,0.19977
96.66929,0.20177
96.42822,0.20262
96.18715,0.20343
95.94608,0.20657
95.70501,0.21322
95.46394,0.22206
95.22287,0.23023
94.98180,0.23581
94.74073,0.23925
94.49966,0.24174
94.25859,0.24306
94.01752,0.24242
93.77645,0.24050
93.53538,0.23937
93.29431,0.24078
93.05323,0.24451
92.81216,0.24770
92.57109,0.24721
92.33002,0.24352
92.08895,0.24071
91.84788,0.24228
91.60681,0.24856
91.36574,0.25739
91.12467,0.26606
90.88360,0.27411
90.64253,0.28473
90.40146,0.30167
90.16039,0.32512
89.91932,0.35275
89.67825,0.38382
89.43718,0.41973
89.19611,0.46023
88.95504,0.50088
88.71396,0.53489
88.47289,0.55627
88.23182,0.56216
87.99075,0.55422
87.74968,0.53673
87.50861,0.51246
87.26754,0.48318
87.02647,0.45263
86.78540,0.42445
86.54433,0.39829
86.30326,0.37190
86.06219,0.34542
85.82112,0.32063
85.58005,0.29833
85.33898,0.27879
85.09791,0.26257
84.85684,0.24944
84.61577,0.23807
84.37469,0.22737
84.13362,0.21708
83.89255,0.20736
83.65148,0.19823
83.41041,0.18913
83.16934,0.17941
82.92827,0.16999
82.68720,0.16291
82.44613,0.15861
82.20506,0.15539
81.96399,0.15207
81.72292,0.14893
81.48185,0.14658
81.24078,0.14506
80.99971,0.14361
80.75864,0.14072
80.51757,0.13561
80.27650,0.13035
80.03542,0.12843
79.79435,0.13036
79.55328,0.13241
79.31221,0.13087
79.07114,0.12638
78.83007,0.12245
78.58900,0.12089
78.34793,0.12027
78.10686,0.11833
77.86579,0.11418
77.62472,0.10880
77.38365,0.10457
77.14258,0.10346
76.90151,0.10491
76.66044,0.10639
76.41937,0.10611
76.17830,0.10438
75.93723,0.10216
75.69615,0.09951
75.45508,0.09633
75.21401,0.09355
74.97294,0.09203
74.73187,0.09128
74.49080,0.09070
74.24973,0.09083
74.00866,0.09202
73.76759,0.09325
73.52652,0.09384
73.28545,0.09452
73.04438,0.09604
72.80331,0.09769
72.56224,0.09806
72.32117,0.09681
72.08010,0.09529
71.83903,0.09514
71.59796,0.09665
71.35688,0.09898
71.11581,0.10138
70.87474,0.10367
70.63367,0.10660
70.39260,0.11141
70.15153,0.11823
69.91046,0.12590
69.66939,0.13337
69.42832,0.13987
69.18725,0.14427
68.94618,0.14628
68.70511,0.14653
68.46404,0.14439
68.22297,0.13829
67.98190,0.12896
67.74083,0.11922
67.49976,0.11066
67.25869,0.10287
67.01761,0.09594
66.77654,0.09125
66.53547,0.08902
66.29440,0.08682
66.05333,0.08227
65.81226,0.07649
65.57119,0.07295
65.33012,0.07391
65.08905,0.07907
64.84798,0.08653
64.60691,0.09409
64.36584,0.10003
64.12477,0.10371
63.88370,0.10528
63.64263,0.10527
63.40156,0.10457
63.16049,0.10353
62.91942,0.10134
62.67834,0.09754
62.43727,0.09315
62.19620,0.08938
61.95513,0.08598
61.71406,0.08183
61.47299,0.07668
61.23192,0.07134
60.99085,0.06650
60.74978,0.06257
60.50871,0.06046
60.26764,0.06095
60.02657,0.06358
59.78550,0.06728
59.54443,0.07131
59.30336,0.07477
59.06229,0.07603
58.82122,0.07379
58.58015,0.06896
58.33907,0.06439
58.09800,0.06183
57.85693,0.05989
57.61586,0.05609
57.37479,0.05084
57.13372,0.04746
56.89265,0.04808
56.65158,0.05132
56.41051,0.05479
56.16944,0.05743
55.92837,0.05915
55.68730,0.06002
55.44623,0.05999
55.20516,0.05901
54.96409,0.05816
54.72302,0.05980
54.48195,0.06412
54.24088,0.06718
53.99980,0.06593
53.75873,0.06279
53.51766,0.06193
53.27659,0.06340
53.03552,0.06459
52.79445,0.06418
52.55338,0.06205
52.31231,0.05833
52.07124,0.05405
51.83017,0.05064
51.58910,0.04904
51.34803,0.05023
51.10696,0.05469
50.86589,0.06035
50.62482,0.06337
50.38375,0.06171
50.14268,0.05614
49.90161,0.04853
49.66053,0.04136
49.41946,0.03740
49.17839,0.03850
48.93732,0.04393
48.69625,0.05042
48.45518,0.05426
48.21411,0.05305
47.97304,0.04590
47.73197,0.03402
47.49090,0.02222
47.24983,0.01692
47.00876,0.01930
46.76769,0.02282
46.52662,0.02071
46.28555,0.01304
46.04448,0.00494
45.80341,0.00069
45.56234,0.00071
45.32126,0.00330
45.08019,0.00717
44.83912,0.01209
44.59805,0.01731
44.35698,0.02139
44.11591,0.02499
43.87484,0.02997
43.63377,0.03475
43.39270,0.03440
43.15163,0.02669
42.91056,0.01674
42.66949,0.01258
42.42842,0.01510
42.18735,0.01698
41.94628,0.01252
41.70521,0.00378
41.46414,-0.00265
41.22307,-0.00153
40.98199,0.00736
40.74092,0.01785
40.49985,0.02101
40.25878,0.01296
40.01771,0.00117
39.77664,-0.00055
39.53557,0.01336
39.29450,0.03543
39.05343,0.05300
38.81236,0.05826
38.57129,0.05525
38.33022,0.05520
38.08915,0.06322
37.84808,0.07131
37.60701,0.06703
37.36594,0.05107
37.12487,0.03768
36.88380,0.03696
36.64272,0.04545
36.40165,0.05215
36.16058,0.05220
35.91951,0.05225
35.67844,0.06139
35.43737,0.07796
35.19630,0.09107
34.95523,0.09130
34.71416,0.07659
34.47309,0.05350
34.23202,0.03178
33.99095,0.01686
33.74988,0.00742
33.50881,-0.00208
33.26774,-0.01047
33.02667,-0.00361
32.78560,0.02683
32.54453,0.06411
32.30345,0.08034
32.06238,0.07365
31.82131,0.06376
31.58024,0.05589
31.33917,0.03955
31.09810,0.01347
30.85703,-0.00581
30.61596,-0.00840
30.37489,-0.00052
30.13382,0.01255
29.89275,0.02733
29.65168,0.03298
29.41061,0.02045
29.16954,-0.00032
28.92847,-0.00654
28.68740,0.01159
28.44633,0.03737
28.20526,0.05538
27.96418,0.08433
27.72311,0.13030
27.48204,0.14755
27.24097,0.10665
26.99990,0.04168
26.75883,-0.00120
26.51776,-0.01456
26.27669,-0.01429
26.03562,-0.00139
25.79455,0.03808
25.55348,0.09360
25.31241,0.12474
25.07134,0.10896
24.83027,0.08190
24.58920,0.10428
24.34813,0.17625
24.10706,0.21052
23.86599,0.14464
23.62491,0.03613
23.38384,-0.03724
23.14277,-0.05148
22.90170,-0.01968
22.66063,0.05460
22.41956,0.16343
22.17849,0.26148
21.93742,0.29517
21.69635,0.29483
21.45528,0.29934
21.21421,0.33884
20.97314,0.40872
20.73207,0.43623
20.49100,0.37364
20.24993,0.27471
20.00886,0.19871
19.76779,0.17679
19.52672,0.22009
19.28564,0.33598
19.04457,0.46629
18.80350,0.47542
18.56243,0.34419
18.32136,0.29289
18.08029,0.35917
17.83922,0.51303
17.59815,0.72616
17.35708,0.87442
17.11601,0.77366
16.87494,0.72187
16.63387,0.73986
16.39280,0.65201
16.15173,0.54580
15.91066,0.52126
15.66959,0.47514
15.42852,0.43476
15.18745,0.51063
14.94637,0.63901
14.70530,0.68917
14.46423,0.77704
14.22316,0.89953
13.98209,0.74011
13.74102,0.65032
13.49995,0.70608
13.25888,0.71758
13.01781,0.78092
12.77674,0.93248
12.53567,0.93311
12.29460,0.74321
12.05353,0.66186
11.81246,0.73463
11.57139,0.76419
11.33032,0.59010
11.08925,0.43492
10.84818,0.36997
10.60710,0.39452
10.36603,0.47056
10.12496,0.54777
9.88389,0.63939
9.64282,0.72017
9.40175,0.78775
9.16068,0.88294
8.91961,0.85951
8.67854,0.71951
8.43747,0.65768
8.19640,0.65479
7.95533,0.64020
7.71426,0.67676
7.47319,0.77938
7.23212,0.81880
6.99105,0.89177
6.74998,1.15070
6.50891,1.14201
6.26783,0.96033
6.02676,0.93475
5.78569,0.72055
5.54462,0.53036
5.30355,0.52674
5.06248,0.63913
4.82141,0.84579
4.58034,0.91357
4.33927,0.64430
4.09820,0.52911
3.85713,0.58240
3.61606,0.84426
3.37499,1.41220
3.13392,1.73134
2.89285,1.12118
2.65178,0.72842
2.41071,0.59990
2.16964,0.61774
1.92856,0.71166
1.68749,0.73130
1.44642,0.66085
1.20535,0.61594
0.96428,0.60034
0.72321,0.55488
0.48214,0.53272
0.24107,0.56521
-0.00000,0.50313
