399.69498,1.58632
399.45391,1.58428
399.21284,1.57825
398.97177,1.57246
398.73070,1.57450
398.48963,1.58762
398.24856,1.60009
398.00749,1.59598
397.76642,1.58144
397.52535,1.57911
397.28428,1.59788
397.04321,1.62132
396.80214,1.62712
396.56107,1.61241
396.32000,1.59165
396.07892,1.57761
395.83785,1.57117
395.59678,1.56733
395.35571,1.56775
395.11464,1.57509
394.87357,1.58393
394.63250,1.58478
394.39143,1.57152
394.15036,1.55270
393.90929,1.54600
393.66822,1.55950
393.42715,1.58075
393.18608,1.58638
392.94501,1.57139
392.70394,1.55695
392.46287,1.56111
392.22180,1.57928
391.98073,1.59310
391.73965,1.58796
391.49858,1.56436
391.25751,1.54022
391.01644,1.52902
390.77537,1.52353
390.53430,1.51073
390.29323,1.49059
390.05216,1.47604
389.81109,1.47743
389.57002,1.49241
389.32895,1.51051
389.08788,1.52009
388.84681,1.51791
388.60574,1.51423
388.36467,1.51724
388.12360,1.51823
387.88253,1.50453
387.64146,1.48082
387.40038,1.46250
387.15931,1.45728
386.91824,1.46014
386.67717,1.46048
386.43610,1.45362
386.19503,1.44418
385.95396,1.43388
385.71289,1.41843
385.47182,1.40154
385.23075,1.39482
384.98968,1.40493
384.74861,1.42625
384.50754,1.44089
384.26647,1.43777
384.02540,1.42011
383.78433,1.39406
383.54326,1.37121
383.30219,1.36137
383.06111,1.36231
382.82004,1.36509
382.57897,1.36124
382.33790,1.34441
382.09683,1.31551
381.85576,1.28426
381.61469,1.26303
381.37362,1.26026
381.13255,1.27438
380.89148,1.29657
380.65041,1.31826
380.40934,1.33441
380.16827,1.34305
379.92720,1.34440
379.68613,1.34082
379.44506,1.33459
379.20399,1.32796
378.96292,1.32366
378.72184,1.32424
378.48077,1.32934
378.23970,1.33347
377.99863,1.33671
377.75756,1.34696
377.51649,1.36488
377.27542,1.37660
377.03435,1.36764
376.79328,1.34694
376.55221,1.33688
376.31114,1.34430
376.07007,1.35616
375.82900,1.35994
375.58793,1.35666
375.34686,1.35708
375.10579,1.37124
374.86472,1.39580
374.62365,1.41682
374.38257,1.42512
374.14150,1.42511
373.90043,1.42718
373.65936,1.43644
373.41829,1.44974
373.17722,1.45574
372.93615,1.44523
372.69508,1.42545
372.45401,1.41350
372.21294,1.41691
371.97187,1.43052
371.73080,1.44729
371.48973,1.46133
371.24866,1.46356
371.00759,1.44868
370.76652,1.42616
370.52545,1.41002
370.28437,1.40130
370.04330,1.39119
369.80223,1.37862
369.56116,1.37432
369.32009,1.38630
369.07902,1.40979
368.83795,1.43153
368.59688,1.44060
368.35581,1.43645
368.11474,1.42724
367.87367,1.42081
367.63260,1.41929
367.39153,1.41870
367.15046,1.41272
366.90939,1.40079
366.66832,1.39115
366.42725,1.39036
366.18618,1.39189
365.94510,1.38531
365.70403,1.37354
365.46296,1.36747
365.22189,1.36938
364.98082,1.37229
364.73975,1.36954
364.49868,1.35683
364.25761,1.33558
364.01654,1.31778
363.77547,1.31442
363.53440,1.32400
363.29333,1.33793
363.05226,1.34887
362.81119,1.35334
362.57012,1.35088
362.32905,1.34293
362.08798,1.33275
361.84691,1.32389
361.60583,1.31804
361.36476,1.31377
361.12369,1.31011
360.88262,1.30892
360.64155,1.30971
360.40048,1.30765
360.15941,1.30132
359.91834,1.29588
359.67727,1.29612
359.43620,1.30155
359.19513,1.30644
358.95406,1.30576
358.71299,1.30126
358.47192,1.29696
358.23085,1.29217
357.98978,1.28629
357.74871,1.28561
357.50764,1.29573
357.26656,1.30865
357.02549,1.30920
356.78442,1.29765
356.54335,1.28950
356.30228,1.29226
356.06121,1.29765
355.82014,1.29633
355.57907,1.29145
355.33800,1.29138
355.09693,1.29766
354.85586,1.30462
354.61479,1.30398
354.37372,1.29108
354.13265,1.27098
353.89158,1.25542
353.65051,1.25179
353.40944,1.25736
353.16837,1.26548
352.92729,1.27541
352.68622,1.28931
352.44515,1.30202
352.20408,1.30371
351.96301,1.29117
351.72194,1.27028
351.48087,1.24968
351.23980,1.23759
350.99873,1.23989
350.75766,1.25462
350.51659,1.27054
350.27552,1.27751
350.03445,1.27784
349.79338,1.28035
349.55231,1.28780
349.31124,1.29756
349.07017,1.30662
348.82910,1.31142
348.58802,1.31004
348.34695,1.30397
348.10588,1.29700
347.86481,1.29383
347.62374,1.29851
347.38267,1.31179
347.14160,1.32729
346.90053,1.33278
346.65946,1.32169
346.41839,1.30372
346.17732,1.29617
345.93625,1.30709
345.69518,1.33062
345.45411,1.35393
345.21304,1.36794
344.97197,1.37128
344.73090,1.36796
344.48983,1.36643
344.24875,1.37260
344.00768,1.38178
343.76661,1.38356
343.52554,1.37745
343.28447,1.37578
343.04340,1.38499
342.80233,1.39453
342.56126,1.38975
342.32019,1.37130
342.07912,1.35602
341.83805,1.35848
341.59698,1.37562
341.35591,1.38958
341.11484,1.38908
340.87377,1.38145
340.63270,1.37604
340.39163,1.36989
340.15056,1.35865
339.90948,1.34856
339.66841,1.34725
339.42734,1.35669
339.18627,1.37653
338.94520,1.40201
338.70413,1.42068
338.46306,1.42373
338.22199,1.41801
337.98092,1.41107
337.73985,1.40353
337.49878,1.39590
337.25771,1.38780
337.01664,1.37938
336.77557,1.37687
336.53450,1.38717
336.29343,1.40731
336.05236,1.42762
335.81129,1.44423
335.57021,1.45818
335.32914,1.46487
335.08807,1.45833
334.84700,1.44520
334.60593,1.43784
334.36486,1.43764
334.12379,1.43484
333.88272,1.42118
333.64165,1.40309
333.40058,1.39193
333.15951,1.38534
332.91844,1.37225
332.67737,1.35182
332.43630,1.33529
332.19523,1.32909
331.95416,1.32996
331.71309,1.33317
331.47202,1.33696
331.23094,1.34313
330.98987,1.35069
330.74880,1.35253
330.50773,1.34427
330.26666,1.33198
330.02559,1.32633
329.78452,1.33050
329.54345,1.33804
329.30238,1.34433
329.06131,1.34970
328.82024,1.35099
328.57917,1.34820
328.33810,1.34521
328.09703,1.34360
327.85596,1.34883
327.61489,1.36523
327.37382,1.38189
327.13275,1.38200
326.89167,1.36670
326.65060,1.34849
326.40953,1.33319
326.16846,1.32210
325.92739,1.31978
325.68632,1.32931
325.44525,1.34195
325.20418,1.34192
324.96311,1.32657
324.72204,1.30796
324.48097,1.29404
324.23990,1.28498
323.99883,1.28366
323.75776,1.29451
323.51669,1.31369
323.27562,1.33417
323.03455,1.35646
322.79348,1.38061
322.55240,1.39516
322.31133,1.39010
322.07026,1.37109
321.82919,1.34582
321.58812,1.31870
321.34705,1.30153
321.10598,1.30777
320.86491,1.33441
320.62384,1.35997
320.38277,1.36846
320.14170,1.36946
319.90063,1.37684
319.65956,1.38437
319.41849,1.38169
319.17742,1.37411
318.93635,1.37066
318.69528,1.37065
318.45421,1.37010
318.21313,1.37039
317.97206,1.37276
317.73099,1.37367
317.48992,1.36971
317.24885,1.35795
317.00778,1.33622
316.76671,1.31178
316.52564,1.29849
316.28457,1.30044
316.04350,1.30848
315.80243,1.31436
315.56136,1.31910
315.32029,1.32546
315.07922,1.33455
314.83815,1.35282
314.59708,1.38333
314.35601,1.40762
314.11494,1.40254
313.87386,1.37565
313.63279,1.35235
313.39172,1.34165
313.15065,1.33636
312.90958,1.33307
312.66851,1.33912
312.42744,1.35985
312.18637,1.38568
311.94530,1.40267
311.70423,1.41357
311.46316,1.42607
311.22209,1.43631
310.98102,1.43739
310.73995,1.43076
310.49888,1.42083
310.25781,1.40936
310.01674,1.39734
309.77567,1.38682
309.53459,1.38394
309.29352,1.39589
309.05245,1.41860
308.81138,1.43594
308.57031,1.43867
308.32924,1.43079
308.08817,1.41643
307.84710,1.40301
307.60603,1.39892
307.36496,1.40322
307.12389,1.41155
306.88282,1.42535
306.64175,1.44062
306.40068,1.44335
306.15961,1.43164
305.91854,1.41632
305.67747,1.40720
305.43640,1.40718
305.19532,1.41254
304.95425,1.41818
304.71318,1.41909
304.47211,1.41206
304.23104,1.39840
303.98997,1.38697
303.74890,1.38750
303.50783,1.39836
303.26676,1.40563
303.02569,1.39788
302.78462,1.38185
302.54355,1.37098
302.30248,1.36922
302.06141,1.37313
301.82034,1.37651
301.57927,1.37238
301.33820,1.35710
301.09713,1.33401
300.85605,1.31161
300.61498,1.29904
300.37391,1.30164
300.13284,1.31584
299.89177,1.32822
299.65070,1.32655
299.40963,1.31288
299.16856,1.29906
298.92749,1.29224
298.68642,1.28943
298.44535,1.28587
298.20428,1.28243
297.96321,1.27996
297.72214,1.27423
297.48107,1.26439
297.24000,1.25925
296.99893,1.26628
296.75786,1.27937
296.51678,1.28362
296.27571,1.27329
296.03464,1.25886
295.79357,1.25231
295.55250,1.25534
295.31143,1.26218
295.07036,1.26561
294.82929,1.26054
294.58822,1.24728
294.34715,1.23154
294.10608,1.21844
293.86501,1.20889
293.62394,1.20168
293.38287,1.19656
293.14180,1.19472
292.90073,1.19661
292.65966,1.20213
292.41859,1.21010
292.17751,1.21579
291.93644,1.21539
291.69537,1.21121
291.45430,1.20772
291.21323,1.20537
290.97216,1.20023
290.73109,1.19046
290.49002,1.18001
290.24895,1.17454
290.00788,1.17633
289.76681,1.18262
289.52574,1.18815
289.28467,1.19000
289.04360,1.19040
288.80253,1.19239
288.56146,1.19302
288.32039,1.18680
288.07932,1.17549
287.83824,1.16779
287.59717,1.16769
287.35610,1.16963
287.11503,1.16817
286.87396,1.16722
286.63289,1.17290
286.39182,1.18152
286.15075,1.18300
285.90968,1.17545
285.66861,1.16676
285.42754,1.16238
285.18647,1.16049
284.94540,1.15850
284.70433,1.15725
284.46326,1.15777
284.22219,1.15868
283.98112,1.15821
283.74005,1.15707
283.49897,1.15853
283.25790,1.16478
283.01683,1.17248
282.77576,1.17388
282.53469,1.16590
282.29362,1.15569
282.05255,1.15290
281.81148,1.15876
281.57041,1.16619
281.32934,1.16947
281.08827,1.16920
280.84720,1.16753
280.60613,1.16432
280.36506,1.16080
280.12399,1.16117
279.88292,1.16669
279.64185,1.17226
279.40078,1.17221
279.15970,1.16737
278.91863,1.16251
278.67756,1.15974
278.43649,1.15825
278.19542,1.15726
277.95435,1.15613
277.71328,1.15401
277.47221,1.15022
277.23114,1.14472
276.99007,1.13940
276.74900,1.13770
276.50793,1.14112
276.26686,1.14743
276.02579,1.15317
275.78472,1.15602
275.54365,1.15512
275.30258,1.15222
275.06151,1.15123
274.82043,1.15380
274.57936,1.15810
274.33829,1.16243
274.09722,1.16576
273.85615,1.16652
273.61508,1.16558
273.37401,1.16617
273.13294,1.16806
272.89187,1.16772
272.65080,1.16479
272.40973,1.16288
272.16866,1.16493
271.92759,1.17089
271.68652,1.17716
271.44545,1.17882
271.20438,1.17628
270.96331,1.17591
270.72224,1.18030
270.48116,1.18420
270.24009,1.18409
269.99902,1.18435
269.75795,1.18906
269.51688,1.19568
269.27581,1.19989
269.03474,1.20147
268.79367,1.20357
268.55260,1.20816
268.31153,1.21419
268.07046,1.21931
267.82939,1.22301
267.58832,1.22763
267.34725,1.23508
267.10618,1.24423
266.86511,1.25241
266.62404,1.25864
266.38297,1.26407
266.14189,1.26979
265.90082,1.27539
265.65975,1.27954
265.41868,1.28203
265.17761,1.28456
264.93654,1.28809
264.69547,1.29232
264.45440,1.29762
264.21333,1.30515
263.97226,1.31585
263.73119,1.32976
263.49012,1.34625
263.24905,1.36516
263.00798,1.38565
262.76691,1.40456
262.52584,1.42016
262.28477,1.43533
262.04370,1.45190
261.80262,1.46515
261.56155,1.47195
261.32048,1.48000
261.07941,1.49928
260.83834,1.52989
260.59727,1.56209
260.35620,1.58767
260.11513,1.60741
259.87406,1.62379
259.63299,1.63590
259.39192,1.64467
259.15085,1.65926
258.90978,1.69098
258.66871,1.73557
258.42764,1.77959
258.18657,1.82104
257.94550,1.86216
257.70443,1.90024
257.46335,1.92343
257.22228,1.92909
256.98121,1.95339
256.74014,2.01577
256.49907,2.07810
256.25800,2.07862
256.01693,2.01396
255.77586,1.93652
255.53479,1.88219
255.29372,1.85568
255.05265,1.84297
254.81158,1.82427
254.57051,1.79254
254.32944,1.76068
254.08837,1.74214
253.84730,1.73038
253.60623,1.71127
253.36516,1.68642
253.12408,1.66922
252.88301,1.66735
252.64194,1.67472
252.40087,1.67817
252.15980,1.67206
251.91873,1.66256
251.67766,1.65382
251.43659,1.64349
251.19552,1.63210
250.95445,1.62632
250.71338,1.62855
250.47231,1.62735
250.23124,1.61560
249.99017,1.60584
249.74910,1.61154
249.50803,1.62903
249.26696,1.64468
249.02589,1.64902
248.78481,1.63967
248.54374,1.62226
248.30267,1.61035
248.06160,1.61381
247.82053,1.62611
247.57946,1.62897
247.33839,1.61495
247.09732,1.59908
246.85625,1.60068
246.61518,1.62121
246.37411,1.64549
246.13304,1.66181
245.89197,1.67213
245.65090,1.68196
245.40983,1.69677
245.16876,1.72745
244.92769,1.77335
244.68661,1.80411
244.44554,1.79817
244.20447,1.78676
243.96340,1.81647
243.72233,1.91001
243.48126,2.05238
243.24019,2.17438
242.99912,2.17438
242.75805,2.05660
242.51698,1.95021
242.27591,1.83673
242.03484,1.72007
241.79377,1.62920
241.55270,1.57286
241.31163,1.53796
241.07056,1.50432
240.82949,1.46266
240.58842,1.41702
240.34734,1.37197
240.10627,1.32754
239.86520,1.28338
239.62413,1.24312
239.38306,1.21085
239.14199,1.18663
238.90092,1.16689
238.65985,1.14865
238.41878,1.13316
238.17771,1.12239
237.93664,1.11314
237.69557,1.09892
237.45450,1.07698
237.21343,1.05150
236.97236,1.03000
236.73129,1.01731
236.49022,1.01165
236.24915,1.00653
236.00807,0.99761
235.76700,0.98552
235.52593,0.97227
235.28486,0.95957
235.04379,0.95007
234.80272,0.94608
234.56165,0.94648
234.32058,0.94747
234.07951,0.94693
233.83844,0.94559
233.59737,0.94308
233.35630,0.93727
233.11523,0.92846
232.87416,0.92012
232.63309,0.91461
232.39202,0.91063
232.15095,0.90524
231.90988,0.89759
231.66880,0.89098
231.42773,0.88967
231.18666,0.89279
230.94559,0.89438
230.70452,0.89108
230.46345,0.88529
230.22238,0.88010
229.98131,0.87655
229.74024,0.87442
229.49917,0.87256
229.25810,0.87086
229.01703,0.87169
228.77596,0.87602
228.53489,0.87975
228.29382,0.87796
228.05275,0.87117
227.81168,0.86431
227.57061,0.86026
227.32953,0.85746
227.08846,0.85367
226.84739,0.84872
226.60632,0.84414
226.36525,0.84198
226.12418,0.84327
225.88311,0.84661
225.64204,0.84894
225.40097,0.84878
225.15990,0.84733
224.91883,0.84602
224.67776,0.84531
224.43669,0.84576
224.19562,0.84773
223.95455,0.85069
223.71348,0.85415
223.47241,0.85785
223.23134,0.86055
222.99026,0.86053
222.74919,0.85834
222.50812,0.85742
222.26705,0.86069
222.02598,0.86722
221.78491,0.87328
221.54384,0.87699
221.30277,0.87996
221.06170,0.88368
220.82063,0.88803
220.57956,0.89389
220.33849,0.90304
220.09742,0.91475
219.85635,0.92579
219.61528,0.93383
219.37421,0.93871
219.13314,0.94141
218.89207,0.94357
218.65099,0.94762
218.40992,0.95582
218.16885,0.96863
217.92778,0.98456
217.68671,1.00224
217.44564,1.02105
217.20457,1.03895
216.96350,1.05312
216.72243,1.06409
216.48136,1.07474
216.24029,1.08368
215.99922,1.08580
215.75815,1.08175
215.51708,1.08045
215.27601,1.08918
215.03494,1.10621
214.79387,1.12467
214.55280,1.14106
214.31172,1.15614
214.07065,1.16864
213.82958,1.17442
213.58851,1.17371
213.34744,1.17360
213.10637,1.18071
212.86530,1.19500
212.62423,1.21088
212.38316,1.22146
212.14209,1.22272
211.90102,1.21759
211.65995,1.21365
211.41888,1.21521
211.17781,1.22182
210.93674,1.23374
210.69567,1.25138
210.45460,1.26853
210.21353,1.27386
209.97245,1.26325
209.73138,1.24452
209.49031,1.22599
209.24924,1.20952
209.00817,1.19656
208.76710,1.19207
208.52603,1.19815
208.28496,1.20809
208.04389,1.21080
207.80282,1.20152
207.56175,1.18461
207.32068,1.16726
207.07961,1.15490
206.83854,1.15109
206.59747,1.15605
206.35640,1.16274
206.11533,1.15885
205.87426,1.13858
205.63318,1.10854
205.39211,1.08082
205.15104,1.06404
204.90997,1.05897
204.66890,1.05857
204.42783,1.05300
204.18676,1.03839
203.94569,1.02015
203.70462,1.00637
203.46355,1.00031
203.22248,0.99892
202.98141,0.99619
202.74034,0.98702
202.49927,0.97003
202.25820,0.94955
202.01713,0.93204
201.77606,0.92052
201.53499,0.91320
201.29391,0.90527
201.05284,0.89298
200.81177,0.87712
200.57070,0.86207
200.32963,0.85139
200.08856,0.84408
199.84749,0.83587
199.60642,0.82491
199.36535,0.81419
199.12428,0.80672
198.88321,0.80138
198.64214,0.79479
198.40107,0.78482
198.16000,0.77245
197.91893,0.76104
197.67786,0.75309
197.43679,0.74729
197.19572,0.73967
196.95464,0.72877
196.71357,0.71806
196.47250,0.71145
196.23143,0.70842
195.99036,0.70501
195.74929,0.69845
195.50822,0.68943
195.26715,0.68063
195.02608,0.67451
194.78501,0.67177
194.54394,0.67027
194.30287,0.66632
194.06180,0.65880
193.82073,0.65111
193.57966,0.64729
193.33859,0.64682
193.09752,0.64482
192.85645,0.63867
192.61537,0.63146
192.37430,0.62685
192.13323,0.62431
191.89216,0.62128
191.65109,0.61750
191.41002,0.61444
191.16895,0.61208
190.92788,0.60858
190.68681,0.60316
190.44574,0.59769
190.20467,0.59437
189.96360,0.59295
189.72253,0.59159
189.48146,0.58969
189.24039,0.58832
188.99932,0.58812
188.75825,0.58806
188.51718,0.58627
188.27610,0.58241
188.03503,0.57855
187.79396,0.57655
187.55289,0.57580
187.31182,0.57509
187.07075,0.57549
186.82968,0.57866
186.58861,0.58287
186.34754,0.58420
186.10647,0.58172
185.86540,0.57854
185.62433,0.57663
185.38326,0.57450
185.14219,0.57159
184.90112,0.57077
184.66005,0.57349
184.41898,0.57678
184.17791,0.57783
183.93683,0.57770
183.69576,0.57781
183.45469,0.57758
183.21362,0.57721
182.97255,0.57815
182.73148,0.58004
182.49041,0.58100
182.24934,0.58113
182.00827,0.58200
181.76720,0.58372
181.52613,0.58568
181.28506,0.58811
181.04399,0.59033
180.80292,0.59031
180.56185,0.58835
180.32078,0.58747
180.07971,0.58886
179.83864,0.59135
179.59756,0.59502
179.35649,0.60124
179.11542,0.61009
178.87435,0.62063
178.63328,0.63145
178.39221,0.63997
178.15114,0.64526
177.91007,0.65055
177.66900,0.65912
177.42793,0.66987
177.18686,0.67962
176.94579,0.68778
176.70472,0.69647
176.46365,0.70730
176.22258,0.71925
175.98151,0.73097
175.74044,0.74417
175.49937,0.76121
175.25829,0.78047
175.01722,0.79913
174.77615,0.81851
174.53508,0.84097
174.29401,0.86427
174.05294,0.88401
173.81187,0.89856
173.57080,0.90797
173.32973,0.91249
173.08866,0.91443
172.84759,0.91823
172.60652,0.92634
172.36545,0.93572
172.12438,0.94136
171.88331,0.94286
171.64224,0.94346
171.40117,0.94334
171.16010,0.93976
170.91902,0.93325
170.67795,0.92750
170.43688,0.92366
170.19581,0.91997
169.95474,0.91631
169.71367,0.91486
169.47260,0.91578
169.23153,0.91598
168.99046,0.91280
168.74939,0.90666
168.50832,0.89980
168.26725,0.89385
168.02618,0.88878
167.78511,0.88428
167.54404,0.88146
167.30297,0.88177
167.06190,0.88457
166.82083,0.88797
166.57975,0.89186
166.33868,0.89700
166.09761,0.90229
165.85654,0.90596
165.61547,0.90766
165.37440,0.90802
165.13333,0.90851
164.89226,0.91191
164.65119,0.92018
164.41012,0.93166
164.16905,0.94222
163.92798,0.94901
163.68691,0.95254
163.44584,0.95573
163.20477,0.96140
162.96370,0.96948
162.72263,0.97696
162.48156,0.98114
162.24048,0.98272
161.99941,0.98440
161.75834,0.98666
161.51727,0.98727
161.27620,0.98614
161.03513,0.98756
160.79406,0.99501
160.55299,1.00608
160.31192,1.01434
160.07085,1.01537
159.82978,1.00903
159.58871,0.99722
159.34764,0.98286
159.10657,0.97035
158.86550,0.96318
158.62443,0.96163
158.38336,0.96374
158.14229,0.96636
157.90121,0.96520
157.66014,0.95720
157.41907,0.94353
157.17800,0.92883
156.93693,0.91815
156.69586,0.91509
156.45479,0.92013
156.21372,0.92878
155.97265,0.93270
155.73158,0.92558
155.49051,0.91005
155.24944,0.89492
155.00837,0.88555
154.76730,0.88097
154.52623,0.87670
154.28516,0.86849
154.04409,0.85489
153.80302,0.83673
153.56194,0.81578
153.32087,0.79545
153.07980,0.78028
152.83873,0.77158
152.59766,0.76470
152.35659,0.75343
152.11552,0.73681
151.87445,0.71870
151.63338,0.70235
151.39231,0.68884
151.15124,0.67858
150.91017,0.67032
150.66910,0.66036
150.42803,0.64628
150.18696,0.63081
149.94589,0.61836
149.70482,0.60966
149.46375,0.60248
149.22267,0.59574
148.98160,0.59043
148.74053,0.58681
148.49946,0.58301
148.25839,0.57722
148.01732,0.56984
147.77625,0.56273
147.53518,0.55699
147.29411,0.55260
147.05304,0.54986
146.81197,0.54930
146.57090,0.55082
146.32983,0.55387
146.08876,0.55804
145.84769,0.56259
145.60662,0.56622
145.36555,0.56863
145.12448,0.57153
144.88340,0.57649
144.64233,0.58265
144.40126,0.58798
144.16019,0.59154
143.91912,0.59356
143.67805,0.59442
143.43698,0.59411
143.19591,0.59178
142.95484,0.58626
142.71377,0.57809
142.47270,0.56934
142.23163,0.56094
141.99056,0.55213
141.74949,0.54301
141.50842,0.53508
141.26735,0.52884
141.02628,0.52284
140.78521,0.51616
140.54413,0.51076
140.30306,0.50942
140.06199,0.51151
139.82092,0.51319
139.57985,0.51273
139.33878,0.51290
139.09771,0.51673
138.85664,0.52347
138.61557,0.53063
138.37450,0.53795
138.13343,0.54673
137.89236,0.55670
137.65129,0.56629
137.41022,0.57519
137.16915,0.58477
136.92808,0.59660
136.68701,0.61207
136.44594,0.63142
136.20486,0.65228
135.96379,0.67135
135.72272,0.68846
135.48165,0.70656
135.24058,0.72847
134.99951,0.75550
134.75844,0.78688
134.51737,0.81925
134.27630,0.84947
134.03523,0.87788
133.79416,0.90642
133.55309,0.93493
133.31202,0.96133
133.07095,0.98461
132.82988,1.00663
132.58881,1.03090
132.34774,1.05816
132.10667,1.08313
131.86559,1.09924
131.62452,1.10463
131.38345,1.10161
131.14238,1.09394
130.90131,1.08460
130.66024,1.07476
130.41917,1.06484
130.17810,1.05416
129.93703,1.03887
129.69596,1.01425
129.45489,0.98212
129.21382,0.95054
128.97275,0.92344
128.73168,0.89665
128.49061,0.86594
128.24954,0.83353
128.00847,0.80384
127.76740,0.77706
127.52632,0.75002
127.28525,0.72150
127.04418,0.69359
126.80311,0.66827
126.56204,0.64554
126.32097,0.62483
126.07990,0.60612
125.83883,0.58893
125.59776,0.57216
125.35669,0.55546
125.11562,0.53960
124.87455,0.52554
124.63348,0.51402
124.39241,0.50543
124.15134,0.49898
123.91027,0.49261
123.66920,0.48466
123.42812,0.47581
123.18705,0.46838
122.94598,0.46362
122.70491,0.46073
122.46384,0.45871
122.22277,0.45753
121.98170,0.45704
121.74063,0.45649
121.49956,0.45591
121.25849,0.45637
121.01742,0.45866
120.77635,0.46329
120.53528,0.47128
120.29421,0.48327
120.05314,0.49801
119.81207,0.51304
119.57100,0.52678
119.32993,0.53983
119.08885,0.55400
118.84778,0.57046
118.60671,0.58897
118.36564,0.60946
118.12457,0.63335
117.88350,0.66162
117.64243,0.69235
117.40136,0.72226
117.16029,0.74971
116.91922,0.77404
116.67815,0.79327
116.43708,0.80433
116.19601,0.80433
115.95494,0.79204
115.71387,0.76963
115.47280,0.74320
115.23173,0.71932
114.99066,0.70135
114.74958,0.68982
114.50851,0.68368
114.26744,0.68077
114.02637,0.67930
113.78530,0.67834
113.54423,0.67557
113.30316,0.66766
113.06209,0.65587
112.82102,0.64762
112.57995,0.64860
112.33888,0.65629
112.09781,0.66439
111.85674,0.67131
111.61567,0.67916
111.37460,0.68673
111.13353,0.69013
110.89246,0.68886
110.65139,0.68524
110.41031,0.68024
110.16924,0.67392
109.92817,0.66754
109.68710,0.66251
109.44603,0.65816
109.20496,0.65180
108.96389,0.64060
108.72282,0.62271
108.48175,0.59925
108.24068,0.57485
107.99961,0.55427
107.75854,0.53947
107.51747,0.52913
107.27640,0.52012
107.03533,0.51030
106.79426,0.49985
106.55319,0.48912
106.31212,0.47629
106.07104,0.45993
105.82997,0.44268
105.58890,0.42915
105.34783,0.42125
105.10676,0.41720
104.86569,0.41343
104.62462,0.40571
104.38355,0.39133
104.14248,0.37304
103.90141,0.35779
103.66034,0.35016
103.41927,0.34924
103.17820,0.35092
102.93713,0.35079
102.69606,0.34541
102.45499,0.33412
102.21392,0.32063
101.97285,0.31131
101.73177,0.31012
101.49070,0.31434
101.24963,0.31623
101.00856,0.31057
100.76749,0.29971
100.52642,0.29005
100.28535,0.28640
100.04428,0.28901
99.80321,0.29314
99.56214,0.29285
99.32107,0.28700
99.08000,0.27991
98.83893,0.27619
98.59786,0.27611
98.35679,0.27555
98.11572,0.27150
97.87465,0.26704
97.63358,0.26728
97.39250,0.27232
97.15143,0.27656
96.91036,0.27523
96.66929,0.27125
96.42822,0.27218
96.18715,0.28113
95.94608,0.29300
95.70501,0.29981
95.46394,0.30033
95.22287,0.30120
94.98180,0.30766
94.74073,0.31615
94.49966,0.31867
94.25859,0.31567
94.01752,0.31594
93.77645,0.32268
93.53538,0.32900
93.29431,0.33063
93.05323,0.33329
92.81216,0.33935
92.57109,0.34091
92.33002,0.33380
92.08895,0.32762
91.84788,0.33078
91.60681,0.33855
91.36574,0.34338
91.12467,0.34774
90.88360,0.35742
90.64253,0.37308
90.40146,0.39558
90.16039,0.42749
89.91932,0.46537
89.67825,0.50290
89.43718,0.54198
89.19611,0.58701
88.95504,0.63417
88.71396,0.67633
88.47289,0.70817
88.23182,0.72283
87.99075,0.71768
87.74968,0.69724
87.50861,0.66486
87.26754,0.62328
87.02647,0.57961
86.78540,0.54047
86.54433,0.50718
86.30326,0.47857
86.06219,0.45329
85.82112,0.42911
85.58005,0.40388
85.33898,0.37761
85.09791,0.35278
84.85684,0.33198
84.61577,0.31489
84.37469,0.29894
84.13362,0.28371
83.89255,0.27185
83.65148,0.26459
83.41041,0.25932
83.16934,0.25312
82.92827,0.24595
82.68720,0.23927
82.44613,0.23374
82.20506,0.22945
81.96399,0.22653
81.72292,0.22398
81.48185,0.21977
81.24078,0.21355
80.99971,0.20793
80.75864,0.20558
80.51757,0.20631
80.27650,0.20767
80.03542,0.20759
79.79435,0.20582
79.55328,0.20324
79.31221,0.20042
79.07114,0.19781
78.83007,0.19622
78.58900,0.19586
78.34793,0.19562
78.10686,0.19455
77.86579,0.19289
77.62472,0.19087
77.38365,0.18768
77.14258,0.18281
76.90151,0.17772
76.66044,0.17483
76.41937,0.17504
76.17830,0.17699
75.93723,0.17828
75.69615,0.17686
75.45508,0.17202
75.21401,0.16486
74.97294,0.15789
74.73187,0.15364
74.49080,0.15330
74.24973,0.15581
74.00866,0.15855
73.76759,0.15956
73.52652,0.15906
73.28545,0.15853
73.04438,0.15950
72.80331,0.16350
72.56224,0.17098
72.32117,0.17961
72.08010,0.18502
71.83903,0.18467
71.59796,0.18024
71.35688,0.17560
71.11581,0.17339
70.87474,0.17423
70.63367,0.17757
70.39260,0.18286
70.15153,0.19080
69.91046,0.20371
69.66939,0.22288
69.42832,0.24502
69.18725,0.26260
68.94618,0.26859
68.70511,0.26146
68.46404,0.24517
68.22297,0.22545
67.98190,0.20636
67.74083,0.18970
67.49976,0.17641
67.25869,0.16736
67.01761,0.16227
66.77654,0.15892
66.53547,0.15420
66.29440,0.14684
66.05333,0.13874
65.81226,0.13364
65.57119,0.13455
65.33012,0.14202
65.08905,0.15421
64.84798,0.16833
64.60691,0.18150
64.36584,0.19112
64.12477,0.19604
63.88370,0.19740
63.64263,0.19695
63.40156,0.19533
63.16049,0.19279
62.91942,0.18985
62.67834,0.18665
62.43727,0.18275
62.19620,0.17801
61.95513,0.17289
61.71406,0.16839
61.47299,0.16554
61.23192,0.16435
60.99085,0.16383
60.74978,0.16298
60.50871,0.16091
60.26764,0.15663
60.02657,0.14955
59.78550,0.13968
59.54443,0.12752
59.30336,0.11493
59.06229,0.10499
58.82122,0.10010
58.58015,0.10072
58.33907,0.10702
58.09800,0.12118
57.85693,0.14557
57.61586,0.17748
57.37479,0.20535
57.13372,0.21278
56.89265,0.19383
56.65158,0.16014
56.41051,0.12794
56.16944,0.10774
55.92837,0.10306
55.68730,0.11218
55.44623,0.13083
55.20516,0.15376
54.96409,0.17304
54.72302,0.17895
54.48195,0.16914
54.24088,0.15117
53.99980,0.13317
53.75873,0.12160
53.51766,0.12353
53.27659,0.14415
53.03552,0.18141
52.79445,0.21790
52.55338,0.22130
52.31231,0.18523
52.07124,0.14259
51.83017,0.11922
51.58910,0.12520
51.34803,0.16270
51.10696,0.21340
50.86589,0.22287
50.62482,0.17452
50.38375,0.12440
50.14268,0.10543
49.90161,0.12469
49.66053,0.17703
49.41946,0.21864
49.17839,0.18820
48.93732,0.13377
48.69625,0.11495
48.45518,0.13881
48.21411,0.17330
47.97304,0.16571
47.73197,0.13043
47.49090,0.12330
47.24983,0.15843
47.00876,0.18495
46.76769,0.14831
46.52662,0.10981
46.28555,0.11487
46.04448,0.13570
45.80341,0.12614
45.56234,0.10724
45.32126,0.11168
45.08019,0.12365
44.83912,0.12007
44.59805,0.11667
44.35698,0.12798
44.11591,0.14067
43.87484,0.14484
43.63377,0.14379
43.39270,0.13665
43.15163,0.12732
42.91056,0.12610
42.66949,0.13166
42.42842,0.13566
42.18735,0.13859
41.94628,0.14351
41.70521,0.14935
41.46414,0.15445
41.22307,0.15633
40.98199,0.15385
40.74092,0.15151
40.49985,0.15407
40.25878,0.16215
40.01771,0.17321
39.77664,0.18197
39.53557,0.18742
39.29450,0.19735
39.05343,0.21615
38.81236,0.23709
38.57129,0.25297
38.33022,0.26585
38.08915,0.27892
37.84808,0.28672
37.60701,0.28264
37.36594,0.27009
37.12487,0.25677
36.88380,0.24503
36.64272,0.23575
36.40165,0.23268
36.16058,0.23668
35.91951,0.24165
35.67844,0.24103
35.43737,0.23486
35.19630,0.22811
34.95523,0.22394
34.71416,0.22116
34.47309,0.21973
34.23202,0.22295
33.99095,0.23059
33.74988,0.23626
33.50881,0.24040
33.26774,0.24873
33.02667,0.25461
32.78560,0.24745
32.54453,0.23152
32.30345,0.21840
32.06238,0.21241
31.82131,0.20983
31.58024,0.20431
31.33917,0.19163
31.09810,0.16919
30.85703,0.13581
30.61596,0.09921
30.37489,0.07598
30.13382,0.07470
29.89275,0.08880
29.65168,0.10870
29.41061,0.12739
29.16954,0.13896
28.92847,0.14006
28.68740,0.13132
28.44633,0.11999
28.20526,0.11448
27.96418,0.10938
27.72311,0.09119
27.48204,0.06471
27.24097,0.04651
26.99990,0.04119
26.75883,0.04702
26.51776,0.06559
26.27669,0.09370
26.03562,0.11335
25.79455,0.10331
25.55348,0.06460
25.31241,0.01797
25.07134,-0.02331
24.83027,-0.05601
24.58920,-0.07049
24.34813,-0.06724
24.10706,-0.06881
23.86599,-0.08707
23.62491,-0.11333
23.38384,-0.13545
23.14277,-0.15046
22.90170,-0.16412
22.66063,-0.17961
22.41956,-0.19030
22.17849,-0.18724
21.93742,-0.17205
21.69635,-0.15723
21.45528,-0.15482
21.21421,-0.16531
20.97314,-0.17128
20.73207,-0.15159
20.49100,-0.11761
20.24993,-0.09933
20.00886,-0.10969
19.76779,-0.14281
19.52672,-0.18110
19.28564,-0.21090
19.04457,-0.22851
18.80350,-0.23402
18.56243,-0.24129
18.32136,-0.24375
18.08029,-0.22159
17.83922,-0.19956
17.59815,-0.18973
17.35708,-0.19973
17.11601,-0.23070
16.87494,-0.26091
16.63387,-0.26085
16.39280,-0.23452
16.15173,-0.21283
15.91066,-0.21911
15.66959,-0.25515
15.42852,-0.29462
15.18745,-0.30362
14.94637,-0.27363
14.70530,-0.22508
14.46423,-0.18856
14.22316,-0.17881
13.98209,-0.18702
13.74102,-0.19693
13.49995,-0.20662
13.25888,-0.21834
13.01781,-0.22756
12.77674,-0.23339
12.53567,-0.23358
12.29460,-0.22474
12.05353,-0.20476
11.81246,-0.17457
11.57139,-0.15320
11.33032,-0.16721
11.08925,-0.21334
10.84818,-0.25570
10.60710,-0.26773
10.36603,-0.25624
10.12496,-0.24158
9.88389,-0.24030
9.64282,-0.25426
9.40175,-0.26864
9.16068,-0.27376
8.91961,-0.27207
8.67854,-0.26358
8.43747,-0.24864
8.19640,-0.23580
7.95533,-0.22917
7.71426,-0.23383
7.47319,-0.25636
7.23212,-0.28477
6.99105,-0.29358
6.74998,-0.28802
6.50891,-0.27049
6.26783,-0.25521
6.02676,-0.25712
5.78569,-0.27060
5.54462,-0.27711
5.30355,-0.26824
5.06248,-0.25549
4.82141,-0.24773
4.58034,-0.24057
4.33927,-0.22871
4.09820,-0.21544
3.85713,-0.20905
3.61606,-0.20925
3.37499,-0.20742
3.13392,-0.20532
2.89285,-0.21059
2.65178,-0.21315
2.41071,-0.20588
2.16964,-0.20294
1.92856,-0.20374
1.68749,-0.20199
1.44642,-0.20258
1.20535,-0.21402
0.96428,-0.24055
0.72321,-0.29466
0.48214,-0.39775
0.24107,-0.42226
-0.00000,-0.13676
