399.69498,1.52735
399.45391,1.54095
399.21284,1.54987
398.97177,1.54839
398.73070,1.53858
398.48963,1.53090
398.24856,1.53222
398.00749,1.53820
397.76642,1.54193
397.52535,1.54484
397.28428,1.54962
397.04321,1.54977
396.80214,1.53788
396.56107,1.51819
396.32000,1.50381
396.07892,1.50586
395.83785,1.52714
395.59678,1.56163
395.35571,1.59597
395.11464,1.61247
394.87357,1.60182
394.63250,1.57638
394.39143,1.55772
394.15036,1.55319
393.90929,1.55253
393.66822,1.54266
393.42715,1.52243
393.18608,1.50285
392.94501,1.49476
392.70394,1.49767
392.46287,1.50315
392.22180,1.50867
391.98073,1.51896
391.73965,1.53336
391.49858,1.53923
391.25751,1.52899
391.01644,1.51418
390.77537,1.50907
390.53430,1.51392
390.29323,1.51804
390.05216,1.51493
389.81109,1.50993
389.57002,1.51061
389.32895,1.51562
389.08788,1.51656
388.84681,1.50933
388.60574,1.49954
388.36467,1.49401
388.12360,1.49183
387.88253,1.49067
387.64146,1.49383
387.40038,1.50166
387.15931,1.50049
386.91824,1.47825
386.67717,1.44754
386.43610,1.42997
386.19503,1.42803
385.95396,1.42504
385.71289,1.40963
385.47182,1.39150
385.23075,1.38620
384.98968,1.39533
384.74861,1.40486
384.50754,1.39833
384.26647,1.37323
384.02540,1.34357
383.78433,1.32638
383.54326,1.32531
383.30219,1.32777
383.06111,1.32094
382.82004,1.30655
382.57897,1.29809
382.33790,1.30736
382.09683,1.33112
381.85576,1.34807
381.61469,1.34034
381.37362,1.31964
381.13255,1.31074
380.89148,1.31844
380.65041,1.32750
380.40934,1.32224
380.16827,1.29975
379.92720,1.27244
379.68613,1.25657
379.44506,1.25865
379.20399,1.27241
378.96292,1.28818
378.72184,1.30078
378.48077,1.30920
378.23970,1.31788
377.99863,1.33115
377.75756,1.34407
377.51649,1.34982
377.27542,1.35306
377.03435,1.36340
376.79328,1.37936
376.55221,1.38946
376.31114,1.38829
376.07007,1.38259
375.82900,1.37984
375.58793,1.38011
375.34686,1.37971
375.10579,1.37927
374.86472,1.38201
374.62365,1.38409
374.38257,1.37960
374.14150,1.37256
373.90043,1.37243
373.65936,1.38119
373.41829,1.39160
373.17722,1.39727
372.93615,1.39963
372.69508,1.40376
372.45401,1.41049
372.21294,1.41444
371.97187,1.41174
371.73080,1.40459
371.48973,1.39560
371.24866,1.38525
371.00759,1.37729
370.76652,1.37596
370.52545,1.37627
370.28437,1.36944
370.04330,1.35729
369.80223,1.34912
369.56116,1.34764
369.32009,1.34830
369.07902,1.34952
368.83795,1.35413
368.59688,1.36176
368.35581,1.36734
368.11474,1.36626
367.87367,1.35789
367.63260,1.34586
367.39153,1.33719
367.15046,1.33749
366.90939,1.34527
366.66832,1.35083
366.42725,1.34389
366.18618,1.32443
365.94510,1.30217
365.70403,1.28730
365.46296,1.28509
365.22189,1.29465
364.98082,1.30879
364.73975,1.31752
364.49868,1.31655
364.25761,1.31228
364.01654,1.31507
363.77547,1.32584
363.53440,1.33406
363.29333,1.33033
363.05226,1.31508
362.81119,1.29576
362.57012,1.28144
362.32905,1.27650
362.08798,1.27533
361.84691,1.26864
361.60583,1.25661
361.36476,1.24922
361.12369,1.25336
360.88262,1.26578
360.64155,1.27789
360.40048,1.28419
360.15941,1.28563
359.91834,1.28584
359.67727,1.28560
359.43620,1.28286
359.19513,1.27814
358.95406,1.27575
358.71299,1.27919
358.47192,1.28795
358.23085,1.29667
357.98978,1.29838
357.74871,1.29052
357.50764,1.27790
357.26656,1.26885
357.02549,1.26667
356.78442,1.26672
356.54335,1.26404
356.30228,1.26067
356.06121,1.26154
355.82014,1.26657
355.57907,1.26975
355.33800,1.26579
355.09693,1.25692
354.85586,1.25113
354.61479,1.25240
354.37372,1.25594
354.13265,1.25597
353.89158,1.25363
353.65051,1.25365
353.40944,1.25690
353.16837,1.25948
352.92729,1.25827
352.68622,1.25505
352.44515,1.25278
352.20408,1.25074
351.96301,1.24781
351.72194,1.24683
351.48087,1.25029
351.23980,1.25648
350.99873,1.26353
350.75766,1.27113
350.51659,1.27656
350.27552,1.27620
350.03445,1.27212
349.79338,1.27041
349.55231,1.27298
349.31124,1.27618
349.07017,1.27604
348.82910,1.27238
348.58802,1.26849
348.34695,1.26716
348.10588,1.26752
347.86481,1.26686
347.62374,1.26474
347.38267,1.26316
347.14160,1.26333
346.90053,1.26560
346.65946,1.27005
346.41839,1.27484
346.17732,1.27686
345.93625,1.27555
345.69518,1.27372
345.45411,1.27374
345.21304,1.27546
344.97197,1.27925
344.73090,1.28688
344.48983,1.29837
344.24875,1.30970
344.00768,1.31665
343.76661,1.31969
343.52554,1.32226
343.28447,1.32590
343.04340,1.32955
342.80233,1.33257
342.56126,1.33554
342.32019,1.33667
342.07912,1.33288
341.83805,1.32720
341.59698,1.32683
341.35591,1.33329
341.11484,1.33909
340.87377,1.33528
340.63270,1.32303
340.39163,1.31369
340.15056,1.31542
339.90948,1.32441
339.66841,1.33154
339.42734,1.33464
339.18627,1.33950
338.94520,1.35100
338.70413,1.36997
338.46306,1.39493
338.22199,1.42062
337.98092,1.43552
337.73985,1.42987
337.49878,1.40977
337.25771,1.39196
337.01664,1.38699
336.77557,1.39320
336.53450,1.40058
336.29343,1.39960
336.05236,1.39101
335.81129,1.38388
335.57021,1.38226
335.32914,1.38234
335.08807,1.38201
334.84700,1.38249
334.60593,1.38064
334.36486,1.37038
334.12379,1.35385
333.88272,1.34245
333.64165,1.34435
333.40058,1.35543
333.15951,1.36079
332.91844,1.34956
332.67737,1.33030
332.43630,1.32070
332.19523,1.32405
331.95416,1.32633
331.71309,1.31767
331.47202,1.30510
331.23094,1.29951
330.98987,1.30331
330.74880,1.31213
330.50773,1.32237
330.26666,1.33244
330.02559,1.33763
329.78452,1.33239
329.54345,1.31955
329.30238,1.30829
329.06131,1.30290
328.82024,1.29963
328.57917,1.29424
328.33810,1.28931
328.09703,1.29009
327.85596,1.29625
327.61489,1.30162
327.37382,1.30114
327.13275,1.29601
326.89167,1.28996
326.65060,1.28482
326.40953,1.28173
326.16846,1.28344
325.92739,1.29148
325.68632,1.30127
325.44525,1.30321
325.20418,1.29355
324.96311,1.28235
324.72204,1.28384
324.48097,1.29975
324.23990,1.31535
323.99883,1.31717
323.75776,1.31081
323.51669,1.30677
323.27562,1.30710
323.03455,1.31090
322.79348,1.31511
322.55240,1.31382
322.31133,1.30632
322.07026,1.29872
321.82919,1.29318
321.58812,1.28665
321.34705,1.27925
321.10598,1.27410
320.86491,1.27507
320.62384,1.28683
320.38277,1.30467
320.14170,1.31415
319.90063,1.31341
319.65956,1.31847
319.41849,1.33844
319.17742,1.36235
318.93635,1.37458
318.69528,1.37249
318.45421,1.36251
318.21313,1.35075
317.97206,1.34092
317.73099,1.33414
317.48992,1.33207
317.24885,1.33771
317.00778,1.34951
316.76671,1.35905
316.52564,1.35873
316.28457,1.34830
316.04350,1.33224
315.80243,1.31934
315.56136,1.31942
315.32029,1.33206
315.07922,1.34250
314.83815,1.33774
314.59708,1.32433
314.35601,1.31734
314.11494,1.31879
313.87386,1.31904
313.63279,1.31671
313.39172,1.31996
313.15065,1.33270
312.90958,1.34945
312.66851,1.36090
312.42744,1.36423
312.18637,1.36358
311.94530,1.36141
311.70423,1.35665
311.46316,1.34985
311.22209,1.34282
310.98102,1.33808
310.73995,1.34013
310.49888,1.35293
310.25781,1.37558
310.01674,1.40009
309.77567,1.41607
309.53459,1.42027
309.29352,1.41722
309.05245,1.40981
308.81138,1.39931
308.57031,1.39022
308.32924,1.38861
308.08817,1.39692
307.84710,1.41028
307.60603,1.41829
307.36496,1.41449
307.12389,1.40138
306.88282,1.38548
306.64175,1.37307
306.40068,1.36899
306.15961,1.37388
305.91854,1.38400
305.67747,1.39470
305.43640,1.40137
305.19532,1.40030
304.95425,1.39327
304.71318,1.38588
304.47211,1.38087
304.23104,1.37680
303.98997,1.37238
303.74890,1.36739
303.50783,1.36055
303.26676,1.34995
303.02569,1.33566
302.78462,1.32165
302.54355,1.31376
302.30248,1.31506
302.06141,1.32381
301.82034,1.33405
301.57927,1.33909
301.33820,1.33640
301.09713,1.32788
300.85605,1.31726
300.61498,1.30837
300.37391,1.30477
300.13284,1.30831
299.89177,1.31501
299.65070,1.31548
299.40963,1.30426
299.16856,1.28703
298.92749,1.27490
298.68642,1.27314
298.44535,1.27630
298.20428,1.27411
297.96321,1.26281
297.72214,1.24729
297.48107,1.23359
297.24000,1.22578
296.99893,1.22529
296.75786,1.22952
296.51678,1.23374
296.27571,1.23462
296.03464,1.23122
295.79357,1.22453
295.55250,1.21709
295.31143,1.21108
295.07036,1.20664
294.82929,1.20296
294.58822,1.20012
294.34715,1.19813
294.10608,1.19563
293.86501,1.19176
293.62394,1.18798
293.38287,1.18612
293.14180,1.18521
292.90073,1.18189
292.65966,1.17481
292.41859,1.16720
292.17751,1.16429
291.93644,1.16838
291.69537,1.17570
291.45430,1.17876
291.21323,1.17340
290.97216,1.16309
290.73109,1.15469
290.49002,1.15169
290.24895,1.15346
290.00788,1.15790
289.76681,1.16244
289.52574,1.16426
289.28467,1.16235
289.04360,1.15834
288.80253,1.15443
288.56146,1.15175
288.32039,1.15116
288.07932,1.15249
287.83824,1.15247
287.59717,1.14799
287.35610,1.14149
287.11503,1.13830
286.87396,1.13977
286.63289,1.14320
286.39182,1.14549
286.15075,1.14415
285.90968,1.13803
285.66861,1.12978
285.42754,1.12437
285.18647,1.12454
284.94540,1.12879
284.70433,1.13307
284.46326,1.13424
284.22219,1.13300
283.98112,1.13182
283.74005,1.13005
283.49897,1.12530
283.25790,1.11891
283.01683,1.11517
282.77576,1.11577
282.53469,1.11873
282.29362,1.12202
282.05255,1.12532
281.81148,1.12851
281.57041,1.13082
281.32934,1.13138
281.08827,1.13000
280.84720,1.12749
280.60613,1.12489
280.36506,1.12292
280.12399,1.12213
279.88292,1.12202
279.64185,1.12015
279.40078,1.11544
279.15970,1.11184
278.91863,1.11440
278.67756,1.12227
278.43649,1.12903
278.19542,1.13057
277.95435,1.12873
277.71328,1.12642
277.47221,1.12471
277.23114,1.12531
276.99007,1.12987
276.74900,1.13591
276.50793,1.13824
276.26686,1.13485
276.02579,1.12870
275.78472,1.12463
275.54365,1.12528
275.30258,1.12860
275.06151,1.13008
274.82043,1.12859
274.57936,1.12676
274.33829,1.12589
274.09722,1.12516
273.85615,1.12473
273.61508,1.12562
273.37401,1.12824
273.13294,1.13312
272.89187,1.14101
272.65080,1.15081
272.40973,1.15913
272.16866,1.16257
271.92759,1.16040
271.68652,1.15611
271.44545,1.15393
271.20438,1.15398
270.96331,1.15387
270.72224,1.15367
270.48116,1.15581
270.24009,1.16032
269.99902,1.16412
269.75795,1.16603
269.51688,1.16826
269.27581,1.17177
269.03474,1.17419
268.79367,1.17436
268.55260,1.17582
268.31153,1.18250
268.07046,1.19299
267.82939,1.20164
267.58832,1.20600
267.34725,1.20980
267.10618,1.21689
266.86511,1.22488
266.62404,1.22855
266.38297,1.22858
266.14189,1.23092
265.90082,1.23774
265.65975,1.24522
265.41868,1.25082
265.17761,1.25739
264.93654,1.26798
264.69547,1.28036
264.45440,1.28976
264.21333,1.29559
263.97226,1.30175
263.73119,1.31090
263.49012,1.32314
263.24905,1.33896
263.00798,1.35853
262.76691,1.37809
262.52584,1.39223
262.28477,1.40218
262.04370,1.41493
261.80262,1.43282
261.56155,1.45077
261.32048,1.46486
261.07941,1.47864
260.83834,1.49875
260.59727,1.52587
260.35620,1.55191
260.11513,1.56708
259.87406,1.57108
259.63299,1.57323
259.39192,1.58300
259.15085,1.60666
258.90978,1.64650
258.66871,1.69727
258.42764,1.74504
258.18657,1.77753
257.94550,1.79449
257.70443,1.79775
257.46335,1.79312
257.22228,1.78881
256.98121,1.78844
256.74014,1.79283
256.49907,1.79711
256.25800,1.79505
256.01693,1.79279
255.77586,1.79934
255.53479,1.80789
255.29372,1.80110
255.05265,1.77561
254.81158,1.74557
254.57051,1.71872
254.32944,1.68986
254.08837,1.65963
253.84730,1.64059
253.60623,1.63864
253.36516,1.64364
253.12408,1.64464
252.88301,1.64247
252.64194,1.64012
252.40087,1.63578
252.15980,1.63107
251.91873,1.63160
251.67766,1.63515
251.43659,1.63014
251.19552,1.61236
250.95445,1.59223
250.71338,1.58084
250.47231,1.57906
250.23124,1.58052
249.99017,1.57942
249.74910,1.57385
249.50803,1.56533
249.26696,1.55912
249.02589,1.56202
248.78481,1.57200
248.54374,1.57397
248.30267,1.55916
248.06160,1.54294
247.82053,1.54435
247.57946,1.55976
247.33839,1.57173
247.09732,1.57353
246.85625,1.57006
246.61518,1.56511
246.37411,1.56175
246.13304,1.56555
245.89197,1.57802
245.65090,1.59197
245.40983,1.60194
245.16876,1.61541
244.92769,1.64554
244.68661,1.69569
244.44554,1.75183
244.20447,1.79224
243.96340,1.81185
243.72233,1.82804
243.48126,1.85860
243.24019,1.90659
242.99912,1.95918
242.75805,1.99573
242.51698,1.99457
242.27591,1.94017
242.03484,1.84820
241.79377,1.74465
241.55270,1.65233
241.31163,1.58231
241.07056,1.52994
240.82949,1.48185
240.58842,1.42952
240.34734,1.37477
240.10627,1.32497
239.86520,1.28542
239.62413,1.25401
239.38306,1.22455
239.14199,1.19530
238.90092,1.16964
238.65985,1.14833
238.41878,1.12689
238.17771,1.10191
237.93664,1.07579
237.69557,1.05409
237.45450,1.04032
237.21343,1.03286
236.97236,1.02621
236.73129,1.01622
236.49022,1.00353
236.24915,0.99096
236.00807,0.97978
235.76700,0.96980
235.52593,0.96121
235.28486,0.95434
235.04379,0.94829
234.80272,0.94115
234.56165,0.93230
234.32058,0.92384
234.07951,0.91783
233.83844,0.91362
233.59737,0.90923
233.35630,0.90415
233.11523,0.89937
232.87416,0.89534
232.63309,0.89150
232.39202,0.88774
232.15095,0.88485
231.90988,0.88318
231.66880,0.88165
231.42773,0.87895
231.18666,0.87545
230.94559,0.87276
230.70452,0.87098
230.46345,0.86863
230.22238,0.86544
229.98131,0.86256
229.74024,0.85986
229.49917,0.85629
229.25810,0.85302
229.01703,0.85210
228.77596,0.85265
228.53489,0.85233
228.29382,0.85154
228.05275,0.85234
227.81168,0.85404
227.57061,0.85310
227.32953,0.84728
227.08846,0.83834
226.84739,0.83078
226.60632,0.82808
226.36525,0.82911
226.12418,0.82981
225.88311,0.82854
225.64204,0.82712
225.40097,0.82673
225.15990,0.82675
224.91883,0.82684
224.67776,0.82647
224.43669,0.82452
224.19562,0.82199
223.95455,0.82203
223.71348,0.82495
223.47241,0.82742
223.23134,0.82801
222.99026,0.82941
222.74919,0.83366
222.50812,0.83886
222.26705,0.84231
222.02598,0.84439
221.78491,0.84765
221.54384,0.85327
221.30277,0.86018
221.06170,0.86738
220.82063,0.87500
220.57956,0.88322
220.33849,0.89216
220.09742,0.90172
219.85635,0.91042
219.61528,0.91686
219.37421,0.92235
219.13314,0.92915
218.89207,0.93703
218.65099,0.94439
218.40992,0.95181
218.16885,0.96222
217.92778,0.97772
217.68671,0.99656
217.44564,1.01372
217.20457,1.02567
216.96350,1.03392
216.72243,1.04248
216.48136,1.05297
216.24029,1.06356
215.99922,1.07192
215.75815,1.07854
215.51708,1.08630
215.27601,1.09794
215.03494,1.11431
214.79387,1.13344
214.55280,1.15106
214.31172,1.16366
214.07065,1.17061
213.82958,1.17266
213.58851,1.17154
213.34744,1.17093
213.10637,1.17419
212.86530,1.18107
212.62423,1.18919
212.38316,1.19844
212.14209,1.21099
211.90102,1.22678
211.65995,1.24149
211.41888,1.24971
211.17781,1.24917
210.93674,1.24218
210.69567,1.23426
210.45460,1.23039
210.21353,1.23129
209.97245,1.23474
209.73138,1.23960
209.49031,1.24484
209.24924,1.24721
209.00817,1.24383
208.76710,1.23484
208.52603,1.22260
208.28496,1.21073
208.04389,1.20304
207.80282,1.20074
207.56175,1.20087
207.32068,1.19815
207.07961,1.18846
206.83854,1.17199
206.59747,1.15285
206.35640,1.13578
206.11533,1.12460
205.87426,1.12088
205.63318,1.12123
205.39211,1.11766
205.15104,1.10363
204.90997,1.08046
204.66890,1.05635
204.42783,1.03910
204.18676,1.03100
203.94569,1.02829
203.70462,1.02505
203.46355,1.01873
203.22248,1.01110
202.98141,1.00315
202.74034,0.99170
202.49927,0.97392
202.25820,0.95346
202.01713,0.93596
201.77606,0.92181
201.53499,0.90822
201.29391,0.89455
201.05284,0.88232
200.81177,0.87186
200.57070,0.86193
200.32963,0.85177
200.08856,0.84173
199.84749,0.83196
199.60642,0.82205
199.36535,0.81190
199.12428,0.80212
198.88321,0.79314
198.64214,0.78424
198.40107,0.77422
198.16000,0.76285
197.91893,0.75133
197.67786,0.74146
197.43679,0.73430
197.19572,0.72889
196.95464,0.72264
196.71357,0.71403
196.47250,0.70452
196.23143,0.69697
195.99036,0.69245
195.74929,0.68892
195.50822,0.68326
195.26715,0.67463
195.02608,0.66532
194.78501,0.65840
194.54394,0.65480
194.30287,0.65259
194.06180,0.64906
193.82073,0.64348
193.57966,0.63716
193.33859,0.63159
193.09752,0.62719
192.85645,0.62344
192.61537,0.61974
192.37430,0.61609
192.13323,0.61302
191.89216,0.61079
191.65109,0.60872
191.41002,0.60565
191.16895,0.60128
190.92788,0.59693
190.68681,0.59428
190.44574,0.59307
190.20467,0.59082
189.96360,0.58560
189.72253,0.57876
189.48146,0.57372
189.24039,0.57198
188.99932,0.57141
188.75825,0.56910
188.51718,0.56546
188.27610,0.56345
188.03503,0.56423
187.79396,0.56553
187.55289,0.56499
187.31182,0.56318
187.07075,0.56226
186.82968,0.56299
186.58861,0.56385
186.34754,0.56330
186.10647,0.56192
185.86540,0.56125
185.62433,0.56124
185.38326,0.56041
185.14219,0.55855
184.90112,0.55698
184.66005,0.55661
184.41898,0.55741
184.17791,0.55938
183.93683,0.56218
183.69576,0.56448
183.45469,0.56516
183.21362,0.56491
182.97255,0.56544
182.73148,0.56762
182.49041,0.57050
182.24934,0.57223
182.00827,0.57242
181.76720,0.57267
181.52613,0.57380
181.28506,0.57476
181.04399,0.57549
180.80292,0.57762
180.56185,0.58109
180.32078,0.58402
180.07971,0.58684
179.83864,0.59190
179.59756,0.59843
179.35649,0.60278
179.11542,0.60418
178.87435,0.60582
178.63328,0.61058
178.39221,0.61860
178.15114,0.62846
177.91007,0.63845
177.66900,0.64783
177.42793,0.65746
177.18686,0.66839
176.94579,0.68014
176.70472,0.69162
176.46365,0.70325
176.22258,0.71681
175.98151,0.73306
175.74044,0.75031
175.49937,0.76632
175.25829,0.78126
175.01722,0.79732
174.77615,0.81548
174.53508,0.83420
174.29401,0.85157
174.05294,0.86791
173.81187,0.88512
173.57080,0.90359
173.32973,0.92038
173.08866,0.93175
172.84759,0.93723
172.60652,0.94000
172.36545,0.94362
172.12438,0.94922
171.88331,0.95498
171.64224,0.95856
171.40117,0.95974
171.16010,0.95986
170.91902,0.95973
170.67795,0.95927
170.43688,0.95788
170.19581,0.95419
169.95474,0.94674
169.71367,0.93592
169.47260,0.92456
169.23153,0.91583
168.99046,0.91052
168.74939,0.90692
168.50832,0.90295
168.26725,0.89805
168.02618,0.89308
167.78511,0.88937
167.54404,0.88818
167.30297,0.89028
167.06190,0.89509
166.82083,0.90032
166.57975,0.90383
166.33868,0.90552
166.09761,0.90647
165.85654,0.90663
165.61547,0.90565
165.37440,0.90516
165.13333,0.90787
164.89226,0.91504
164.65119,0.92636
164.41012,0.94076
164.16905,0.95624
163.92798,0.97041
163.68691,0.98210
163.44584,0.99133
163.20477,0.99814
162.96370,1.00233
162.72263,1.00398
162.48156,1.00378
162.24048,1.00279
161.99941,1.00214
161.75834,1.00249
161.51727,1.00364
161.27620,1.00524
161.03513,1.00785
160.79406,1.01191
160.55299,1.01515
160.31192,1.01340
160.07085,1.00646
159.82978,0.99963
159.58871,0.99740
159.34764,0.99852
159.10657,0.99827
158.86550,0.99414
158.62443,0.98822
158.38336,0.98393
158.14229,0.98174
157.90121,0.97906
157.66014,0.97340
157.41907,0.96437
157.17800,0.95353
156.93693,0.94381
156.69586,0.93847
156.45479,0.93842
156.21372,0.93961
155.97265,0.93537
155.73158,0.92379
155.49051,0.90971
155.24944,0.89774
155.00837,0.88803
154.76730,0.87993
154.52623,0.87394
154.28516,0.86869
154.04409,0.86072
153.80302,0.84847
153.56194,0.83319
153.32087,0.81609
153.07980,0.79770
152.83873,0.77945
152.59766,0.76355
152.35659,0.75068
152.11552,0.73903
151.87445,0.72630
151.63338,0.71203
151.39231,0.69751
151.15124,0.68438
150.91017,0.67310
150.66910,0.66218
150.42803,0.64978
150.18696,0.63653
149.94589,0.62487
149.70482,0.61562
149.46375,0.60741
149.22267,0.59907
148.98160,0.59053
148.74053,0.58194
148.49946,0.57371
148.25839,0.56682
148.01732,0.56208
147.77625,0.55917
147.53518,0.55673
147.29411,0.55366
147.05304,0.55035
146.81197,0.54864
146.57090,0.54997
146.32983,0.55360
146.08876,0.55727
145.84769,0.55972
145.60662,0.56196
145.36555,0.56570
145.12448,0.57167
144.88340,0.57889
144.64233,0.58518
144.40126,0.58881
144.16019,0.59014
143.91912,0.59110
143.67805,0.59278
143.43698,0.59413
143.19591,0.59293
142.95484,0.58794
142.71377,0.57994
142.47270,0.57061
142.23163,0.56110
141.99056,0.55192
141.74949,0.54352
141.50842,0.53638
141.26735,0.53072
141.02628,0.52576
140.78521,0.52002
140.54413,0.51350
140.30306,0.50854
140.06199,0.50689
139.82092,0.50769
139.57985,0.50930
139.33878,0.51173
139.09771,0.51567
138.85664,0.52066
138.61557,0.52563
138.37450,0.53051
138.13343,0.53643
137.89236,0.54478
137.65129,0.55624
137.41022,0.57053
137.16915,0.58654
136.92808,0.60297
136.68701,0.61898
136.44594,0.63472
136.20486,0.65120
135.96379,0.66938
135.72272,0.68957
135.48165,0.71222
135.24058,0.73852
134.99951,0.76866
134.75844,0.80058
134.51737,0.83198
134.27630,0.86273
134.03523,0.89310
133.79416,0.92228
133.55309,0.95085
133.31202,0.98117
133.07095,1.01226
132.82988,1.03875
132.58881,1.05842
132.34774,1.07625
132.10667,1.09628
131.86559,1.11423
131.62452,1.12433
131.38345,1.12907
131.14238,1.13415
130.90131,1.13793
130.66024,1.13356
130.41917,1.11816
130.17810,1.09482
129.93703,1.06726
129.69596,1.03810
129.45489,1.00907
129.21382,0.97956
128.97275,0.94740
128.73168,0.91162
128.49061,0.87377
128.24954,0.83730
128.00847,0.80496
127.76740,0.77646
127.52632,0.74982
127.28525,0.72430
127.04418,0.70086
126.80311,0.68043
126.56204,0.66238
126.32097,0.64447
126.07990,0.62449
125.83883,0.60265
125.59776,0.58201
125.35669,0.56592
125.11562,0.55466
124.87455,0.54509
124.63348,0.53417
124.39241,0.52232
124.15134,0.51184
123.91027,0.50289
123.66920,0.49375
123.42812,0.48404
123.18705,0.47530
122.94598,0.46862
122.70491,0.46385
122.46384,0.46081
122.22277,0.45968
121.98170,0.46029
121.74063,0.46178
121.49956,0.46333
121.25849,0.46506
121.01742,0.46793
120.77635,0.47277
120.53528,0.47963
120.29421,0.48809
120.05314,0.49802
119.81207,0.51007
119.57100,0.52516
119.32993,0.54329
119.08885,0.56344
118.84778,0.58477
118.60671,0.60727
118.36564,0.63093
118.12457,0.65548
117.88350,0.68090
117.64243,0.70655
117.40136,0.73028
117.16029,0.74974
116.91922,0.76415
116.67815,0.77394
116.43708,0.78005
116.19601,0.78308
115.95494,0.78219
115.71387,0.77586
115.47280,0.76491
115.23173,0.75282
114.99066,0.74199
114.74958,0.73215
114.50851,0.72218
114.26744,0.71119
114.02637,0.69888
113.78530,0.68673
113.54423,0.67781
113.30316,0.67398
113.06209,0.67431
112.82102,0.67685
112.57995,0.68081
112.33888,0.68641
112.09781,0.69357
111.85674,0.70136
111.61567,0.70918
111.37460,0.71770
111.13353,0.72684
110.89246,0.73359
110.65139,0.73368
110.41031,0.72539
110.16924,0.71118
109.92817,0.69554
109.68710,0.68159
109.44603,0.66941
109.20496,0.65769
108.96389,0.64647
108.72282,0.63595
108.48175,0.62355
108.24068,0.60632
107.99961,0.58589
107.75854,0.56653
107.51747,0.54938
107.27640,0.53248
107.03533,0.51469
106.79426,0.49712
106.55319,0.48201
106.31212,0.47099
106.07104,0.46360
105.82997,0.45734
105.58890,0.44955
105.34783,0.43883
105.10676,0.42480
104.86569,0.40799
104.62462,0.39056
104.38355,0.37631
104.14248,0.36863
103.90141,0.36747
103.66034,0.36869
103.41927,0.36694
103.17820,0.35944
102.93713,0.34725
102.69606,0.33385
102.45499,0.32309
102.21392,0.31762
101.97285,0.31736
101.73177,0.31915
101.49070,0.31840
101.24963,0.31263
101.00856,0.30378
100.76749,0.29635
100.52642,0.29348
100.28535,0.29443
100.04428,0.29535
99.80321,0.29280
99.56214,0.28685
99.32107,0.28051
99.08000,0.27676
98.83893,0.27633
98.59786,0.27751
98.35679,0.27750
98.11572,0.27483
97.87465,0.27075
97.63358,0.26805
97.39250,0.26874
97.15143,0.27227
96.91036,0.27565
96.66929,0.27657
96.42822,0.27655
96.18715,0.27926
95.94608,0.28655
95.70501,0.29620
95.46394,0.30339
95.22287,0.30624
94.98180,0.30905
94.74073,0.31680
94.49966,0.32807
94.25859,0.33542
94.01752,0.33415
93.77645,0.32808
93.53538,0.32369
93.29431,0.32296
93.05323,0.32341
92.81216,0.32360
92.57109,0.32540
92.33002,0.32982
92.08895,0.33368
91.84788,0.33333
91.60681,0.33169
91.36574,0.33566
91.12467,0.34661
90.88360,0.36041
90.64253,0.37693
90.40146,0.40079
90.16039,0.43167
89.91932,0.46497
89.67825,0.50164
89.43718,0.54451
89.19611,0.58868
88.95504,0.62779
88.71396,0.66345
88.47289,0.69504
88.23182,0.71228
87.99075,0.70802
87.74968,0.68699
87.50861,0.65691
87.26754,0.62161
87.02647,0.58347
86.78540,0.54628
86.54433,0.51292
86.30326,0.48226
86.06219,0.45217
85.82112,0.42417
85.58005,0.40104
85.33898,0.38187
85.09791,0.36346
84.85684,0.34473
84.61577,0.32696
84.37469,0.31139
84.13362,0.29823
83.89255,0.28699
83.65148,0.27735
83.41041,0.26910
83.16934,0.26147
82.92827,0.25364
82.68720,0.24593
82.44613,0.23898
82.20506,0.23230
81.96399,0.22498
81.72292,0.21781
81.48185,0.21287
81.24078,0.21086
80.99971,0.20987
80.75864,0.20746
80.51757,0.20341
80.27650,0.19966
80.03542,0.19786
79.79435,0.19783
79.55328,0.19807
79.31221,0.19747
79.07114,0.19640
78.83007,0.19604
78.58900,0.19684
78.34793,0.19794
78.10686,0.19780
77.86579,0.19557
77.62472,0.19165
77.38365,0.18711
77.14258,0.18307
76.90151,0.18056
76.66044,0.17980
76.41937,0.17975
76.17830,0.17939
75.93723,0.17887
75.69615,0.17868
75.45508,0.17847
75.21401,0.17761
74.97294,0.17611
74.73187,0.17456
74.49080,0.17350
74.24973,0.17278
74.00866,0.17210
73.76759,0.17189
73.52652,0.17258
73.28545,0.17334
73.04438,0.17299
72.80331,0.17141
72.56224,0.16918
72.32117,0.16707
72.08010,0.16644
71.83903,0.16832
71.59796,0.17142
71.35688,0.17231
71.11581,0.16871
70.87474,0.16260
70.63367,0.15922
70.39260,0.16293
70.15153,0.17424
69.91046,0.19075
69.66939,0.20958
69.42832,0.22791
69.18725,0.24220
68.94618,0.24893
68.70511,0.24633
68.46404,0.23537
68.22297,0.21963
67.98190,0.20365
67.74083,0.19028
67.49976,0.17993
67.25869,0.17202
67.01761,0.16607
66.77654,0.16158
66.53547,0.15789
66.29440,0.15474
66.05333,0.15244
65.81226,0.15146
65.57119,0.15257
65.33012,0.15715
65.08905,0.16611
64.84798,0.17866
64.60691,0.19280
64.36584,0.20649
64.12477,0.21766
63.88370,0.22401
63.64263,0.22461
63.40156,0.22038
63.16049,0.21233
62.91942,0.20103
62.67834,0.18771
62.43727,0.17460
62.19620,0.16382
61.95513,0.15613
61.71406,0.15032
61.47299,0.14397
61.23192,0.13579
60.99085,0.12757
60.74978,0.12320
60.50871,0.12503
60.26764,0.13126
60.02657,0.13803
59.78550,0.14370
59.54443,0.14947
59.30336,0.15602
59.06229,0.16171
58.82122,0.16480
58.58015,0.16564
58.33907,0.16584
58.09800,0.16658
57.85693,0.16751
57.61586,0.16668
57.37479,0.16162
57.13372,0.15158
56.89265,0.13854
56.65158,0.12600
56.41051,0.11691
56.16944,0.11304
55.92837,0.11520
55.68730,0.12308
55.44623,0.13535
55.20516,0.15019
54.96409,0.16579
54.72302,0.18006
54.48195,0.18892
54.24088,0.18677
53.99980,0.17193
53.75873,0.15029
53.51766,0.13122
53.27659,0.12221
53.03552,0.12659
52.79445,0.14392
52.55338,0.17245
52.31231,0.20747
52.07124,0.23131
51.83017,0.22146
51.58910,0.18604
51.34803,0.15095
51.10696,0.13231
50.86589,0.13701
50.62482,0.16409
50.38375,0.19894
50.14268,0.21196
49.90161,0.18832
49.66053,0.15262
49.41946,0.13283
49.17839,0.13919
48.93732,0.16572
48.69625,0.18489
48.45518,0.16924
48.21411,0.14006
47.97304,0.13330
47.73197,0.15871
47.49090,0.18964
47.24983,0.17915
47.00876,0.13681
46.76769,0.11067
46.52662,0.11911
46.28555,0.14016
46.04448,0.13574
45.80341,0.11815
45.56234,0.12041
45.32126,0.13500
45.08019,0.13301
44.83912,0.12127
44.59805,0.12443
44.35698,0.13584
44.11591,0.13639
43.87484,0.13278
43.63377,0.13708
43.39270,0.14509
43.15163,0.15323
42.91056,0.16619
42.66949,0.18141
42.42842,0.18916
42.18735,0.18838
41.94628,0.18735
41.70521,0.18899
41.46414,0.18796
41.22307,0.18206
40.98199,0.17841
40.74092,0.18164
40.49985,0.18482
40.25878,0.18190
40.01771,0.17767
39.77664,0.17830
39.53557,0.18392
39.29450,0.19190
39.05343,0.19991
38.81236,0.20740
38.57129,0.21664
38.33022,0.22979
38.08915,0.24678
37.84808,0.26349
37.60701,0.27070
37.36594,0.26320
37.12487,0.24723
36.88380,0.23246
36.64272,0.22367
36.40165,0.22058
36.16058,0.22029
35.91951,0.22176
35.67844,0.22887
35.43737,0.24377
35.19630,0.25915
34.95523,0.26373
34.71416,0.25196
34.47309,0.22890
34.23202,0.20917
33.99095,0.20434
33.74988,0.21154
33.50881,0.21827
33.26774,0.21598
33.02667,0.20863
32.78560,0.20768
32.54453,0.21760
32.30345,0.23051
32.06238,0.23508
31.82131,0.22461
31.58024,0.20117
31.33917,0.17554
31.09810,0.15700
30.85703,0.14525
30.61596,0.13405
30.37489,0.12056
30.13382,0.10721
29.89275,0.09896
29.65168,0.10045
29.41061,0.10790
29.16954,0.10921
28.92847,0.10027
28.68740,0.09260
28.44633,0.09569
28.20526,0.10173
27.96418,0.09741
27.72311,0.08474
27.48204,0.07695
27.24097,0.07598
26.99990,0.06903
26.75883,0.04644
26.51776,0.01380
26.27669,-0.01246
26.03562,-0.02050
25.79455,-0.01525
25.55348,-0.00983
25.31241,-0.01235
25.07134,-0.02241
24.83027,-0.03623
24.58920,-0.05240
24.34813,-0.06854
24.10706,-0.07868
23.86599,-0.08133
23.62491,-0.08606
23.38384,-0.10217
23.14277,-0.12310
22.90170,-0.13113
22.66063,-0.11761
22.41956,-0.09222
22.17849,-0.07226
21.93742,-0.07031
21.69635,-0.09057
21.45528,-0.12396
21.21421,-0.15202
20.97314,-0.16442
20.73207,-0.16198
20.49100,-0.15011
20.24993,-0.13755
20.00886,-0.13436
19.76779,-0.14627
19.52672,-0.16960
19.28564,-0.19339
19.04457,-0.20929
18.80350,-0.21986
18.56243,-0.23373
18.32136,-0.25231
18.08029,-0.26318
17.83922,-0.25423
17.59815,-0.23245
17.35708,-0.22057
17.11601,-0.23090
16.87494,-0.25629
16.63387,-0.28697
16.39280,-0.31278
16.15173,-0.31752
15.91066,-0.29349
15.66959,-0.25367
15.42852,-0.22424
15.18745,-0.22369
14.94637,-0.24496
14.70530,-0.26604
14.46423,-0.26978
14.22316,-0.25528
13.98209,-0.24348
13.74102,-0.24764
13.49995,-0.26708
13.25888,-0.30228
13.01781,-0.34252
12.77674,-0.36132
12.53567,-0.36128
12.29460,-0.35755
12.05353,-0.35092
11.81246,-0.33068
11.57139,-0.29532
11.33032,-0.26478
11.08925,-0.25555
10.84818,-0.26938
10.60710,-0.29052
10.36603,-0.28953
10.12496,-0.26080
9.88389,-0.24802
9.64282,-0.27131
9.40175,-0.31211
9.16068,-0.33127
8.91961,-0.32484
8.67854,-0.30992
8.43747,-0.29716
8.19640,-0.29133
7.95533,-0.29321
7.71426,-0.29432
7.47319,-0.29219
7.23212,-0.28382
6.99105,-0.27292
6.74998,-0.26716
6.50891,-0.27592
6.26783,-0.29903
6.02676,-0.31533
5.78569,-0.32479
5.54462,-0.33457
5.30355,-0.32305
5.06248,-0.30130
4.82141,-0.28711
4.58034,-0.29044
4.33927,-0.28596
4.09820,-0.27732
3.85713,-0.27606
3.61606,-0.28514
3.37499,-0.29922
3.13392,-0.30772
2.89285,-0.30731
2.65178,-0.29886
2.41071,-0.29161
2.16964,-0.30333
1.92856,-0.32487
1.68749,-0.32595
1.44642,-0.31941
1.20535,-0.30912
0.96428,-0.29631
0.72321,-0.27509
0.48214,-0.26637
0.24107,-0.24842
-0.00000,-0.18572
