399.69498,1.47556
399.45391,1.47173
399.21284,1.46961
398.97177,1.47292
398.73070,1.48190
398.48963,1.49014
398.24856,1.49247
398.00749,1.49221
397.76642,1.49569
397.52535,1.50222
397.28428,1.50442
397.04321,1.49852
396.80214,1.49032
396.56107,1.48748
396.32000,1.49053
396.07892,1.49438
395.83785,1.49775
395.59678,1.50511
395.35571,1.51749
395.11464,1.52984
394.87357,1.53569
394.63250,1.53026
394.39143,1.51422
394.15036,1.49503
393.90929,1.48189
393.66822,1.47871
393.42715,1.48078
393.18608,1.47968
392.94501,1.47302
392.70394,1.46622
392.46287,1.46401
392.22180,1.46516
391.98073,1.46628
391.73965,1.46627
391.49858,1.46550
391.25751,1.46454
391.01644,1.46625
390.77537,1.47355
390.53430,1.48396
390.29323,1.49074
390.05216,1.48874
389.81109,1.47900
389.57002,1.46884
389.32895,1.46555
389.08788,1.46849
388.84681,1.47090
388.60574,1.46881
388.36467,1.46327
388.12360,1.45719
387.88253,1.45302
387.64146,1.45268
387.40038,1.45772
387.15931,1.46529
386.91824,1.46503
386.67717,1.44998
386.43610,1.43078
386.19503,1.42384
385.95396,1.42894
385.71289,1.42764
385.47182,1.40730
385.23075,1.37810
384.98968,1.35514
384.74861,1.34035
384.50754,1.32937
384.26647,1.32274
384.02540,1.32207
383.78433,1.32332
383.54326,1.32189
383.30219,1.31790
383.06111,1.31336
382.82004,1.30925
382.57897,1.30337
382.33790,1.29070
382.09683,1.27193
381.85576,1.25545
381.61469,1.24684
381.37362,1.24604
381.13255,1.25156
380.89148,1.25965
380.65041,1.26455
380.40934,1.26623
380.16827,1.27151
379.92720,1.28056
379.68613,1.28394
379.44506,1.27584
379.20399,1.26058
378.96292,1.24561
378.72184,1.23644
378.48077,1.23726
378.23970,1.24938
377.99863,1.26745
377.75756,1.28120
377.51649,1.28608
377.27542,1.29030
377.03435,1.30459
376.79328,1.32926
376.55221,1.35471
376.31114,1.36974
376.07007,1.37084
375.82900,1.36441
375.58793,1.35993
375.34686,1.36306
375.10579,1.37295
374.86472,1.38517
374.62365,1.39836
374.38257,1.41240
374.14150,1.42043
373.90043,1.41374
373.65936,1.39539
373.41829,1.37772
373.17722,1.36730
372.93615,1.36090
372.69508,1.35412
372.45401,1.34914
372.21294,1.35194
371.97187,1.36210
371.73080,1.36745
371.48973,1.35844
371.24866,1.34411
371.00759,1.33837
370.76652,1.34167
370.52545,1.34703
370.28437,1.35029
370.04330,1.34628
369.80223,1.33169
369.56116,1.31439
369.32009,1.30619
369.07902,1.30910
368.83795,1.31487
368.59688,1.31466
368.35581,1.30711
368.11474,1.29778
367.87367,1.29178
367.63260,1.28962
367.39153,1.29028
367.15046,1.29394
366.90939,1.29935
366.66832,1.30162
366.42725,1.29863
366.18618,1.29557
365.94510,1.29665
365.70403,1.29790
365.46296,1.29373
365.22189,1.28595
364.98082,1.28037
364.73975,1.27829
364.49868,1.27558
364.25761,1.26812
364.01654,1.25587
363.77547,1.24336
363.53440,1.23685
363.29333,1.23908
363.05226,1.24616
362.81119,1.25150
362.57012,1.25333
362.32905,1.25448
362.08798,1.25544
361.84691,1.25321
361.60583,1.24730
361.36476,1.24105
361.12369,1.23725
360.88262,1.23662
360.64155,1.23847
360.40048,1.23947
360.15941,1.23501
359.91834,1.22511
359.67727,1.21567
359.43620,1.21191
359.19513,1.21329
358.95406,1.21576
358.71299,1.21756
358.47192,1.22072
358.23085,1.22586
357.98978,1.22904
357.74871,1.22662
357.50764,1.21982
357.26656,1.21306
357.02549,1.21006
356.78442,1.21186
356.54335,1.21676
356.30228,1.22169
356.06121,1.22496
355.82014,1.22745
355.57907,1.22938
355.33800,1.22896
355.09693,1.22573
354.85586,1.22185
354.61479,1.21868
354.37372,1.21518
354.13265,1.21094
353.89158,1.20729
353.65051,1.20464
353.40944,1.20281
353.16837,1.20332
352.92729,1.20739
352.68622,1.21271
352.44515,1.21585
352.20408,1.21637
351.96301,1.21548
351.72194,1.21299
351.48087,1.20906
351.23980,1.20486
350.99873,1.20033
350.75766,1.19555
350.51659,1.19316
350.27552,1.19570
350.03445,1.20215
349.79338,1.20786
349.55231,1.20772
349.31124,1.20125
349.07017,1.19443
348.82910,1.19412
348.58802,1.20192
348.34695,1.21483
348.10588,1.22954
347.86481,1.24349
347.62374,1.25232
347.38267,1.25312
347.14160,1.24949
346.90053,1.24745
346.65946,1.24743
346.41839,1.24458
346.17732,1.23803
345.93625,1.23341
345.69518,1.23458
345.45411,1.23778
345.21304,1.23645
344.97197,1.23125
344.73090,1.23056
344.48983,1.23965
344.24875,1.25524
344.00768,1.27123
343.76661,1.28365
343.52554,1.28983
343.28447,1.28884
343.04340,1.28417
342.80233,1.28103
342.56126,1.28037
342.32019,1.27921
342.07912,1.27639
341.83805,1.27486
341.59698,1.27724
341.35591,1.28211
341.11484,1.28774
340.87377,1.29609
340.63270,1.30777
340.39163,1.31805
340.15056,1.32492
339.90948,1.33312
339.66841,1.34384
339.42734,1.35018
339.18627,1.34732
338.94520,1.33929
338.70413,1.33361
338.46306,1.33205
338.22199,1.33090
337.98092,1.32899
337.73985,1.32883
337.49878,1.33150
337.25771,1.33607
337.01664,1.34133
336.77557,1.34548
336.53450,1.34816
336.29343,1.34919
336.05236,1.34659
335.81129,1.34139
335.57021,1.33911
335.32914,1.34002
335.08807,1.33838
334.84700,1.33714
334.60593,1.34313
334.36486,1.34970
334.12379,1.34517
333.88272,1.33102
333.64165,1.31812
333.40058,1.31345
333.15951,1.31666
332.91844,1.32259
332.67737,1.32428
332.43630,1.31744
332.19523,1.30469
331.95416,1.29318
331.71309,1.28787
331.47202,1.28711
331.23094,1.28680
330.98987,1.28665
330.74880,1.28702
330.50773,1.28462
330.26666,1.27581
330.02559,1.26317
329.78452,1.25509
329.54345,1.25738
329.30238,1.26599
329.06131,1.27013
328.82024,1.26407
328.57917,1.25256
328.33810,1.24385
328.09703,1.24138
327.85596,1.24220
327.61489,1.24199
327.37382,1.24115
327.13275,1.24418
326.89167,1.25119
326.65060,1.25659
326.40953,1.25761
326.16846,1.25691
325.92739,1.25781
325.68632,1.25990
325.44525,1.25923
325.20418,1.25410
324.96311,1.24852
324.72204,1.24714
324.48097,1.24922
324.23990,1.25179
323.99883,1.25539
323.75776,1.26306
323.51669,1.27550
323.27562,1.28834
323.03455,1.29518
322.79348,1.29396
322.55240,1.28893
322.31133,1.28532
322.07026,1.28372
321.82919,1.28230
321.58812,1.28145
321.34705,1.28145
321.10598,1.28221
320.86491,1.28415
320.62384,1.28594
320.38277,1.28577
320.14170,1.28285
319.90063,1.27830
319.65956,1.27390
319.41849,1.26902
319.17742,1.26264
318.93635,1.25705
318.69528,1.25722
318.45421,1.26631
318.21313,1.28105
317.97206,1.29208
317.73099,1.29298
317.48992,1.28749
317.24885,1.28213
317.00778,1.27825
316.76671,1.27763
316.52564,1.28251
316.28457,1.29015
316.04350,1.29721
315.80243,1.30354
315.56136,1.30736
315.32029,1.30580
315.07922,1.30117
314.83815,1.29656
314.59708,1.29127
314.35601,1.28667
314.11494,1.28697
313.87386,1.29290
313.63279,1.30121
313.39172,1.30895
313.15065,1.31640
312.90958,1.32611
312.66851,1.33574
312.42744,1.33631
312.18637,1.32643
311.94530,1.31975
311.70423,1.32870
311.46316,1.34936
311.22209,1.36604
310.98102,1.36825
310.73995,1.35819
310.49888,1.34297
310.25781,1.32884
310.01674,1.32030
309.77567,1.32001
309.53459,1.32789
309.29352,1.33968
309.05245,1.34891
308.81138,1.35202
308.57031,1.35095
308.32924,1.35027
308.08817,1.35205
307.84710,1.35424
307.60603,1.35334
307.36496,1.34906
307.12389,1.34606
306.88282,1.34765
306.64175,1.34889
306.40068,1.34300
306.15961,1.33130
305.91854,1.32029
305.67747,1.31422
305.43640,1.31496
305.19532,1.32389
304.95425,1.33681
304.71318,1.34311
304.47211,1.33733
304.23104,1.32593
303.98997,1.31749
303.74890,1.31196
303.50783,1.30443
303.26676,1.29522
303.02569,1.29034
302.78462,1.29334
302.54355,1.30076
302.30248,1.30624
302.06141,1.30676
301.82034,1.30269
301.57927,1.29385
301.33820,1.28102
301.09713,1.26972
300.85605,1.26527
300.61498,1.26468
300.37391,1.26020
300.13284,1.25011
299.89177,1.23882
299.65070,1.22971
299.40963,1.22374
299.16856,1.22076
298.92749,1.21898
298.68642,1.21766
298.44535,1.21895
298.20428,1.22299
297.96321,1.22563
297.72214,1.22371
297.48107,1.21802
297.24000,1.20988
296.99893,1.19994
296.75786,1.19048
296.51678,1.18490
296.27571,1.18335
296.03464,1.18070
295.79357,1.17215
295.55250,1.16014
295.31143,1.15123
295.07036,1.14847
294.82929,1.15118
294.58822,1.15795
294.34715,1.16546
294.10608,1.16787
293.86501,1.16258
293.62394,1.15418
293.38287,1.14918
293.14180,1.14901
292.90073,1.14979
292.65966,1.14826
292.41859,1.14526
292.17751,1.14325
291.93644,1.14150
291.69537,1.13639
291.45430,1.12770
291.21323,1.12029
290.97216,1.11747
290.73109,1.11655
290.49002,1.11370
290.24895,1.11046
290.00788,1.11113
289.76681,1.11470
289.52574,1.11518
289.28467,1.11063
289.04360,1.10560
288.80253,1.10364
288.56146,1.10443
288.32039,1.10724
288.07932,1.11111
287.83824,1.11301
287.59717,1.11001
287.35610,1.10299
287.11503,1.09626
286.87396,1.09356
286.63289,1.09471
286.39182,1.09611
286.15075,1.09486
285.90968,1.09181
285.66861,1.08966
285.42754,1.08961
285.18647,1.09127
284.94540,1.09400
284.70433,1.09691
284.46326,1.09828
284.22219,1.09666
283.98112,1.09259
283.74005,1.08832
283.49897,1.08592
283.25790,1.08616
283.01683,1.08835
282.77576,1.09075
282.53469,1.09180
282.29362,1.09146
282.05255,1.09087
281.81148,1.09071
281.57041,1.09045
281.32934,1.08945
281.08827,1.08789
280.84720,1.08665
280.60613,1.08660
280.36506,1.08834
280.12399,1.09185
279.88292,1.09578
279.64185,1.09770
279.40078,1.09576
279.15970,1.08992
278.91863,1.08194
278.67756,1.07522
278.43649,1.07309
278.19542,1.07512
277.95435,1.07720
277.71328,1.07733
277.47221,1.07823
277.23114,1.08216
276.99007,1.08709
276.74900,1.08955
276.50793,1.08836
276.26686,1.08482
276.02579,1.08144
275.78472,1.08043
275.54365,1.08229
275.30258,1.08563
275.06151,1.08839
274.82043,1.08908
274.57936,1.08767
274.33829,1.08487
274.09722,1.08108
273.85615,1.07771
273.61508,1.07814
273.37401,1.08421
273.13294,1.09304
272.89187,1.10025
272.65080,1.10505
272.40973,1.10911
272.16866,1.11233
271.92759,1.11303
271.68652,1.11167
271.44545,1.11190
271.20438,1.11635
270.96331,1.12275
270.72224,1.12683
270.48116,1.12840
270.24009,1.13072
269.99902,1.13462
269.75795,1.13756
269.51688,1.13803
269.27581,1.13754
269.03474,1.13819
268.79367,1.14064
268.55260,1.14454
268.31153,1.14922
268.07046,1.15341
267.82939,1.15600
267.58832,1.15839
267.34725,1.16371
267.10618,1.17289
266.86511,1.18352
266.62404,1.19284
266.38297,1.20008
266.14189,1.20536
265.90082,1.20843
265.65975,1.20947
265.41868,1.21033
265.17761,1.21394
264.93654,1.22178
264.69547,1.23261
264.45440,1.24478
264.21333,1.25835
263.97226,1.27340
263.73119,1.28896
263.49012,1.30489
263.24905,1.32181
263.00798,1.33737
262.76691,1.34641
262.52584,1.34756
262.28477,1.34660
262.04370,1.35022
261.80262,1.36091
261.56155,1.37989
261.32048,1.40902
261.07941,1.44583
260.83834,1.47974
260.59727,1.50030
260.35620,1.51138
260.11513,1.52857
259.87406,1.55941
259.63299,1.59382
259.39192,1.61844
259.15085,1.63545
258.90978,1.65498
258.66871,1.67751
258.42764,1.69885
258.18657,1.72122
257.94550,1.74593
257.70443,1.76784
257.46335,1.78454
257.22228,1.79683
256.98121,1.80394
256.74014,1.80917
256.49907,1.81965
256.25800,1.83126
256.01693,1.82892
255.77586,1.80765
255.53479,1.77783
255.29372,1.75232
255.05265,1.73575
254.81158,1.72203
254.57051,1.70066
254.32944,1.66886
254.08837,1.63756
253.84730,1.62289
253.60623,1.62934
253.36516,1.64404
253.12408,1.65060
252.88301,1.64348
252.64194,1.62679
252.40087,1.60880
252.15980,1.59735
251.91873,1.59274
251.67766,1.58757
251.43659,1.57668
251.19552,1.56275
250.95445,1.55067
250.71338,1.54200
250.47231,1.53554
250.23124,1.52923
249.99017,1.52153
249.74910,1.51390
249.50803,1.51110
249.26696,1.51665
249.02589,1.52547
248.78481,1.52629
248.54374,1.51686
248.30267,1.50845
248.06160,1.51110
247.82053,1.52221
247.57946,1.53319
247.33839,1.54116
247.09732,1.54931
246.85625,1.56275
246.61518,1.58004
246.37411,1.58944
246.13304,1.58336
245.89197,1.57318
245.65090,1.57886
245.40983,1.60716
245.16876,1.64414
244.92769,1.66905
244.68661,1.67431
244.44554,1.67103
244.20447,1.67964
243.96340,1.71507
243.72233,1.77428
243.48126,1.83833
243.24019,1.89800
242.99912,1.95475
242.75805,1.97538
242.51698,1.91496
242.27591,1.83707
242.03484,1.75189
241.79377,1.66041
241.55270,1.58185
241.31163,1.52416
241.07056,1.47800
240.82949,1.43185
240.58842,1.38171
240.34734,1.33064
240.10627,1.28337
239.86520,1.24156
239.62413,1.20500
239.38306,1.17494
239.14199,1.15266
238.90092,1.13585
238.65985,1.11995
238.41878,1.10256
238.17771,1.08449
237.93664,1.06695
237.69557,1.05005
237.45450,1.03367
237.21343,1.01823
236.97236,1.00451
236.73129,0.99272
236.49022,0.98165
236.24915,0.96987
236.00807,0.95756
235.76700,0.94574
235.52593,0.93452
235.28486,0.92400
235.04379,0.91523
234.80272,0.90837
234.56165,0.90186
234.32058,0.89524
234.07951,0.89024
233.83844,0.88742
233.59737,0.88399
233.35630,0.87777
233.11523,0.87112
232.87416,0.86784
232.63309,0.86822
232.39202,0.87030
232.15095,0.87339
231.90988,0.87654
231.66880,0.87605
231.42773,0.86906
231.18666,0.85767
230.94559,0.84672
230.70452,0.83946
230.46345,0.83646
230.22238,0.83647
229.98131,0.83688
229.74024,0.83493
229.49917,0.83022
229.25810,0.82527
229.01703,0.82244
228.77596,0.82111
228.53489,0.81916
228.29382,0.81653
228.05275,0.81504
227.81168,0.81526
227.57061,0.81570
227.32953,0.81504
227.08846,0.81356
226.84739,0.81179
226.60632,0.80917
226.36525,0.80505
226.12418,0.80040
225.88311,0.79686
225.64204,0.79487
225.40097,0.79419
225.15990,0.79489
224.91883,0.79660
224.67776,0.79863
224.43669,0.80147
224.19562,0.80570
223.95455,0.81001
223.71348,0.81278
223.47241,0.81397
223.23134,0.81377
222.99026,0.81229
222.74919,0.81154
222.50812,0.81454
222.26705,0.82192
222.02598,0.83128
221.78491,0.84011
221.54384,0.84761
221.30277,0.85394
221.06170,0.85852
220.82063,0.86077
220.57956,0.86205
220.33849,0.86516
220.09742,0.87137
219.85635,0.87900
219.61528,0.88603
219.37421,0.89267
219.13314,0.90021
218.89207,0.90936
218.65099,0.92049
218.40992,0.93332
218.16885,0.94593
217.92778,0.95646
217.68671,0.96568
217.44564,0.97569
217.20457,0.98702
216.96350,0.99855
216.72243,1.00914
216.48136,1.01916
216.24029,1.03087
215.99922,1.04625
215.75815,1.06393
215.51708,1.07992
215.27601,1.09189
215.03494,1.10080
214.79387,1.10809
214.55280,1.11400
214.31172,1.11969
214.07065,1.12834
213.82958,1.14193
213.58851,1.15755
213.34744,1.16930
213.10637,1.17466
212.86530,1.17716
212.62423,1.18208
212.38316,1.19140
212.14209,1.20293
211.90102,1.21315
211.65995,1.22015
211.41888,1.22438
211.17781,1.22682
210.93674,1.22668
210.69567,1.22143
210.45460,1.21148
210.21353,1.20192
209.97245,1.19643
209.73138,1.19396
209.49031,1.19293
209.24924,1.19424
209.00817,1.19789
208.76710,1.20017
208.52603,1.19632
208.28496,1.18509
208.04389,1.17000
207.80282,1.15668
207.56175,1.14907
207.32068,1.14708
207.07961,1.14686
206.83854,1.14349
206.59747,1.13482
206.35640,1.12350
206.11533,1.11376
205.87426,1.10615
205.63318,1.09738
205.39211,1.08538
205.15104,1.07204
204.90997,1.05988
204.66890,1.04806
204.42783,1.03357
204.18676,1.01629
203.94569,0.99999
203.70462,0.98784
203.46355,0.98037
203.22248,0.97693
202.98141,0.97531
202.74034,0.97088
202.49927,0.96014
202.25820,0.94437
202.01713,0.92680
201.77606,0.90908
201.53499,0.89246
201.29391,0.87848
201.05284,0.86724
200.81177,0.85693
200.57070,0.84534
200.32963,0.83174
200.08856,0.81718
199.84749,0.80346
199.60642,0.79252
199.36535,0.78564
199.12428,0.78136
198.88321,0.77543
198.64214,0.76493
198.40107,0.75184
198.16000,0.74081
197.91893,0.73418
197.67786,0.73006
197.43679,0.72429
197.19572,0.71430
196.95464,0.70168
196.71357,0.69048
196.47250,0.68309
196.23143,0.67864
195.99036,0.67445
195.74929,0.66825
195.50822,0.65928
195.26715,0.64903
195.02608,0.64064
194.78501,0.63604
194.54394,0.63328
194.30287,0.62875
194.06180,0.62227
193.82073,0.61697
193.57966,0.61415
193.33859,0.61175
193.09752,0.60783
192.85645,0.60306
192.61537,0.59908
192.37430,0.59656
192.13323,0.59481
191.89216,0.59247
191.65109,0.58868
191.41002,0.58387
191.16895,0.57908
190.92788,0.57468
190.68681,0.57026
190.44574,0.56576
190.20467,0.56186
189.96360,0.55931
189.72253,0.55817
189.48146,0.55729
189.24039,0.55481
188.99932,0.55047
188.75825,0.54698
188.51718,0.54721
188.27610,0.55012
188.03503,0.55156
187.79396,0.54966
187.55289,0.54658
187.31182,0.54430
187.07075,0.54239
186.82968,0.54064
186.58861,0.53980
186.34754,0.53933
186.10647,0.53802
185.86540,0.53667
185.62433,0.53697
185.38326,0.53862
185.14219,0.53976
184.90112,0.53955
184.66005,0.53866
184.41898,0.53817
184.17791,0.53858
183.93683,0.53976
183.69576,0.54145
183.45469,0.54365
183.21362,0.54657
182.97255,0.54999
182.73148,0.55259
182.49041,0.55307
182.24934,0.55231
182.00827,0.55288
181.76720,0.55572
181.52613,0.55907
181.28506,0.56107
181.04399,0.56177
180.80292,0.56212
180.56185,0.56249
180.32078,0.56285
180.07971,0.56383
179.83864,0.56655
179.59756,0.57107
179.35649,0.57606
179.11542,0.58104
178.87435,0.58709
178.63328,0.59441
178.39221,0.60180
178.15114,0.60933
177.91007,0.61881
177.66900,0.63078
177.42793,0.64339
177.18686,0.65485
176.94579,0.66531
176.70472,0.67579
176.46365,0.68709
176.22258,0.69994
175.98151,0.71472
175.74044,0.73086
175.49937,0.74742
175.25829,0.76456
175.01722,0.78305
174.77615,0.80271
174.53508,0.82257
174.29401,0.84192
174.05294,0.85969
173.81187,0.87434
173.57080,0.88581
173.32973,0.89613
173.08866,0.90668
172.84759,0.91632
172.60652,0.92328
172.36545,0.92781
172.12438,0.93164
171.88331,0.93517
171.64224,0.93716
171.40117,0.93699
171.16010,0.93497
170.91902,0.93151
170.67795,0.92749
170.43688,0.92409
170.19581,0.92084
169.95474,0.91598
169.71367,0.90952
169.47260,0.90361
169.23153,0.89914
168.99046,0.89413
168.74939,0.88661
168.50832,0.87783
168.26725,0.87138
168.02618,0.86967
167.78511,0.87203
167.54404,0.87609
167.30297,0.88048
167.06190,0.88536
166.82083,0.89042
166.57975,0.89354
166.33868,0.89316
166.09761,0.89080
165.85654,0.88936
165.61547,0.88993
165.37440,0.89194
165.13333,0.89507
164.89226,0.89989
164.65119,0.90736
164.41012,0.91816
164.16905,0.93193
163.92798,0.94688
163.68691,0.96019
163.44584,0.96939
163.20477,0.97480
162.96370,0.97955
162.72263,0.98542
162.48156,0.99076
162.24048,0.99350
161.99941,0.99421
161.75834,0.99560
161.51727,0.99969
161.27620,1.00528
161.03513,1.00857
160.79406,1.00710
160.55299,1.00169
160.31192,0.99457
160.07085,0.98788
159.82978,0.98330
159.58871,0.98109
159.34764,0.98009
159.10657,0.97916
158.86550,0.97753
158.62443,0.97444
158.38336,0.96981
158.14229,0.96410
157.90121,0.95746
157.66014,0.95044
157.41907,0.94518
157.17800,0.94340
156.93693,0.94374
156.69586,0.94254
156.45479,0.93655
156.21372,0.92552
155.97265,0.91216
155.73158,0.89960
155.49051,0.88936
155.24944,0.88163
155.00837,0.87625
154.76730,0.87196
154.52623,0.86560
154.28516,0.85425
154.04409,0.83848
153.80302,0.82166
153.56194,0.80621
153.32087,0.79212
153.07980,0.77841
152.83873,0.76470
152.59766,0.75103
152.35659,0.73728
152.11552,0.72366
151.87445,0.71037
151.63338,0.69685
151.39231,0.68286
151.15124,0.66981
150.91017,0.65911
150.66910,0.64963
150.42803,0.63837
150.18696,0.62384
149.94589,0.60785
149.70482,0.59381
149.46375,0.58389
149.22267,0.57758
148.98160,0.57267
148.74053,0.56748
148.49946,0.56164
148.25839,0.55533
148.01732,0.54902
147.77625,0.54399
147.53518,0.54148
147.29411,0.54091
147.05304,0.54031
146.81197,0.53893
146.57090,0.53814
146.32983,0.53932
146.08876,0.54216
145.84769,0.54534
145.60662,0.54785
145.36555,0.54989
145.12448,0.55281
144.88340,0.55775
144.64233,0.56411
144.40126,0.56989
144.16019,0.57396
143.91912,0.57675
143.67805,0.57856
143.43698,0.57834
143.19591,0.57466
142.95484,0.56766
142.71377,0.55953
142.47270,0.55242
142.23163,0.54596
141.99056,0.53824
141.74949,0.52932
141.50842,0.52166
141.26735,0.51651
141.02628,0.51200
140.78521,0.50595
140.54413,0.49896
140.30306,0.49318
140.06199,0.48976
139.82092,0.48871
139.57985,0.49010
139.33878,0.49393
139.09771,0.49923
138.85664,0.50491
138.61557,0.51115
138.37450,0.51878
138.13343,0.52769
137.89236,0.53707
137.65129,0.54688
137.41022,0.55803
137.16915,0.57135
136.92808,0.58690
136.68701,0.60418
136.44594,0.62255
136.20486,0.64164
135.96379,0.66139
135.72272,0.68189
135.48165,0.70351
135.24058,0.72710
134.99951,0.75362
134.75844,0.78342
134.51737,0.81557
134.27630,0.84839
134.03523,0.88163
133.79416,0.91683
133.55309,0.95346
133.31202,0.98689
133.07095,1.01389
132.82988,1.03733
132.58881,1.06135
132.34774,1.08530
132.10667,1.10677
131.86559,1.12547
131.62452,1.14116
131.38345,1.15207
131.14238,1.15564
130.90131,1.14923
130.66024,1.13193
130.41917,1.10726
130.17810,1.08076
129.93703,1.05453
129.69596,1.02606
129.45489,0.99265
129.21382,0.95613
128.97275,0.92114
128.73168,0.88918
128.49061,0.85779
128.24954,0.82530
128.00847,0.79334
127.76740,0.76411
127.52632,0.73786
127.28525,0.71389
127.04418,0.69189
126.80311,0.67117
126.56204,0.65042
126.32097,0.62937
126.07990,0.60926
125.83883,0.59073
125.59776,0.57288
125.35669,0.55505
125.11562,0.53810
124.87455,0.52348
124.63348,0.51179
124.39241,0.50231
124.15134,0.49365
123.91027,0.48501
123.66920,0.47690
123.42812,0.47008
123.18705,0.46446
122.94598,0.45963
122.70491,0.45599
122.46384,0.45417
122.22277,0.45381
121.98170,0.45368
121.74063,0.45312
121.49956,0.45296
121.25849,0.45446
121.01742,0.45769
120.77635,0.46177
120.53528,0.46641
120.29421,0.47226
120.05314,0.47994
119.81207,0.48967
119.57100,0.50183
119.32993,0.51741
119.08885,0.53728
118.84778,0.56117
118.60671,0.58824
118.36564,0.61812
118.12457,0.65028
117.88350,0.68247
117.64243,0.71158
117.40136,0.73612
117.16029,0.75656
116.91922,0.77327
116.67815,0.78520
116.43708,0.79086
116.19601,0.78975
115.95494,0.78223
115.71387,0.76892
115.47280,0.75148
115.23173,0.73352
114.99066,0.71861
114.74958,0.70747
114.50851,0.69850
114.26744,0.69040
114.02637,0.68354
113.78530,0.67951
113.54423,0.67943
113.30316,0.68171
113.06209,0.68266
112.82102,0.68026
112.57995,0.67646
112.33888,0.67450
112.09781,0.67507
111.85674,0.67653
111.61567,0.67799
111.37460,0.68062
111.13353,0.68585
110.89246,0.69374
110.65139,0.70330
110.41031,0.71259
110.16924,0.71851
109.92817,0.71824
109.68710,0.71024
109.44603,0.69379
109.20496,0.67022
108.96389,0.64393
108.72282,0.61929
108.48175,0.59789
108.24068,0.58001
107.99961,0.56606
107.75854,0.55527
107.51747,0.54467
107.27640,0.53103
107.03533,0.51329
106.79426,0.49336
106.55319,0.47463
106.31212,0.45961
106.07104,0.44877
105.82997,0.44095
105.58890,0.43395
105.34783,0.42541
105.10676,0.41422
104.86569,0.40115
104.62462,0.38819
104.38355,0.37729
104.14248,0.36894
103.90141,0.36239
103.66034,0.35703
103.41927,0.35261
103.17820,0.34790
102.93713,0.34090
102.69606,0.33115
102.45499,0.32034
102.21392,0.31060
101.97285,0.30321
101.73177,0.29896
101.49070,0.29815
101.24963,0.29934
101.00856,0.29943
100.76749,0.29582
100.52642,0.28809
100.28535,0.27813
100.04428,0.27002
99.80321,0.26782
99.56214,0.27153
99.32107,0.27560
99.08000,0.27382
98.83893,0.26632
98.59786,0.25905
98.35679,0.25688
98.11572,0.25977
97.87465,0.26405
97.63358,0.26576
97.39250,0.26396
97.15143,0.26159
96.91036,0.26278
96.66929,0.26878
96.42822,0.27643
96.18715,0.28121
95.94608,0.28264
95.70501,0.28524
95.46394,0.29287
95.22287,0.30318
94.98180,0.30973
94.74073,0.31115
94.49966,0.31317
94.25859,0.31885
94.01752,0.32324
93.77645,0.32122
93.53538,0.31713
93.29431,0.31833
93.05323,0.32345
92.81216,0.32493
92.57109,0.32137
92.33002,0.31862
92.08895,0.31924
91.84788,0.32112
91.60681,0.32412
91.36574,0.32997
91.12467,0.33887
90.88360,0.35160
90.64253,0.37020
90.40146,0.39412
90.16039,0.42143
89.91932,0.45352
89.67825,0.49252
89.43718,0.53664
89.19611,0.58287
88.95504,0.62920
88.71396,0.67118
88.47289,0.70162
88.23182,0.71465
87.99075,0.70913
87.74968,0.68983
87.50861,0.66224
87.26754,0.62710
87.02647,0.58567
86.78540,0.54407
86.54433,0.50690
86.30326,0.47320
86.06219,0.44160
85.82112,0.41374
85.58005,0.39030
85.33898,0.36867
85.09791,0.34678
84.85684,0.32593
84.61577,0.30836
84.37469,0.29442
84.13362,0.28301
83.89255,0.27315
83.65148,0.26440
83.41041,0.25651
83.16934,0.24928
82.92827,0.24262
82.68720,0.23659
82.44613,0.23123
82.20506,0.22617
81.96399,0.22098
81.72292,0.21602
81.48185,0.21235
81.24078,0.21026
80.99971,0.20860
80.75864,0.20579
80.51757,0.20156
80.27650,0.19731
80.03542,0.19424
79.79435,0.19179
79.55328,0.18897
79.31221,0.18638
79.07114,0.18553
78.83007,0.18663
78.58900,0.18816
78.34793,0.18820
78.10686,0.18543
77.86579,0.18007
77.62472,0.17442
77.38365,0.17129
77.14258,0.17156
76.90151,0.17352
76.66044,0.17460
76.41937,0.17330
76.17830,0.17008
75.93723,0.16652
75.69615,0.16399
75.45508,0.16261
75.21401,0.16169
74.97294,0.16075
74.73187,0.15974
74.49080,0.15850
74.24973,0.15671
74.00866,0.15504
73.76759,0.15526
73.52652,0.15820
73.28545,0.16168
73.04438,0.16202
72.80331,0.15813
72.56224,0.15304
72.32117,0.15110
72.08010,0.15435
71.83903,0.16131
71.59796,0.16868
71.35688,0.17374
71.11581,0.17563
70.87474,0.17501
70.63367,0.17334
70.39260,0.17273
70.15153,0.17596
69.91046,0.18587
69.66939,0.20334
69.42832,0.22510
69.18725,0.24451
68.94618,0.25551
68.70511,0.25617
68.46404,0.24784
68.22297,0.23266
67.98190,0.21321
67.74083,0.19304
67.49976,0.17598
67.25869,0.16458
67.01761,0.15885
66.77654,0.15608
66.53547,0.15310
66.29440,0.14885
66.05333,0.14448
65.81226,0.14140
65.57119,0.14031
65.33012,0.14180
65.08905,0.14668
64.84798,0.15556
64.60691,0.16805
64.36584,0.18189
64.12477,0.19295
63.88370,0.19736
63.64263,0.19428
63.40156,0.18616
63.16049,0.17628
62.91942,0.16665
62.67834,0.15784
62.43727,0.14972
62.19620,0.14231
61.95513,0.13620
61.71406,0.13197
61.47299,0.12945
61.23192,0.12803
60.99085,0.12798
60.74978,0.13018
60.50871,0.13454
60.26764,0.13987
60.02657,0.14575
59.78550,0.15307
59.54443,0.16175
59.30336,0.16918
59.06229,0.17197
58.82122,0.16870
58.58015,0.16066
58.33907,0.15046
58.09800,0.14014
57.85693,0.13078
57.61586,0.12385
57.37479,0.12077
57.13372,0.12100
56.89265,0.12253
56.65158,0.12490
56.41051,0.12952
56.16944,0.13700
55.92837,0.14571
55.68730,0.15250
55.44623,0.15429
55.20516,0.14946
54.96409,0.13844
54.72302,0.12441
54.48195,0.11273
54.24088,0.10787
53.99980,0.11164
53.75873,0.12414
53.51766,0.14427
53.27659,0.16805
53.03552,0.18639
52.79445,0.18883
52.55338,0.17499
52.31231,0.15489
52.07124,0.13708
51.83017,0.12667
51.58910,0.12832
51.34803,0.14392
51.10696,0.16724
50.86589,0.18123
50.62482,0.16957
50.38375,0.13929
50.14268,0.11341
49.90161,0.10795
49.66053,0.12796
49.41946,0.16696
49.17839,0.19336
48.93732,0.17004
48.69625,0.12204
48.45518,0.09462
48.21411,0.10606
47.97304,0.14579
47.73197,0.16778
47.49090,0.14134
47.24983,0.11358
47.00876,0.11913
46.76769,0.13732
46.52662,0.12692
46.28555,0.10054
46.04448,0.09507
45.80341,0.10668
45.56234,0.10880
45.32126,0.10182
45.08019,0.10279
44.83912,0.11048
44.59805,0.11705
44.35698,0.12209
44.11591,0.12440
43.87484,0.12366
43.63377,0.12632
43.39270,0.13312
43.15163,0.13682
42.91056,0.13807
42.66949,0.14328
42.42842,0.15027
42.18735,0.15142
41.94628,0.14478
41.70521,0.13594
41.46414,0.13280
41.22307,0.13748
40.98199,0.14446
40.74092,0.14939
40.49985,0.15403
40.25878,0.15806
40.01771,0.15592
39.77664,0.14877
39.53557,0.14799
39.29450,0.15859
39.05343,0.17258
38.81236,0.18262
38.57129,0.19191
38.33022,0.20517
38.08915,0.22066
37.84808,0.23304
37.60701,0.23651
37.36594,0.23019
37.12487,0.22147
36.88380,0.21818
36.64272,0.21897
36.40165,0.21758
36.16058,0.21283
35.91951,0.20740
35.67844,0.20249
35.43737,0.19760
35.19630,0.19167
34.95523,0.18361
34.71416,0.17555
34.47309,0.17389
34.23202,0.18077
33.99095,0.18521
33.74988,0.17335
33.50881,0.14933
33.26774,0.13408
33.02667,0.14109
32.78560,0.16164
32.54453,0.17828
32.30345,0.18343
32.06238,0.17845
31.82131,0.16463
31.58024,0.14172
31.33917,0.11352
31.09810,0.08865
30.85703,0.07148
30.61596,0.05862
30.37489,0.04749
30.13382,0.04120
29.89275,0.04246
29.65168,0.04855
29.41061,0.05454
29.16954,0.05642
28.92847,0.05050
28.68740,0.03658
28.44633,0.02164
28.20526,0.01192
27.96418,0.00277
27.72311,-0.01440
27.48204,-0.03697
27.24097,-0.05260
26.99990,-0.05744
26.75883,-0.06036
26.51776,-0.06640
26.27669,-0.06982
26.03562,-0.06762
25.79455,-0.06666
25.55348,-0.07540
25.31241,-0.09459
25.07134,-0.11428
24.83027,-0.12328
24.58920,-0.12142
24.34813,-0.12066
24.10706,-0.13551
23.86599,-0.16648
23.62491,-0.19419
23.38384,-0.20176
23.14277,-0.19335
22.90170,-0.18457
22.66063,-0.18932
22.41956,-0.21301
22.17849,-0.25043
21.93742,-0.28439
21.69635,-0.29358
21.45528,-0.27278
21.21421,-0.23869
20.97314,-0.21336
20.73207,-0.20708
20.49100,-0.21551
20.24993,-0.22807
20.00886,-0.23399
19.76779,-0.22783
19.52672,-0.21611
19.28564,-0.20919
19.04457,-0.21398
18.80350,-0.23573
18.56243,-0.26978
18.32136,-0.29866
18.08029,-0.31436
17.83922,-0.32709
17.59815,-0.34223
17.35708,-0.35448
17.11601,-0.35626
16.87494,-0.34717
16.63387,-0.34023
16.39280,-0.34407
16.15173,-0.35133
15.91066,-0.35437
15.66959,-0.35683
15.42852,-0.36534
15.18745,-0.37117
14.94637,-0.36065
14.70530,-0.35062
14.46423,-0.35980
14.22316,-0.38333
13.98209,-0.40682
13.74102,-0.43037
13.49995,-0.45368
13.25888,-0.45178
13.01781,-0.42034
12.77674,-0.39209
12.53567,-0.37799
12.29460,-0.37802
12.05353,-0.39582
11.81246,-0.42646
11.57139,-0.44905
11.33032,-0.43521
11.08925,-0.41998
10.84818,-0.41839
10.60710,-0.43880
10.36603,-0.45885
10.12496,-0.42324
9.88389,-0.39155
9.64282,-0.38862
9.40175,-0.40027
9.16068,-0.40002
8.91961,-0.39709
8.67854,-0.40583
8.43747,-0.42302
8.19640,-0.43487
7.95533,-0.43623
7.71426,-0.44003
7.47319,-0.45235
7.23212,-0.45187
6.99105,-0.45214
6.74998,-0.46279
6.50891,-0.45228
6.26783,-0.40997
6.02676,-0.36716
5.78569,-0.34764
5.54462,-0.34935
5.30355,-0.35872
5.06248,-0.37269
4.82141,-0.39531
4.58034,-0.41963
4.33927,-0.41902
4.09820,-0.41209
3.85713,-0.40005
3.61606,-0.38032
3.37499,-0.36604
3.13392,-0.37839
2.89285,-0.41297
2.65178,-0.43385
2.41071,-0.42689
2.16964,-0.42501
1.92856,-0.42980
1.68749,-0.42313
1.44642,-0.40778
1.20535,-0.39598
0.96428,-0.38238
0.72321,-0.37666
0.48214,-0.37406
0.24107,-0.35929
-0.00000,-0.22332
