399.69498,1.48256
399.45391,1.47013
399.21284,1.46983
398.97177,1.48231
398.73070,1.49172
398.48963,1.48685
398.24856,1.47943
398.00749,1.48525
397.76642,1.49975
397.52535,1.50476
397.28428,1.49303
397.04321,1.47477
396.80214,1.46279
396.56107,1.46175
396.32000,1.47088
396.07892,1.49047
395.83785,1.51926
395.59678,1.54750
395.35571,1.56081
395.11464,1.55285
394.87357,1.52813
394.63250,1.49952
394.39143,1.48149
394.15036,1.48056
393.90929,1.49467
393.66822,1.51533
393.42715,1.53117
393.18608,1.53789
392.94501,1.54166
392.70394,1.54551
392.46287,1.54289
392.22180,1.53275
391.98073,1.52508
391.73965,1.52168
391.49858,1.51303
391.25751,1.49958
391.01644,1.49392
390.77537,1.49853
390.53430,1.50520
390.29323,1.50838
390.05216,1.51107
389.81109,1.52193
389.57002,1.53741
389.32895,1.54354
389.08788,1.53592
388.84681,1.52342
388.60574,1.51440
388.36467,1.51341
388.12360,1.52450
387.88253,1.53689
387.64146,1.52294
387.40038,1.47627
387.15931,1.42579
386.91824,1.39735
386.67717,1.38849
386.43610,1.38204
386.19503,1.37370
385.95396,1.37572
385.71289,1.39249
385.47182,1.40585
385.23075,1.39645
384.98968,1.37186
384.74861,1.35454
384.50754,1.35521
384.26647,1.37227
384.02540,1.39708
383.78433,1.41214
383.54326,1.39998
383.30219,1.36393
383.06111,1.32653
382.82004,1.30562
382.57897,1.30355
382.33790,1.31052
382.09683,1.31336
381.85576,1.30503
381.61469,1.28821
381.37362,1.27383
381.13255,1.27368
380.89148,1.28766
380.65041,1.29842
380.40934,1.29072
380.16827,1.27488
379.92720,1.27252
379.68613,1.28667
379.44506,1.30232
379.20399,1.30714
378.96292,1.30229
378.72184,1.29902
378.48077,1.30527
378.23970,1.31588
377.99863,1.32014
377.75756,1.31927
377.51649,1.32436
377.27542,1.34127
377.03435,1.36620
376.79328,1.38987
376.55221,1.40613
376.31114,1.41562
376.07007,1.41775
375.82900,1.40933
375.58793,1.39456
375.34686,1.38604
375.10579,1.39218
374.86472,1.40873
374.62365,1.42385
374.38257,1.42885
374.14150,1.42819
373.90043,1.43079
373.65936,1.43224
373.41829,1.42115
373.17722,1.40026
372.93615,1.38219
372.69508,1.36928
372.45401,1.35448
372.21294,1.33848
371.97187,1.33232
371.73080,1.33969
371.48973,1.34843
371.24866,1.34585
371.00759,1.33298
370.76652,1.31840
370.52545,1.30589
370.28437,1.29570
370.04330,1.29302
369.80223,1.30002
369.56116,1.30611
369.32009,1.29988
369.07902,1.28357
368.83795,1.26701
368.59688,1.25482
368.35581,1.24687
368.11474,1.24340
367.87367,1.24238
367.63260,1.23759
367.39153,1.22722
367.15046,1.21881
366.90939,1.21813
366.66832,1.21987
366.42725,1.21534
366.18618,1.20547
365.94510,1.19746
365.70403,1.19261
365.46296,1.18799
365.22189,1.18524
364.98082,1.18710
364.73975,1.19084
364.49868,1.19136
364.25761,1.18722
364.01654,1.18047
363.77547,1.17323
363.53440,1.16721
363.29333,1.16418
363.05226,1.16440
362.81119,1.16635
362.57012,1.16885
362.32905,1.17181
362.08798,1.17493
361.84691,1.17620
361.60583,1.17329
361.36476,1.16597
361.12369,1.15632
360.88262,1.14744
360.64155,1.14393
360.40048,1.14933
360.15941,1.15963
359.91834,1.16495
359.67727,1.16104
359.43620,1.15335
359.19513,1.14766
358.95406,1.14459
358.71299,1.14458
358.47192,1.14961
358.23085,1.15705
357.98978,1.15903
357.74871,1.15277
357.50764,1.14498
357.26656,1.14310
357.02549,1.14821
356.78442,1.15726
356.54335,1.16641
356.30228,1.17074
356.06121,1.16604
355.82014,1.15403
355.57907,1.14333
355.33800,1.14299
355.09693,1.15370
354.85586,1.16644
354.61479,1.17151
354.37372,1.16801
354.13265,1.16139
353.89158,1.15513
353.65051,1.15032
353.40944,1.14920
353.16837,1.15231
352.92729,1.15549
352.68622,1.15453
352.44515,1.15054
352.20408,1.14828
351.96301,1.15061
351.72194,1.15574
351.48087,1.16009
351.23980,1.16186
350.99873,1.16082
350.75766,1.15765
350.51659,1.15384
350.27552,1.15052
350.03445,1.14734
349.79338,1.14469
349.55231,1.14578
349.31124,1.15323
349.07017,1.16408
348.82910,1.17207
348.58802,1.17589
348.34695,1.18088
348.10588,1.19103
347.86481,1.20246
347.62374,1.20743
347.38267,1.20463
347.14160,1.19999
346.90053,1.19736
346.65946,1.19562
346.41839,1.19525
346.17732,1.20067
345.93625,1.21284
345.69518,1.22428
345.45411,1.22721
345.21304,1.22420
344.97197,1.22338
344.73090,1.22735
344.48983,1.23377
344.24875,1.24210
344.00768,1.25290
343.76661,1.26228
343.52554,1.26565
343.28447,1.26616
343.04340,1.27088
342.80233,1.28092
342.56126,1.28943
342.32019,1.29206
342.07912,1.29524
341.83805,1.30644
341.59698,1.32247
341.35591,1.33253
341.11484,1.33057
340.87377,1.32159
340.63270,1.31490
340.39163,1.31384
340.15056,1.31563
339.90948,1.31938
339.66841,1.32802
339.42734,1.34118
339.18627,1.35449
338.94520,1.36728
338.70413,1.38310
338.46306,1.40255
338.22199,1.41956
337.98092,1.42356
337.73985,1.41106
337.49878,1.39426
337.25771,1.38563
337.01664,1.38463
336.77557,1.38779
336.53450,1.39730
336.29343,1.40688
336.05236,1.40379
335.81129,1.39098
335.57021,1.38630
335.32914,1.39929
335.08807,1.41560
334.84700,1.41624
334.60593,1.40420
334.36486,1.39536
334.12379,1.39605
333.88272,1.39630
333.64165,1.38613
333.40058,1.37060
333.15951,1.36191
332.91844,1.36350
332.67737,1.36532
332.43630,1.35631
332.19523,1.33936
331.95416,1.32337
331.71309,1.30971
331.47202,1.29654
331.23094,1.28822
330.98987,1.28893
330.74880,1.29514
330.50773,1.30131
330.26666,1.30547
330.02559,1.30536
329.78452,1.29930
329.54345,1.29214
329.30238,1.28874
329.06131,1.28746
328.82024,1.28636
328.57917,1.28779
328.33810,1.29319
328.09703,1.29707
327.85596,1.29176
327.61489,1.27843
327.37382,1.26608
327.13275,1.26024
326.89167,1.26483
326.65060,1.28085
326.40953,1.29657
326.16846,1.29782
325.92739,1.28892
325.68632,1.28432
325.44525,1.28374
325.20418,1.27583
324.96311,1.26124
324.72204,1.25510
324.48097,1.26538
324.23990,1.28219
323.99883,1.28991
323.75776,1.28252
323.51669,1.26484
323.27562,1.24972
323.03455,1.25309
322.79348,1.27768
322.55240,1.30605
322.31133,1.32277
322.07026,1.33428
321.82919,1.34617
321.58812,1.34846
321.34705,1.33938
321.10598,1.33233
320.86491,1.33787
320.62384,1.35628
320.38277,1.37912
320.14170,1.39293
319.90063,1.38725
319.65956,1.36441
319.41849,1.34030
319.17742,1.32941
318.93635,1.33280
318.69528,1.34211
318.45421,1.34775
318.21313,1.34428
317.97206,1.33342
317.73099,1.32259
317.48992,1.32050
317.24885,1.32951
317.00778,1.34116
316.76671,1.34469
316.52564,1.33497
316.28457,1.31763
316.04350,1.30724
315.80243,1.31512
315.56136,1.33658
315.32029,1.35171
315.07922,1.35075
314.83815,1.34866
314.59708,1.35672
314.35601,1.36334
314.11494,1.35611
313.87386,1.34356
313.63279,1.33806
313.39172,1.34032
313.15065,1.35089
312.90958,1.36736
312.66851,1.37754
312.42744,1.38056
312.18637,1.39269
311.94530,1.42025
311.70423,1.43999
311.46316,1.42599
311.22209,1.38865
310.98102,1.35847
310.73995,1.35267
310.49888,1.36938
310.25781,1.39887
310.01674,1.42954
309.77567,1.44373
309.53459,1.42965
309.29352,1.40242
309.05245,1.38821
308.81138,1.39302
308.57031,1.40179
308.32924,1.40208
308.08817,1.39480
307.84710,1.38346
307.60603,1.37076
307.36496,1.36243
307.12389,1.36526
306.88282,1.38246
306.64175,1.40927
306.40068,1.43189
306.15961,1.43563
305.91854,1.41961
305.67747,1.40101
305.43640,1.39908
305.19532,1.41436
304.95425,1.42745
304.71318,1.42029
304.47211,1.39485
304.23104,1.36887
303.98997,1.35296
303.74890,1.34546
303.50783,1.34278
303.26676,1.34127
303.02569,1.33912
302.78462,1.34195
302.54355,1.35580
302.30248,1.37387
302.06141,1.37984
301.82034,1.36788
301.57927,1.35046
301.33820,1.34013
301.09713,1.33593
300.85605,1.33021
300.61498,1.32137
300.37391,1.31326
300.13284,1.30421
299.89177,1.28785
299.65070,1.26764
299.40963,1.25683
299.16856,1.25975
298.92749,1.26251
298.68642,1.25042
298.44535,1.22717
298.20428,1.20626
297.96321,1.19562
297.72214,1.19424
297.48107,1.19567
297.24000,1.19267
296.99893,1.18257
296.75786,1.16875
296.51678,1.15681
296.27571,1.15103
296.03464,1.15295
295.79357,1.16104
295.55250,1.17054
295.31143,1.17469
295.07036,1.17022
294.82929,1.16084
294.58822,1.15179
294.34715,1.14442
294.10608,1.13818
293.86501,1.13377
293.62394,1.13300
293.38287,1.13698
293.14180,1.14313
292.90073,1.14471
292.65966,1.13779
292.41859,1.12678
292.17751,1.11983
291.93644,1.12007
291.69537,1.12284
291.45430,1.12084
291.21323,1.11179
290.97216,1.10040
290.73109,1.09274
290.49002,1.09006
290.24895,1.08745
290.00788,1.07984
289.76681,1.07011
289.52574,1.06685
289.28467,1.07314
289.04360,1.08146
288.80253,1.08294
288.56146,1.07832
288.32039,1.07438
288.07932,1.07436
287.83824,1.07516
287.59717,1.07270
287.35610,1.06730
287.11503,1.06181
286.87396,1.05732
286.63289,1.05361
286.39182,1.05203
286.15075,1.05419
285.90968,1.05855
285.66861,1.06103
285.42754,1.05940
285.18647,1.05493
284.94540,1.04995
284.70433,1.04656
284.46326,1.04730
284.22219,1.05368
283.98112,1.06282
283.74005,1.06840
283.49897,1.06682
283.25790,1.06004
283.01683,1.05201
282.77576,1.04536
282.53469,1.04122
282.29362,1.03973
282.05255,1.04011
281.81148,1.04157
281.57041,1.04476
281.32934,1.05047
281.08827,1.05650
280.84720,1.05927
280.60613,1.05925
280.36506,1.05968
280.12399,1.06031
279.88292,1.05790
279.64185,1.05247
279.40078,1.04780
279.15970,1.04630
278.91863,1.04726
278.67756,1.04919
278.43649,1.05207
278.19542,1.05649
277.95435,1.06135
277.71328,1.06404
277.47221,1.06302
277.23114,1.05931
276.99007,1.05535
276.74900,1.05243
276.50793,1.05006
276.26686,1.04751
276.02579,1.04519
275.78472,1.04469
275.54365,1.04752
275.30258,1.05337
275.06151,1.05940
274.82043,1.06287
274.57936,1.06459
274.33829,1.06680
274.09722,1.06851
273.85615,1.06746
273.61508,1.06568
273.37401,1.06755
273.13294,1.07379
272.89187,1.08131
272.65080,1.08760
272.40973,1.09159
272.16866,1.09216
271.92759,1.08980
271.68652,1.08824
271.44545,1.09102
271.20438,1.09725
270.96331,1.10314
270.72224,1.10611
270.48116,1.10632
270.24009,1.10578
269.99902,1.10724
269.75795,1.11175
269.51688,1.11761
269.27581,1.12369
269.03474,1.13152
268.79367,1.14160
268.55260,1.15102
268.31153,1.15741
268.07046,1.16199
267.82939,1.16661
267.58832,1.17170
267.34725,1.17658
267.10618,1.17961
266.86511,1.17991
266.62404,1.17879
266.38297,1.17789
266.14189,1.17776
265.90082,1.17988
265.65975,1.18702
265.41868,1.19906
265.17761,1.21214
264.93654,1.22436
264.69547,1.23815
264.45440,1.25399
264.21333,1.26799
263.97226,1.27957
263.73119,1.29379
263.49012,1.31258
263.24905,1.33193
263.00798,1.34886
262.76691,1.36462
262.52584,1.38081
262.28477,1.39739
262.04370,1.41453
261.80262,1.43163
261.56155,1.44585
261.32048,1.45615
261.07941,1.46678
260.83834,1.48455
260.59727,1.51255
260.35620,1.54600
260.11513,1.57606
259.87406,1.60037
259.63299,1.62593
259.39192,1.65732
259.15085,1.69006
258.90978,1.72254
258.66871,1.76631
258.42764,1.83318
258.18657,1.90310
257.94550,1.91648
257.70443,1.86600
257.46335,1.80542
257.22228,1.77013
256.98121,1.77135
256.74014,1.80262
256.49907,1.83971
256.25800,1.85174
256.01693,1.83213
255.77586,1.80476
255.53479,1.79124
255.29372,1.79148
255.05265,1.79034
254.81158,1.77594
254.57051,1.74427
254.32944,1.70051
254.08837,1.66336
253.84730,1.64739
253.60623,1.64712
253.36516,1.64794
253.12408,1.64362
252.88301,1.63566
252.64194,1.62601
252.40087,1.61711
252.15980,1.61031
251.91873,1.60295
251.67766,1.59010
251.43659,1.57297
251.19552,1.56407
250.95445,1.57433
250.71338,1.59422
250.47231,1.59939
250.23124,1.58132
249.99017,1.55805
249.74910,1.54680
249.50803,1.54416
249.26696,1.54659
249.02589,1.55574
248.78481,1.56523
248.54374,1.56854
248.30267,1.56990
248.06160,1.58070
247.82053,1.60269
247.57946,1.62429
247.33839,1.63468
247.09732,1.62999
246.85625,1.61091
246.61518,1.58700
246.37411,1.57552
246.13304,1.58741
245.89197,1.61573
245.65090,1.63946
245.40983,1.64442
245.16876,1.63744
244.92769,1.63336
244.68661,1.64470
244.44554,1.68323
244.20447,1.74770
243.96340,1.81024
243.72233,1.85532
243.48126,1.90605
243.24019,1.95439
242.99912,1.97116
242.75805,1.97431
242.51698,1.92236
242.27591,1.78274
242.03484,1.66217
241.79377,1.56567
241.55270,1.47891
241.31163,1.40510
241.07056,1.34732
240.82949,1.30000
240.58842,1.25392
240.34734,1.20584
240.10627,1.16087
239.86520,1.12380
239.62413,1.09307
239.38306,1.06561
239.14199,1.04211
238.90092,1.02300
238.65985,1.00491
238.41878,0.98489
238.17771,0.96387
237.93664,0.94364
237.69557,0.92439
237.45450,0.90681
237.21343,0.89293
236.97236,0.88283
236.73129,0.87395
236.49022,0.86392
236.24915,0.85224
236.00807,0.83982
235.76700,0.82835
235.52593,0.81897
235.28486,0.81130
235.04379,0.80423
234.80272,0.79752
234.56165,0.79197
234.32058,0.78826
234.07951,0.78590
233.83844,0.78383
233.59737,0.78196
233.35630,0.78111
233.11523,0.78078
232.87416,0.77865
232.63309,0.77318
232.39202,0.76601
232.15095,0.76109
231.90988,0.76115
231.66880,0.76464
231.42773,0.76692
231.18666,0.76585
230.94559,0.76420
230.70452,0.76501
230.46345,0.76728
230.22238,0.76818
229.98131,0.76704
229.74024,0.76511
229.49917,0.76296
229.25810,0.76027
229.01703,0.75730
228.77596,0.75463
228.53489,0.75244
228.29382,0.75122
228.05275,0.75182
227.81168,0.75343
227.57061,0.75377
227.32953,0.75271
227.08846,0.75275
226.84739,0.75468
226.60632,0.75636
226.36525,0.75616
226.12418,0.75487
225.88311,0.75338
225.64204,0.75191
225.40097,0.75220
225.15990,0.75633
224.91883,0.76254
224.67776,0.76693
224.43669,0.76952
224.19562,0.77284
223.95455,0.77633
223.71348,0.77806
223.47241,0.77882
223.23134,0.78011
222.99026,0.78240
222.74919,0.78732
222.50812,0.79626
222.26705,0.80647
222.02598,0.81338
221.78491,0.81563
221.54384,0.81571
221.30277,0.81736
221.06170,0.82325
220.82063,0.83353
220.57956,0.84665
220.33849,0.86133
220.09742,0.87663
219.85635,0.89057
219.61528,0.90071
219.37421,0.90643
219.13314,0.91039
218.89207,0.91759
218.65099,0.93177
218.40992,0.95146
218.16885,0.97047
217.92778,0.98374
217.68671,0.99277
217.44564,1.00320
217.20457,1.01747
216.96350,1.03278
216.72243,1.04602
216.48136,1.05769
216.24029,1.07057
215.99922,1.08648
215.75815,1.10398
215.51708,1.11839
215.27601,1.12693
215.03494,1.13423
214.79387,1.14869
214.55280,1.17252
214.31172,1.19756
214.07065,1.21344
213.82958,1.21940
213.58851,1.22345
213.34744,1.23053
213.10637,1.23846
212.86530,1.24591
212.62423,1.25750
212.38316,1.27638
212.14209,1.29650
211.90102,1.30926
211.65995,1.31337
211.41888,1.31125
211.17781,1.30386
210.93674,1.29472
210.69567,1.28931
210.45460,1.28909
210.21353,1.29269
209.97245,1.29987
209.73138,1.30773
209.49031,1.30916
209.24924,1.30140
209.00817,1.28892
208.76710,1.27745
208.52603,1.27113
208.28496,1.27257
208.04389,1.28156
207.80282,1.29235
207.56175,1.29379
207.32068,1.27931
207.07961,1.25591
206.83854,1.23616
206.59747,1.22576
206.35640,1.22156
206.11533,1.21599
205.87426,1.20238
205.63318,1.18217
205.39211,1.16404
205.15104,1.15269
204.90997,1.14534
204.66890,1.13835
204.42783,1.12943
204.18676,1.11435
203.94569,1.08922
203.70462,1.05783
203.46355,1.03059
203.22248,1.01468
202.98141,1.00788
202.74034,1.00111
202.49927,0.98719
202.25820,0.96675
202.01713,0.94480
201.77606,0.92549
201.53499,0.91033
201.29391,0.89779
201.05284,0.88456
200.81177,0.86894
200.57070,0.85280
200.32963,0.83986
200.08856,0.83134
199.84749,0.82330
199.60642,0.81083
199.36535,0.79470
199.12428,0.78009
198.88321,0.76976
198.64214,0.76176
198.40107,0.75292
198.16000,0.74278
197.91893,0.73290
197.67786,0.72362
197.43679,0.71423
197.19572,0.70530
196.95464,0.69773
196.71357,0.69008
196.47250,0.68031
196.23143,0.66929
195.99036,0.65995
195.74929,0.65406
195.50822,0.65069
195.26715,0.64695
195.02608,0.64077
194.78501,0.63341
194.54394,0.62784
194.30287,0.62481
194.06180,0.62147
193.82073,0.61501
193.57966,0.60710
193.33859,0.60209
193.09752,0.60065
192.85645,0.59764
192.61537,0.58916
192.37430,0.57871
192.13323,0.57218
191.89216,0.57030
191.65109,0.56865
191.41002,0.56415
191.16895,0.55894
190.92788,0.55670
190.68681,0.55772
190.44574,0.55939
190.20467,0.55976
189.96360,0.55818
189.72253,0.55422
189.48146,0.54887
189.24039,0.54499
188.99932,0.54429
188.75825,0.54511
188.51718,0.54460
188.27610,0.54231
188.03503,0.54052
187.79396,0.54073
187.55289,0.54174
187.31182,0.54202
187.07075,0.54197
186.82968,0.54186
186.58861,0.54053
186.34754,0.53806
186.10647,0.53678
185.86540,0.53797
185.62433,0.54006
185.38326,0.54121
185.14219,0.54148
184.90112,0.54184
184.66005,0.54259
184.41898,0.54389
184.17791,0.54639
183.93683,0.54978
183.69576,0.55191
183.45469,0.55164
183.21362,0.55134
182.97255,0.55363
182.73148,0.55759
182.49041,0.56051
182.24934,0.56181
182.00827,0.56302
181.76720,0.56511
181.52613,0.56797
181.28506,0.57113
181.04399,0.57338
180.80292,0.57340
180.56185,0.57212
180.32078,0.57198
180.07971,0.57358
179.83864,0.57608
179.59756,0.58012
179.35649,0.58654
179.11542,0.59435
178.87435,0.60314
178.63328,0.61381
178.39221,0.62529
178.15114,0.63491
177.91007,0.64279
177.66900,0.65146
177.42793,0.66185
177.18686,0.67350
176.94579,0.68682
176.70472,0.70230
176.46365,0.71912
176.22258,0.73579
175.98151,0.75218
175.74044,0.77055
175.49937,0.79308
175.25829,0.81829
175.01722,0.84271
174.77615,0.86598
174.53508,0.89109
174.29401,0.91953
174.05294,0.94790
173.81187,0.96951
173.57080,0.98042
173.32973,0.98425
173.08866,0.98803
172.84759,0.99474
172.60652,1.00237
172.36545,1.00795
172.12438,1.01106
171.88331,1.01426
171.64224,1.01967
171.40117,1.02675
171.16010,1.03417
170.91902,1.04056
170.67795,1.04219
170.43688,1.03454
170.19581,1.01793
169.95474,0.99954
169.71367,0.98821
169.47260,0.98726
169.23153,0.99262
168.99046,0.99664
168.74939,0.99462
168.50832,0.98750
168.26725,0.97794
168.02618,0.96683
167.78511,0.95503
167.54404,0.94512
167.30297,0.93969
167.06190,0.93970
166.82083,0.94476
166.57975,0.95344
166.33868,0.96385
166.09761,0.97417
165.85654,0.98196
165.61547,0.98512
165.37440,0.98491
165.13333,0.98564
164.89226,0.99141
164.65119,1.00481
164.41012,1.02578
164.16905,1.04951
163.92798,1.06987
163.68691,1.08549
163.44584,1.09732
163.20477,1.10451
162.96370,1.10806
162.72263,1.11336
162.48156,1.12565
162.24048,1.14410
161.99941,1.16227
161.75834,1.17460
161.51727,1.17966
161.27620,1.17789
161.03513,1.16958
160.79406,1.15752
160.55299,1.14798
160.31192,1.14484
160.07085,1.14602
159.82978,1.14746
159.58871,1.14768
159.34764,1.14704
159.10657,1.14519
158.86550,1.14113
158.62443,1.13543
158.38336,1.13018
158.14229,1.12527
157.90121,1.11651
157.66014,1.10078
157.41907,1.08153
157.17800,1.06537
156.93693,1.05438
156.69586,1.04554
156.45479,1.03834
156.21372,1.03750
155.97265,1.04410
155.73158,1.04871
155.49051,1.03887
155.24944,1.01388
155.00837,0.98650
154.76730,0.96907
154.52623,0.96392
154.28516,0.96518
154.04409,0.96344
153.80302,0.95020
153.56194,0.92442
153.32087,0.89425
153.07980,0.86911
152.83873,0.85170
152.59766,0.83737
152.35659,0.81984
152.11552,0.79723
151.87445,0.77307
151.63338,0.75239
151.39231,0.73767
151.15124,0.72702
150.91017,0.71539
150.66910,0.69894
150.42803,0.67851
150.18696,0.65825
149.94589,0.64153
149.70482,0.62892
149.46375,0.61920
149.22267,0.61076
148.98160,0.60229
148.74053,0.59329
148.49946,0.58433
148.25839,0.57636
148.01732,0.56966
147.77625,0.56332
147.53518,0.55677
147.29411,0.55163
147.05304,0.55053
146.81197,0.55375
146.57090,0.55837
146.32983,0.56139
146.08876,0.56334
145.84769,0.56766
145.60662,0.57600
145.36555,0.58517
145.12448,0.59015
144.88340,0.59059
144.64233,0.59102
144.40126,0.59451
144.16019,0.59990
143.91912,0.60501
143.67805,0.60946
143.43698,0.61303
143.19591,0.61346
142.95484,0.60793
142.71377,0.59652
142.47270,0.58266
142.23163,0.56971
141.99056,0.55872
141.74949,0.54954
141.50842,0.54184
141.26735,0.53483
141.02628,0.52790
140.78521,0.52170
140.54413,0.51788
140.30306,0.51728
140.06199,0.51920
139.82092,0.52266
139.57985,0.52763
139.33878,0.53390
139.09771,0.53977
138.85664,0.54399
138.61557,0.54837
138.37450,0.55616
138.13343,0.56831
137.89236,0.58305
137.65129,0.59823
137.41022,0.61293
137.16915,0.62788
136.92808,0.64489
136.68701,0.66498
136.44594,0.68664
136.20486,0.70758
135.96379,0.72911
135.72272,0.75588
135.48165,0.78959
135.24058,0.82654
134.99951,0.86337
134.75844,0.90039
134.51737,0.93695
134.27630,0.97001
134.03523,0.99883
133.79416,1.02546
133.55309,1.05306
133.31202,1.08737
133.07095,1.13156
132.82988,1.17520
132.58881,1.20117
132.34774,1.20868
132.10667,1.20890
131.86559,1.20390
131.62452,1.19107
131.38345,1.17522
131.14238,1.16259
130.90131,1.14918
130.66024,1.12576
130.41917,1.09184
130.17810,1.05397
129.93703,1.01451
129.69596,0.97130
129.45489,0.92572
129.21382,0.88303
128.97275,0.84539
128.73168,0.81007
128.49061,0.77474
128.24954,0.74078
128.00847,0.71011
127.76740,0.68192
127.52632,0.65443
127.28525,0.62799
127.04418,0.60430
126.80311,0.58374
126.56204,0.56463
126.32097,0.54542
126.07990,0.52687
125.83883,0.51119
125.59776,0.49884
125.35669,0.48744
125.11562,0.47482
124.87455,0.46197
124.63348,0.45159
124.39241,0.44463
124.15134,0.43978
123.91027,0.43561
123.66920,0.43158
123.42812,0.42754
123.18705,0.42354
122.94598,0.41985
122.70491,0.41704
122.46384,0.41573
122.22277,0.41631
121.98170,0.41853
121.74063,0.42179
121.49956,0.42582
121.25849,0.43108
121.01742,0.43839
120.77635,0.44803
120.53528,0.45945
120.29421,0.47212
120.05314,0.48648
119.81207,0.50317
119.57100,0.52165
119.32993,0.54090
119.08885,0.56107
118.84778,0.58366
118.60671,0.61014
118.36564,0.64074
118.12457,0.67380
117.88350,0.70594
117.64243,0.73430
117.40136,0.75925
117.16029,0.78400
116.91922,0.80936
116.67815,0.82911
116.43708,0.83360
116.19601,0.82018
115.95494,0.79646
115.71387,0.77151
115.47280,0.74812
115.23173,0.72441
114.99066,0.70000
114.74958,0.67817
114.50851,0.66245
114.26744,0.65378
114.02637,0.65177
113.78530,0.65597
113.54423,0.66421
113.30316,0.67234
113.06209,0.67712
112.82102,0.67777
112.57995,0.67534
112.33888,0.67253
112.09781,0.67336
111.85674,0.68205
111.61567,0.70158
111.37460,0.73040
111.13353,0.75955
110.89246,0.77639
110.65139,0.77588
110.41031,0.76448
110.16924,0.75049
109.92817,0.73762
109.68710,0.72580
109.44603,0.71325
109.20496,0.69814
108.96389,0.67874
108.72282,0.65391
108.48175,0.62522
108.24068,0.59595
107.99961,0.56779
107.75854,0.54177
107.51747,0.51993
107.27640,0.50397
107.03533,0.49327
106.79426,0.48453
106.55319,0.47314
106.31212,0.45665
106.07104,0.43726
105.82997,0.41911
105.58890,0.40418
105.34783,0.39251
105.10676,0.38435
104.86569,0.37949
104.62462,0.37480
104.38355,0.36538
104.14248,0.34987
103.90141,0.33274
103.66034,0.32043
103.41927,0.31631
103.17820,0.31882
102.93713,0.32273
102.69606,0.32196
102.45499,0.31427
102.21392,0.30376
101.97285,0.29638
101.73177,0.29447
101.49070,0.29561
101.24963,0.29534
101.00856,0.29114
100.76749,0.28395
100.52642,0.27667
100.28535,0.27234
100.04428,0.27220
99.80321,0.27436
99.56214,0.27503
99.32107,0.27153
99.08000,0.26450
98.83893,0.25814
98.59786,0.25722
98.35679,0.26134
98.11572,0.26345
97.87465,0.25858
97.63358,0.25247
97.39250,0.25461
97.15143,0.26533
96.91036,0.27389
96.66929,0.27195
96.42822,0.26670
96.18715,0.27127
95.94608,0.28759
95.70501,0.30407
95.46394,0.31094
95.22287,0.31326
94.98180,0.31944
94.74073,0.32797
94.49966,0.33214
94.25859,0.33181
94.01752,0.33279
93.77645,0.33643
93.53538,0.33860
93.29431,0.33838
93.05323,0.33950
92.81216,0.34269
92.57109,0.34433
92.33002,0.34401
92.08895,0.34616
91.84788,0.35203
91.60681,0.35751
91.36574,0.36241
91.12467,0.37288
90.88360,0.39103
90.64253,0.41364
90.40146,0.44263
90.16039,0.48310
89.91932,0.53063
89.67825,0.57768
89.43718,0.62731
89.19611,0.68036
88.95504,0.72540
88.71396,0.75599
88.47289,0.77122
88.23182,0.75967
87.99075,0.71691
87.74968,0.65873
87.50861,0.59937
87.26754,0.54321
87.02647,0.49349
86.78540,0.45296
86.54433,0.42032
86.30326,0.39230
86.06219,0.36701
85.82112,0.34379
85.58005,0.32214
85.33898,0.30150
85.09791,0.28187
84.85684,0.26426
84.61577,0.24954
84.37469,0.23741
84.13362,0.22752
83.89255,0.22028
83.65148,0.21551
83.41041,0.21172
83.16934,0.20728
82.92827,0.20157
82.68720,0.19541
82.44613,0.19077
82.20506,0.18948
81.96399,0.19133
81.72292,0.19391
81.48185,0.19493
81.24078,0.19447
80.99971,0.19412
80.75864,0.19425
80.51757,0.19356
80.27650,0.19128
80.03542,0.18807
79.79435,0.18466
79.55328,0.18132
79.31221,0.17864
79.07114,0.17760
78.83007,0.17828
78.58900,0.17937
78.34793,0.17941
78.10686,0.17800
77.86579,0.17539
77.62472,0.17132
77.38365,0.16573
77.14258,0.16006
76.90151,0.15661
76.66044,0.15660
76.41937,0.15959
76.17830,0.16424
75.93723,0.16828
75.69615,0.16894
75.45508,0.16560
75.21401,0.16068
74.97294,0.15686
74.73187,0.15539
74.49080,0.15647
74.24973,0.15876
74.00866,0.15987
73.76759,0.15932
73.52652,0.15938
73.28545,0.16197
73.04438,0.16693
72.80331,0.17294
72.56224,0.17840
72.32117,0.18155
72.08010,0.18102
71.83903,0.17713
71.59796,0.17267
71.35688,0.17102
71.11581,0.17289
70.87474,0.17642
70.63367,0.18087
70.39260,0.18827
70.15153,0.20151
69.91046,0.22184
69.66939,0.24702
69.42832,0.27047
69.18725,0.28393
68.94618,0.28313
68.70511,0.27068
68.46404,0.25207
68.22297,0.23096
67.98190,0.20960
67.74083,0.19075
67.49976,0.17649
67.25869,0.16620
67.01761,0.15805
66.77654,0.15157
66.53547,0.14732
66.29440,0.14512
66.05333,0.14437
65.81226,0.14535
65.57119,0.14911
65.33012,0.15615
65.08905,0.16563
64.84798,0.17589
64.60691,0.18545
64.36584,0.19321
64.12477,0.19803
63.88370,0.19924
63.64263,0.19734
63.40156,0.19305
63.16049,0.18666
62.91942,0.17869
62.67834,0.17021
62.43727,0.16219
62.19620,0.15558
61.95513,0.15154
61.71406,0.15044
61.47299,0.15107
61.23192,0.15175
60.99085,0.15163
60.74978,0.15043
60.50871,0.14800
60.26764,0.14461
60.02657,0.14063
59.78550,0.13509
59.54443,0.12656
59.30336,0.11595
59.06229,0.10638
58.82122,0.10044
58.58015,0.09999
58.33907,0.10754
58.09800,0.12543
57.85693,0.15349
57.61586,0.18853
57.37479,0.22259
57.13372,0.23815
56.89265,0.22023
56.65158,0.18033
56.41051,0.14057
56.16944,0.11382
55.92837,0.10358
55.68730,0.10768
55.44623,0.12199
55.20516,0.14268
54.96409,0.16500
54.72302,0.18143
54.48195,0.18356
54.24088,0.16845
53.99980,0.14296
53.75873,0.11930
53.51766,0.10942
53.27659,0.12189
53.03552,0.15863
52.79445,0.20601
52.55338,0.22538
52.31231,0.19355
52.07124,0.14481
51.83017,0.11207
51.58910,0.10623
51.34803,0.12782
51.10696,0.16587
50.86589,0.19009
50.62482,0.17303
50.38375,0.13401
50.14268,0.10763
49.90161,0.11216
49.66053,0.15361
49.41946,0.20501
49.17839,0.18976
48.93732,0.12644
48.69625,0.09510
48.45518,0.11811
48.21411,0.16917
47.97304,0.17580
47.73197,0.12889
47.49090,0.10469
47.24983,0.13070
47.00876,0.16935
46.76769,0.15962
46.52662,0.12901
46.28555,0.12603
46.04448,0.14010
45.80341,0.13987
45.56234,0.13216
45.32126,0.13238
45.08019,0.12671
44.83912,0.11455
44.59805,0.11973
44.35698,0.14049
44.11591,0.14914
43.87484,0.14539
43.63377,0.14824
43.39270,0.15338
43.15163,0.15148
42.91056,0.15039
42.66949,0.15653
42.42842,0.16681
42.18735,0.17949
41.94628,0.18978
41.70521,0.18716
41.46414,0.17068
41.22307,0.15336
40.98199,0.14736
40.74092,0.15436
40.49985,0.16612
40.25878,0.17169
40.01771,0.16749
39.77664,0.15793
39.53557,0.15136
39.29450,0.15657
39.05343,0.17292
38.81236,0.18945
38.57129,0.19833
38.33022,0.19869
38.08915,0.19263
37.84808,0.18687
37.60701,0.18697
37.36594,0.18946
37.12487,0.19049
36.88380,0.19300
36.64272,0.19680
36.40165,0.19705
36.16058,0.19309
35.91951,0.18744
35.67844,0.18322
35.43737,0.18397
35.19630,0.19086
34.95523,0.19877
34.71416,0.19980
34.47309,0.19318
34.23202,0.18552
33.99095,0.17869
33.74988,0.16767
33.50881,0.15225
33.26774,0.14026
33.02667,0.13864
32.78560,0.14937
32.54453,0.16810
32.30345,0.18324
32.06238,0.18469
31.82131,0.17119
31.58024,0.14968
31.33917,0.13147
31.09810,0.12403
30.85703,0.12212
30.61596,0.11277
30.37489,0.09372
30.13382,0.07168
29.89275,0.04742
29.65168,0.02097
29.41061,0.00487
29.16954,0.01299
28.92847,0.03455
28.68740,0.03959
28.44633,0.01416
28.20526,-0.02412
27.96418,-0.05697
27.72311,-0.08542
27.48204,-0.11237
27.24097,-0.13299
26.99990,-0.14251
26.75883,-0.13691
26.51776,-0.11467
26.27669,-0.08760
26.03562,-0.07814
25.79455,-0.09722
25.55348,-0.12951
25.31241,-0.14920
25.07134,-0.15107
24.83027,-0.15504
24.58920,-0.17937
24.34813,-0.21559
24.10706,-0.23425
23.86599,-0.23365
23.62491,-0.23653
23.38384,-0.25453
23.14277,-0.29077
22.90170,-0.32990
22.66063,-0.33435
22.41956,-0.29523
22.17849,-0.25704
21.93742,-0.24453
21.69635,-0.24103
21.45528,-0.23173
21.21421,-0.22933
20.97314,-0.25348
20.73207,-0.29749
20.49100,-0.32694
20.24993,-0.32295
20.00886,-0.31304
19.76779,-0.32918
19.52672,-0.36369
19.28564,-0.38424
19.04457,-0.38203
18.80350,-0.37490
18.56243,-0.38590
18.32136,-0.40263
18.08029,-0.39388
17.83922,-0.36785
17.59815,-0.34667
17.35708,-0.34033
17.11601,-0.33904
16.87494,-0.32840
16.63387,-0.31543
16.39280,-0.32186
16.15173,-0.35361
15.91066,-0.38716
15.66959,-0.37446
15.42852,-0.35836
15.18745,-0.38808
14.94637,-0.43485
14.70530,-0.43433
14.46423,-0.41162
14.22316,-0.39074
13.98209,-0.37590
13.74102,-0.38327
13.49995,-0.42367
13.25888,-0.46061
13.01781,-0.46139
12.77674,-0.45478
12.53567,-0.46195
12.29460,-0.45800
12.05353,-0.42546
11.81246,-0.39205
11.57139,-0.37808
11.33032,-0.37806
11.08925,-0.37739
10.84818,-0.37995
10.60710,-0.39173
10.36603,-0.39971
10.12496,-0.38992
9.88389,-0.37330
9.64282,-0.37671
9.40175,-0.40842
9.16068,-0.44885
8.91961,-0.45885
8.67854,-0.43767
8.43747,-0.40906
8.19640,-0.38529
7.95533,-0.37418
7.71426,-0.38741
7.47319,-0.42659
7.23212,-0.46330
6.99105,-0.46451
6.74998,-0.44219
6.50891,-0.44076
6.26783,-0.45917
6.02676,-0.45291
5.78569,-0.45776
5.54462,-0.47979
5.30355,-0.50262
5.06248,-0.50283
4.82141,-0.47523
4.58034,-0.45398
4.33927,-0.45410
4.09820,-0.44632
3.85713,-0.42277
3.61606,-0.41211
3.37499,-0.40527
3.13392,-0.39694
2.89285,-0.39775
2.65178,-0.40515
2.41071,-0.40913
2.16964,-0.41071
1.92856,-0.40595
1.68749,-0.38235
1.44642,-0.38490
1.20535,-0.42283
0.96428,-0.45170
0.72321,-0.47804
0.48214,-0.47417
0.24107,-0.39423
-0.00000,-0.05711
