399.69498,1.59168
399.45391,1.61531
399.21284,1.66266
398.97177,1.71960
398.73070,1.75068
398.48963,1.73170
398.24856,1.67722
398.00749,1.62396
397.76642,1.60403
397.52535,1.63252
397.28428,1.69137
397.04321,1.73584
396.80214,1.75349
396.56107,1.77269
396.32000,1.80706
396.07892,1.82988
395.83785,1.82052
395.59678,1.80647
395.35571,1.83170
395.11464,1.89967
394.87357,1.94227
394.63250,1.91073
394.39143,1.87314
394.15036,1.91045
393.90929,2.00081
393.66822,2.03270
393.42715,2.04060
393.18608,2.05025
392.94501,1.99724
392.70394,1.92285
392.46287,1.91203
392.22180,1.96802
391.98073,2.05716
391.73965,2.14926
391.49858,2.15380
391.25751,2.04158
391.01644,1.98629
390.77537,1.99796
390.53430,2.04837
390.29323,2.19816
390.05216,2.31331
389.81109,2.17213
389.57002,2.02699
389.32895,2.06302
389.08788,2.33745
388.84681,2.27653
388.60574,2.07825
388.36467,2.16833
388.12360,2.23505
387.88253,2.12733
387.64146,2.19559
387.40038,2.41030
387.15931,2.45176
386.91824,2.24723
386.67717,2.13587
386.43610,2.15008
386.19503,2.16918
385.95396,2.06500
385.71289,1.96130
385.47182,1.93378
385.23075,2.01759
384.98968,2.16104
384.74861,2.16297
384.50754,2.13188
384.26647,2.09176
384.02540,2.08359
383.78433,2.02797
383.54326,1.97534
383.30219,1.88428
383.06111,1.81599
382.82004,1.80259
382.57897,1.82676
382.33790,1.90045
382.09683,2.03387
381.85576,2.14692
381.61469,2.12474
381.37362,2.02715
381.13255,1.95227
380.89148,1.92888
380.65041,1.94474
380.40934,1.98917
380.16827,2.02562
379.92720,1.98708
379.68613,1.91510
379.44506,1.88242
379.20399,1.87685
378.96292,1.85627
378.72184,1.85861
378.48077,1.94433
378.23970,2.08890
377.99863,2.10799
377.75756,1.95669
377.51649,1.87078
377.27542,1.86537
377.03435,1.91244
376.79328,1.98382
376.55221,2.02364
376.31114,1.98354
376.07007,1.98869
375.82900,2.20838
375.58793,2.43073
375.34686,2.12859
375.10579,2.04344
374.86472,2.18390
374.62365,2.28232
374.38257,2.04264
374.14150,1.84188
373.90043,1.71686
373.65936,1.63474
373.41829,1.58970
373.17722,1.58244
372.93615,1.61277
372.69508,1.67375
372.45401,1.73933
372.21294,1.76015
371.97187,1.70652
371.73080,1.61336
371.48973,1.53318
371.24866,1.48088
371.00759,1.43774
370.76652,1.40163
370.52545,1.39519
370.28437,1.42392
370.04330,1.45727
369.80223,1.45934
369.56116,1.43445
369.32009,1.41152
369.07902,1.39999
368.83795,1.39172
368.59688,1.38117
368.35581,1.36782
368.11474,1.35103
367.87367,1.33620
367.63260,1.33325
367.39153,1.34090
367.15046,1.34547
366.90939,1.33806
366.66832,1.32205
366.42725,1.30836
366.18618,1.30378
365.94510,1.30345
365.70403,1.29805
365.46296,1.28745
365.22189,1.28285
364.98082,1.29147
364.73975,1.30470
364.49868,1.30860
364.25761,1.30135
364.01654,1.29056
363.77547,1.28458
363.53440,1.28752
363.29333,1.29329
363.05226,1.29154
362.81119,1.28020
362.57012,1.26796
362.32905,1.26456
362.08798,1.26892
361.84691,1.27129
361.60583,1.26659
361.36476,1.25872
361.12369,1.25307
360.88262,1.25119
360.64155,1.25040
360.40048,1.24674
360.15941,1.23810
359.91834,1.22772
359.67727,1.22511
359.43620,1.23810
359.19513,1.26317
358.95406,1.28295
358.71299,1.28104
358.47192,1.26416
358.23085,1.25224
357.98978,1.25324
357.74871,1.25921
357.50764,1.25686
357.26656,1.23891
357.02549,1.21234
356.78442,1.19531
356.54335,1.19849
356.30228,1.21525
356.06121,1.22899
355.82014,1.22725
355.57907,1.21214
355.33800,1.19431
355.09693,1.18152
354.85586,1.17610
354.61479,1.17991
354.37372,1.19412
354.13265,1.21293
353.89158,1.22785
353.65051,1.24153
353.40944,1.25775
353.16837,1.26601
352.92729,1.25716
352.68622,1.23902
352.44515,1.22513
352.20408,1.22045
351.96301,1.22042
351.72194,1.21786
351.48087,1.21172
351.23980,1.20756
350.99873,1.20951
350.75766,1.21772
350.51659,1.23061
350.27552,1.24394
350.03445,1.25357
349.79338,1.26183
349.55231,1.27287
349.31124,1.28402
349.07017,1.28780
348.82910,1.28189
348.58802,1.27496
348.34695,1.27597
348.10588,1.28264
347.86481,1.28464
347.62374,1.27438
347.38267,1.26050
347.14160,1.25909
346.90053,1.27083
346.65946,1.28576
346.41839,1.29880
346.17732,1.30446
345.93625,1.29423
345.69518,1.27660
345.45411,1.27260
345.21304,1.28309
344.97197,1.29096
344.73090,1.28953
344.48983,1.28781
344.24875,1.29137
344.00768,1.29728
343.76661,1.30972
343.52554,1.33860
343.28447,1.37918
343.04340,1.40601
342.80233,1.40300
342.56126,1.39430
342.32019,1.41293
342.07912,1.45992
341.83805,1.50739
341.59698,1.53657
341.35591,1.55777
341.11484,1.57921
340.87377,1.58962
340.63270,1.58682
340.39163,1.58410
340.15056,1.58206
339.90948,1.56825
339.66841,1.55641
339.42734,1.56976
339.18627,1.60023
338.94520,1.63227
338.70413,1.67065
338.46306,1.72077
338.22199,1.75727
337.98092,1.75240
337.73985,1.73355
337.49878,1.75249
337.25771,1.81849
337.01664,1.89547
336.77557,1.92426
336.53450,1.89921
336.29343,1.88739
336.05236,1.89616
335.81129,1.86765
335.57021,1.79751
335.32914,1.71626
335.08807,1.67434
334.84700,1.71614
334.60593,1.82701
334.36486,1.86616
334.12379,1.86953
333.88272,1.91094
333.64165,1.95980
333.40058,1.91495
333.15951,1.80066
332.91844,1.69734
332.67737,1.62987
332.43630,1.60484
332.19523,1.61526
331.95416,1.63536
331.71309,1.63571
331.47202,1.60723
331.23094,1.55494
330.98987,1.49120
330.74880,1.43627
330.50773,1.40183
330.26666,1.38763
330.02559,1.38234
329.78452,1.37481
329.54345,1.37169
329.30238,1.38966
329.06131,1.42770
328.82024,1.45779
328.57917,1.45282
328.33810,1.42228
328.09703,1.40210
327.85596,1.41286
327.61489,1.44293
327.37382,1.47624
327.13275,1.52538
326.89167,1.60608
326.65060,1.70486
326.40953,1.76923
326.16846,1.74724
325.92739,1.66070
325.68632,1.55887
325.44525,1.47961
325.20418,1.45220
324.96311,1.48131
324.72204,1.53522
324.48097,1.55108
324.23990,1.50819
323.99883,1.45882
323.75776,1.44646
323.51669,1.48386
323.27562,1.55287
323.03455,1.61646
322.79348,1.65695
322.55240,1.68422
322.31133,1.69327
322.07026,1.66285
321.82919,1.61157
321.58812,1.58693
321.34705,1.61560
321.10598,1.68164
320.86491,1.75277
320.62384,1.80841
320.38277,1.82237
320.14170,1.80613
319.90063,1.79190
319.65956,1.78350
319.41849,1.79206
319.17742,1.81963
318.93635,1.84866
318.69528,1.84473
318.45421,1.78797
318.21313,1.75148
317.97206,1.75285
317.73099,1.78328
317.48992,1.80190
317.24885,1.76397
317.00778,1.73836
316.76671,1.70591
316.52564,1.68903
316.28457,1.80986
316.04350,1.93142
315.80243,1.89536
315.56136,1.81796
315.32029,1.75561
315.07922,1.73911
314.83815,1.76784
314.59708,1.83606
314.35601,1.95046
314.11494,2.08759
313.87386,2.27004
313.63279,2.20117
313.39172,2.05076
313.15065,2.00416
312.90958,1.99647
312.66851,2.00636
312.42744,2.02041
312.18637,2.01584
311.94530,1.96905
311.70423,1.90225
311.46316,1.85728
311.22209,1.85234
310.98102,1.81813
310.73995,1.83235
310.49888,1.90069
310.25781,1.94218
310.01674,1.97700
309.77567,2.05708
309.53459,2.11757
309.29352,2.07033
309.05245,1.99121
308.81138,1.95010
308.57031,2.01452
308.32924,2.16654
308.08817,2.14024
307.84710,2.00762
307.60603,1.93713
307.36496,1.90603
307.12389,1.89651
306.88282,1.87587
306.64175,1.82052
306.40068,1.76914
306.15961,1.72625
305.91854,1.68152
305.67747,1.64192
305.43640,1.61991
305.19532,1.61614
304.95425,1.61077
304.71318,1.58803
304.47211,1.55878
304.23104,1.52920
303.98997,1.49535
303.74890,1.46583
303.50783,1.44690
303.26676,1.42236
303.02569,1.37814
302.78462,1.32985
302.54355,1.30224
302.30248,1.30105
302.06141,1.31367
301.82034,1.32071
301.57927,1.30772
301.33820,1.27682
301.09713,1.24501
300.85605,1.22645
300.61498,1.21975
300.37391,1.21349
300.13284,1.20162
299.89177,1.18779
299.65070,1.17579
299.40963,1.16477
299.16856,1.15492
298.92749,1.14892
298.68642,1.14629
298.44535,1.14229
298.20428,1.13419
297.96321,1.12575
297.72214,1.12332
297.48107,1.12634
297.24000,1.12579
296.99893,1.11533
296.75786,1.09887
296.51678,1.08522
296.27571,1.08125
296.03464,1.08740
295.79357,1.09696
295.55250,1.10249
295.31143,1.10183
295.07036,1.09564
294.82929,1.08526
294.58822,1.07520
294.34715,1.07168
294.10608,1.07702
293.86501,1.08673
293.62394,1.09115
293.38287,1.08265
293.14180,1.06483
292.90073,1.04806
292.65966,1.03698
292.41859,1.02806
292.17751,1.01609
291.93644,1.00199
291.69537,0.99293
291.45430,0.99361
291.21323,0.99987
290.97216,1.00346
290.73109,1.00089
290.49002,0.99475
290.24895,0.98920
290.00788,0.98751
289.76681,0.99138
289.52574,0.99852
289.28467,1.00297
289.04360,1.00155
288.80253,0.99630
288.56146,0.98924
288.32039,0.98134
288.07932,0.97606
287.83824,0.97678
287.59717,0.98073
287.35610,0.98099
287.11503,0.97558
286.87396,0.96983
286.63289,0.96875
286.39182,0.97060
286.15075,0.97027
285.90968,0.96746
285.66861,0.96671
285.42754,0.96972
285.18647,0.97333
284.94540,0.97480
284.70433,0.97372
284.46326,0.96972
284.22219,0.96263
283.98112,0.95332
283.74005,0.94408
283.49897,0.93889
283.25790,0.94026
283.01683,0.94488
282.77576,0.94648
282.53469,0.94338
282.29362,0.93895
282.05255,0.93644
281.81148,0.93719
281.57041,0.94027
281.32934,0.94295
281.08827,0.94460
280.84720,0.94735
280.60613,0.95093
280.36506,0.95261
280.12399,0.95187
279.88292,0.94958
279.64185,0.94552
279.40078,0.94181
279.15970,0.94309
278.91863,0.95014
278.67756,0.95740
278.43649,0.95785
278.19542,0.94965
277.95435,0.93857
277.71328,0.93320
277.47221,0.93668
277.23114,0.94421
276.99007,0.94927
276.74900,0.95042
276.50793,0.94971
276.26686,0.94850
276.02579,0.94877
275.78472,0.95332
275.54365,0.96021
275.30258,0.96214
275.06151,0.95588
274.82043,0.94698
274.57936,0.94231
274.33829,0.94308
274.09722,0.94590
273.85615,0.94637
273.61508,0.94172
273.37401,0.93378
273.13294,0.92887
272.89187,0.93216
272.65080,0.94284
272.40973,0.95393
272.16866,0.95727
271.92759,0.95221
271.68652,0.94749
271.44545,0.95087
271.20438,0.96039
270.96331,0.96905
270.72224,0.97404
270.48116,0.97691
270.24009,0.97735
269.99902,0.97478
269.75795,0.97280
269.51688,0.97585
269.27581,0.98289
269.03474,0.98682
268.79367,0.98276
268.55260,0.97540
268.31153,0.97364
268.07046,0.98131
267.82939,0.99530
267.58832,1.00919
267.34725,1.01727
267.10618,1.01759
266.86511,1.01311
266.62404,1.01050
266.38297,1.01532
266.14189,1.02635
265.90082,1.03647
265.65975,1.04098
265.41868,1.04288
265.17761,1.04795
264.93654,1.05719
264.69547,1.06543
264.45440,1.06823
264.21333,1.06865
263.97226,1.07295
263.73119,1.08242
263.49012,1.09424
263.24905,1.10790
263.00798,1.12500
262.76691,1.14346
262.52584,1.15790
262.28477,1.16691
262.04370,1.17416
261.80262,1.18165
261.56155,1.18863
261.32048,1.19710
261.07941,1.21029
260.83834,1.22589
260.59727,1.23612
260.35620,1.23795
260.11513,1.23955
259.87406,1.25053
259.63299,1.27181
259.39192,1.29822
259.15085,1.32834
258.90978,1.36751
258.66871,1.41596
258.42764,1.46226
258.18657,1.49648
257.94550,1.51323
257.70443,1.50905
257.46335,1.49403
257.22228,1.48730
256.98121,1.50164
256.74014,1.54442
256.49907,1.61959
256.25800,1.71070
256.01693,1.75909
255.77586,1.73783
255.53479,1.72639
255.29372,1.77234
255.05265,1.83684
254.81158,1.87343
254.57051,1.90807
254.32944,1.98007
254.08837,2.07584
253.84730,2.14886
253.60623,2.17153
253.36516,2.11769
253.12408,2.04083
252.88301,2.03292
252.64194,2.08993
252.40087,2.16935
252.15980,2.20491
251.91873,2.15947
251.67766,2.06686
251.43659,1.99626
251.19552,1.96573
250.95445,1.99157
250.71338,2.10216
250.47231,2.28391
250.23124,2.42018
249.99017,2.40197
249.74910,2.36709
249.50803,2.36196
249.26696,2.31947
249.02589,2.31515
248.78481,2.39633
248.54374,2.39071
248.30267,2.35108
248.06160,2.36320
247.82053,2.30097
247.57946,2.35730
247.33839,2.43970
247.09732,2.51314
246.85625,2.62718
246.61518,2.52113
246.37411,2.37329
246.13304,2.24164
245.89197,2.21859
245.65090,2.24431
245.40983,2.18470
245.16876,2.01812
244.92769,1.85159
244.68661,1.74114
244.44554,1.68163
244.20447,1.65572
243.96340,1.63698
243.72233,1.59892
243.48126,1.55017
243.24019,1.50923
242.99912,1.47743
242.75805,1.44528
242.51698,1.40295
242.27591,1.35279
242.03484,1.30196
241.79377,1.25322
241.55270,1.20778
241.31163,1.16676
241.07056,1.12962
240.82949,1.09398
240.58842,1.05805
240.34734,1.02199
240.10627,0.98831
239.86520,0.95920
239.62413,0.93206
239.38306,0.90295
239.14199,0.87431
238.90092,0.85270
238.65985,0.83913
238.41878,0.82782
238.17771,0.81445
237.93664,0.80074
237.69557,0.78990
237.45450,0.78145
237.21343,0.77229
236.97236,0.76073
236.73129,0.74773
236.49022,0.73450
236.24915,0.72084
236.00807,0.70673
235.76700,0.69415
235.52593,0.68555
235.28486,0.68173
235.04379,0.68167
234.80272,0.68287
234.56165,0.68221
234.32058,0.67872
234.07951,0.67486
233.83844,0.67289
233.59737,0.67155
233.35630,0.66888
233.11523,0.66588
232.87416,0.66370
232.63309,0.66000
232.39202,0.65250
232.15095,0.64413
231.90988,0.64012
231.66880,0.64130
231.42773,0.64355
231.18666,0.64364
230.94559,0.64253
230.70452,0.64228
230.46345,0.64247
230.22238,0.64139
229.98131,0.63938
229.74024,0.63918
229.49917,0.64214
229.25810,0.64585
229.01703,0.64716
228.77596,0.64607
228.53489,0.64397
228.29382,0.64010
228.05275,0.63367
227.81168,0.62768
227.57061,0.62627
227.32953,0.62979
227.08846,0.63523
226.84739,0.64011
226.60632,0.64416
226.36525,0.64758
226.12418,0.64956
225.88311,0.64917
225.64204,0.64689
225.40097,0.64453
225.15990,0.64369
224.91883,0.64471
224.67776,0.64652
224.43669,0.64742
224.19562,0.64731
223.95455,0.64894
223.71348,0.65491
223.47241,0.66414
223.23134,0.67251
222.99026,0.67721
222.74919,0.67951
222.50812,0.68274
222.26705,0.68806
222.02598,0.69359
221.78491,0.69788
221.54384,0.70211
221.30277,0.70751
221.06170,0.71283
220.82063,0.71685
220.57956,0.72140
220.33849,0.72960
220.09742,0.74203
219.85635,0.75545
219.61528,0.76575
219.37421,0.77202
219.13314,0.77753
218.89207,0.78582
218.65099,0.79626
218.40992,0.80551
218.16885,0.81315
217.92778,0.82276
217.68671,0.83655
217.44564,0.85208
217.20457,0.86585
216.96350,0.87816
216.72243,0.89165
216.48136,0.90667
216.24029,0.92074
215.99922,0.93175
215.75815,0.94061
215.51708,0.94981
215.27601,0.95973
215.03494,0.96853
214.79387,0.97521
214.55280,0.97970
214.31172,0.98159
214.07065,0.98253
213.82958,0.98738
213.58851,0.99865
213.34744,1.01222
213.10637,1.02244
212.86530,1.03086
212.62423,1.04323
212.38316,1.05796
212.14209,1.06713
211.90102,1.06869
211.65995,1.06811
211.41888,1.06940
211.17781,1.07213
210.93674,1.07577
210.69567,1.07990
210.45460,1.08048
210.21353,1.07387
209.97245,1.06533
209.73138,1.06411
209.49031,1.07099
209.24924,1.07763
209.00817,1.07713
208.76710,1.06967
208.52603,1.05939
208.28496,1.04867
208.04389,1.03712
207.80282,1.02543
207.56175,1.01662
207.32068,1.01218
207.07961,1.01005
206.83854,1.00849
206.59747,1.00770
206.35640,1.00612
206.11533,1.00051
205.87426,0.99098
205.63318,0.98084
205.39211,0.97113
205.15104,0.95920
204.90997,0.94339
204.66890,0.92662
204.42783,0.91438
204.18676,0.90885
203.94569,0.90560
203.70462,0.89866
203.46355,0.88715
203.22248,0.87389
202.98141,0.86030
202.74034,0.84650
202.49927,0.83374
202.25820,0.82374
202.01713,0.81632
201.77606,0.80945
201.53499,0.80090
201.29391,0.78932
201.05284,0.77414
200.81177,0.75606
200.57070,0.73831
200.32963,0.72487
200.08856,0.71615
199.84749,0.70845
199.60642,0.69868
199.36535,0.68755
199.12428,0.67720
198.88321,0.66768
198.64214,0.65753
198.40107,0.64640
198.16000,0.63592
197.91893,0.62823
197.67786,0.62357
197.43679,0.61939
197.19572,0.61307
196.95464,0.60532
196.71357,0.59879
196.47250,0.59382
196.23143,0.58805
195.99036,0.58023
195.74929,0.57193
195.50822,0.56530
195.26715,0.56035
195.02608,0.55488
194.78501,0.54743
194.54394,0.53885
194.30287,0.53043
194.06180,0.52271
193.82073,0.51658
193.57966,0.51299
193.33859,0.51104
193.09752,0.50869
192.85645,0.50488
192.61537,0.50007
192.37430,0.49540
192.13323,0.49135
191.89216,0.48722
191.65109,0.48261
191.41002,0.47897
191.16895,0.47802
190.92788,0.47904
190.68681,0.47986
190.44574,0.47982
190.20467,0.47983
189.96360,0.47962
189.72253,0.47717
189.48146,0.47172
189.24039,0.46562
188.99932,0.46138
188.75825,0.45814
188.51718,0.45359
188.27610,0.44842
188.03503,0.44600
187.79396,0.44769
187.55289,0.45101
187.31182,0.45324
187.07075,0.45427
186.82968,0.45513
186.58861,0.45586
186.34754,0.45625
186.10647,0.45665
185.86540,0.45717
185.62433,0.45712
185.38326,0.45608
185.14219,0.45470
184.90112,0.45432
184.66005,0.45569
184.41898,0.45798
184.17791,0.45974
183.93683,0.46081
183.69576,0.46252
183.45469,0.46634
183.21362,0.47247
182.97255,0.47934
182.73148,0.48419
182.49041,0.48490
182.24934,0.48190
182.00827,0.47775
181.76720,0.47484
181.52613,0.47369
181.28506,0.47315
181.04399,0.47224
180.80292,0.47176
180.56185,0.47350
180.32078,0.47788
180.07971,0.48316
179.83864,0.48777
179.59756,0.49273
179.35649,0.50032
179.11542,0.51045
178.87435,0.52006
178.63328,0.52680
178.39221,0.53189
178.15114,0.53796
177.91007,0.54598
177.66900,0.55539
177.42793,0.56601
177.18686,0.57852
176.94579,0.59285
176.70472,0.60775
176.46365,0.62201
176.22258,0.63607
175.98151,0.65198
175.74044,0.67029
175.49937,0.68772
175.25829,0.70068
175.01722,0.71065
174.77615,0.72281
174.53508,0.74006
174.29401,0.76113
174.05294,0.78302
173.81187,0.80261
173.57080,0.81768
173.32973,0.82919
173.08866,0.84049
172.84759,0.85305
172.60652,0.86516
172.36545,0.87424
172.12438,0.87941
171.88331,0.88279
171.64224,0.88747
171.40117,0.89244
171.16010,0.89195
170.91902,0.88284
170.67795,0.86920
170.43688,0.85630
170.19581,0.84537
169.95474,0.83767
169.71367,0.83584
169.47260,0.83809
169.23153,0.83774
168.99046,0.83074
168.74939,0.82015
168.50832,0.81145
168.26725,0.80711
168.02618,0.80539
167.78511,0.80226
167.54404,0.79616
167.30297,0.79098
167.06190,0.79200
166.82083,0.79867
166.57975,0.80441
166.33868,0.80455
166.09761,0.80169
165.85654,0.80152
165.61547,0.80653
165.37440,0.81528
165.13333,0.82588
164.89226,0.83802
164.65119,0.85166
164.41012,0.86511
164.16905,0.87570
163.92798,0.88324
163.68691,0.89123
163.44584,0.90252
163.20477,0.91589
162.96370,0.92875
162.72263,0.93995
162.48156,0.94797
162.24048,0.95100
161.99941,0.94991
161.75834,0.94833
161.51727,0.95031
161.27620,0.95763
161.03513,0.96680
160.79406,0.97070
160.55299,0.96713
160.31192,0.96208
160.07085,0.96052
159.82978,0.95852
159.58871,0.94952
159.34764,0.93474
159.10657,0.92188
158.86550,0.91672
158.62443,0.91851
158.38336,0.92164
158.14229,0.92114
157.90121,0.91599
157.66014,0.90742
157.41907,0.89811
157.17800,0.89182
156.93693,0.89056
156.69586,0.89281
156.45479,0.89472
156.21372,0.89193
155.97265,0.88255
155.73158,0.87031
155.49051,0.86147
155.24944,0.85680
155.00837,0.85090
154.76730,0.83995
154.52623,0.82564
154.28516,0.81148
154.04409,0.80015
153.80302,0.79199
153.56194,0.78296
153.32087,0.76818
153.07980,0.74828
152.83873,0.72719
152.59766,0.70620
152.35659,0.68502
152.11552,0.66545
151.87445,0.64994
151.63338,0.63857
151.39231,0.62941
151.15124,0.61982
150.91017,0.60739
150.66910,0.59196
150.42803,0.57618
150.18696,0.56191
149.94589,0.54824
149.70482,0.53493
149.46375,0.52450
149.22267,0.51799
148.98160,0.51208
148.74053,0.50330
148.49946,0.49268
148.25839,0.48363
148.01732,0.47799
147.77625,0.47593
147.53518,0.47667
147.29411,0.47817
147.05304,0.47818
146.81197,0.47629
146.57090,0.47391
146.32983,0.47258
146.08876,0.47326
145.84769,0.47642
145.60662,0.48176
145.36555,0.48824
145.12448,0.49501
144.88340,0.50234
144.64233,0.51080
144.40126,0.51932
144.16019,0.52496
143.91912,0.52601
143.67805,0.52433
143.43698,0.52255
143.19591,0.52041
142.95484,0.51566
142.71377,0.50731
142.47270,0.49674
142.23163,0.48615
141.99056,0.47677
141.74949,0.46832
141.50842,0.46001
141.26735,0.45227
141.02628,0.44650
140.78521,0.44309
140.54413,0.44077
140.30306,0.43852
140.06199,0.43715
139.82092,0.43797
139.57985,0.44077
139.33878,0.44444
139.09771,0.44885
138.85664,0.45479
138.61557,0.46276
138.37450,0.47262
138.13343,0.48356
137.89236,0.49423
137.65129,0.50401
137.41022,0.51435
137.16915,0.52735
136.92808,0.54346
136.68701,0.56141
136.44594,0.58014
136.20486,0.60000
135.96379,0.62177
135.72272,0.64526
135.48165,0.67014
135.24058,0.69741
134.99951,0.72743
134.75844,0.75735
134.51737,0.78374
134.27630,0.80704
134.03523,0.83004
133.79416,0.85382
133.55309,0.87765
133.31202,0.90043
133.07095,0.92118
132.82988,0.94083
132.58881,0.96114
132.34774,0.97991
132.10667,0.99103
131.86559,0.98941
131.62452,0.97531
131.38345,0.95414
131.14238,0.93328
130.90131,0.91680
130.66024,0.90218
130.41917,0.88351
130.17810,0.85768
129.93703,0.82682
129.69596,0.79535
129.45489,0.76552
129.21382,0.73627
128.97275,0.70534
128.73168,0.67205
128.49061,0.63892
128.24954,0.61044
128.00847,0.58821
127.76740,0.56848
127.52632,0.54739
127.28525,0.52580
127.04418,0.50530
126.80311,0.48400
126.56204,0.46097
126.32097,0.44030
126.07990,0.42618
125.83883,0.41793
125.59776,0.41187
125.35669,0.40483
125.11562,0.39496
124.87455,0.38219
124.63348,0.36919
124.39241,0.35958
124.15134,0.35483
123.91027,0.35332
123.66920,0.35220
123.42812,0.34993
123.18705,0.34731
122.94598,0.34626
122.70491,0.34776
122.46384,0.35117
122.22277,0.35472
121.98170,0.35663
121.74063,0.35644
121.49956,0.35558
121.25849,0.35671
121.01742,0.36208
120.77635,0.37112
120.53528,0.38040
120.29421,0.38775
120.05314,0.39517
119.81207,0.40550
119.57100,0.41881
119.32993,0.43488
119.08885,0.45570
118.84778,0.48177
118.60671,0.50919
118.36564,0.53414
118.12457,0.55709
117.88350,0.57930
117.64243,0.59940
117.40136,0.61586
117.16029,0.62875
116.91922,0.63796
116.67815,0.64188
116.43708,0.63931
116.19601,0.63197
115.95494,0.62275
115.71387,0.61309
115.47280,0.60302
115.23173,0.59133
114.99066,0.57593
114.74958,0.55614
114.50851,0.53507
114.26744,0.51885
114.02637,0.51235
113.78530,0.51566
113.54423,0.52475
113.30316,0.53445
113.06209,0.54081
112.82102,0.54271
112.57995,0.54307
112.33888,0.54662
112.09781,0.55450
111.85674,0.56330
111.61567,0.57049
111.37460,0.57677
111.13353,0.58276
110.89246,0.58797
110.65139,0.59286
110.41031,0.59732
110.16924,0.59772
109.92817,0.59071
109.68710,0.57862
109.44603,0.56571
109.20496,0.55252
108.96389,0.53717
108.72282,0.51912
108.48175,0.49980
108.24068,0.48100
107.99961,0.46316
107.75854,0.44496
107.51747,0.42542
107.27640,0.40636
107.03533,0.38989
106.79426,0.37452
106.55319,0.35787
106.31212,0.34137
106.07104,0.32890
105.82997,0.32207
105.58890,0.31869
105.34783,0.31504
105.10676,0.30856
104.86569,0.29875
104.62462,0.28691
104.38355,0.27585
104.14248,0.26839
103.90141,0.26445
103.66034,0.26089
103.41927,0.25528
103.17820,0.24828
102.93713,0.24174
102.69606,0.23658
102.45499,0.23301
102.21392,0.23080
101.97285,0.22940
101.73177,0.22842
101.49070,0.22738
101.24963,0.22513
101.00856,0.22125
100.76749,0.21734
100.52642,0.21541
100.28535,0.21520
100.04428,0.21416
99.80321,0.21014
99.56214,0.20369
99.32107,0.19790
99.08000,0.19578
98.83893,0.19740
98.59786,0.19974
98.35679,0.19983
98.11572,0.19789
97.87465,0.19680
97.63358,0.19827
97.39250,0.20075
97.15143,0.20219
96.91036,0.20310
96.66929,0.20580
96.42822,0.21160
96.18715,0.21997
95.94608,0.22928
95.70501,0.23759
95.46394,0.24399
95.22287,0.24921
94.98180,0.25384
94.74073,0.25725
94.49966,0.25953
94.25859,0.26213
94.01752,0.26529
93.77645,0.26709
93.53538,0.26644
93.29431,0.26489
93.05323,0.26450
92.81216,0.26568
92.57109,0.26779
92.33002,0.27059
92.08895,0.27438
91.84788,0.27938
91.60681,0.28521
91.36574,0.29140
91.12467,0.29885
90.88360,0.31043
90.64253,0.32942
90.40146,0.35714
90.16039,0.39230
89.91932,0.43261
89.67825,0.47591
89.43718,0.51929
89.19611,0.55802
88.95504,0.58611
88.71396,0.59938
88.47289,0.59854
88.23182,0.58597
87.99075,0.56024
87.74968,0.52013
87.50861,0.47204
87.26754,0.42627
87.02647,0.38869
86.78540,0.35924
86.54433,0.33536
86.30326,0.31424
86.06219,0.29355
85.82112,0.27236
85.58005,0.25208
85.33898,0.23504
85.09791,0.22200
84.85684,0.21166
84.61577,0.20224
84.37469,0.19303
84.13362,0.18467
83.89255,0.17784
83.65148,0.17198
83.41041,0.16593
83.16934,0.15984
82.92827,0.15481
82.68720,0.15136
82.44613,0.14935
82.20506,0.14832
81.96399,0.14712
81.72292,0.14494
81.48185,0.14242
81.24078,0.14040
80.99971,0.13851
80.75864,0.13623
80.51757,0.13369
80.27650,0.13098
80.03542,0.12841
79.79435,0.12718
79.55328,0.12810
79.31221,0.13005
79.07114,0.13079
78.83007,0.12897
78.58900,0.12491
78.34793,0.12005
78.10686,0.11626
77.86579,0.11497
77.62472,0.11599
77.38365,0.11740
77.14258,0.11752
76.90151,0.11644
76.66044,0.11505
76.41937,0.11391
76.17830,0.11343
75.93723,0.11392
75.69615,0.11516
75.45508,0.11627
75.21401,0.11596
74.97294,0.11329
74.73187,0.10897
74.49080,0.10540
74.24973,0.10454
74.00866,0.10622
73.76759,0.10859
73.52652,0.11013
73.28545,0.11090
73.04438,0.11201
72.80331,0.11367
72.56224,0.11438
72.32117,0.11321
72.08010,0.11186
71.83903,0.11276
71.59796,0.11578
71.35688,0.11900
71.11581,0.12155
70.87474,0.12377
70.63367,0.12639
70.39260,0.13106
70.15153,0.13961
69.91046,0.15147
69.66939,0.16386
69.42832,0.17493
69.18725,0.18468
68.94618,0.19199
68.70511,0.19310
68.46404,0.18555
68.22297,0.17231
67.98190,0.15876
67.74083,0.14650
67.49976,0.13394
67.25869,0.12218
67.01761,0.11494
66.77654,0.11263
66.53547,0.11119
66.29440,0.10760
66.05333,0.10312
65.81226,0.10095
65.57119,0.10318
65.33012,0.10951
65.08905,0.11749
64.84798,0.12459
64.60691,0.13024
64.36584,0.13467
64.12477,0.13678
63.88370,0.13497
63.64263,0.12971
63.40156,0.12309
63.16049,0.11653
62.91942,0.11040
62.67834,0.10505
62.43727,0.10118
62.19620,0.09933
61.95513,0.09889
61.71406,0.09762
61.47299,0.09379
61.23192,0.08909
60.99085,0.08734
60.74978,0.08988
60.50871,0.09408
60.26764,0.09656
60.02657,0.09660
59.78550,0.09594
59.54443,0.09587
59.30336,0.09513
59.06229,0.09233
58.82122,0.08964
58.58015,0.09041
58.33907,0.09351
58.09800,0.09352
57.85693,0.08753
57.61586,0.07864
57.37479,0.07264
57.13372,0.07266
56.89265,0.07725
56.65158,0.08209
56.41051,0.08364
56.16944,0.08251
55.92837,0.08242
55.68730,0.08528
55.44623,0.08886
55.20516,0.09027
54.96409,0.08941
54.72302,0.08764
54.48195,0.08561
54.24088,0.08411
53.99980,0.08436
53.75873,0.08601
53.51766,0.08755
53.27659,0.08944
53.03552,0.09370
52.79445,0.09988
52.55338,0.10428
52.31231,0.10461
52.07124,0.10266
51.83017,0.10024
51.58910,0.09584
51.34803,0.08918
51.10696,0.08507
50.86589,0.08698
50.62482,0.09010
50.38375,0.08767
50.14268,0.08084
49.90161,0.07576
49.66053,0.07363
49.41946,0.07119
49.17839,0.06806
48.93732,0.06579
48.69625,0.06373
48.45518,0.06227
48.21411,0.06482
47.97304,0.07212
47.73197,0.07897
47.49090,0.08000
47.24983,0.07505
47.00876,0.06686
46.76769,0.05860
46.52662,0.05506
46.28555,0.06061
46.04448,0.07296
45.80341,0.08289
45.56234,0.08319
45.32126,0.07599
45.08019,0.06875
44.83912,0.06478
44.59805,0.06221
44.35698,0.05980
44.11591,0.05840
43.87484,0.05852
43.63377,0.05941
43.39270,0.05904
43.15163,0.05558
42.91056,0.05040
42.66949,0.04872
42.42842,0.05448
42.18735,0.06382
41.94628,0.06748
41.70521,0.06180
41.46414,0.05320
41.22307,0.05102
40.98199,0.05839
40.74092,0.07024
40.49985,0.07885
40.25878,0.08199
40.01771,0.08530
39.77664,0.09379
39.53557,0.10342
39.29450,0.10726
39.05343,0.10660
38.81236,0.10879
38.57129,0.11445
38.33022,0.11567
38.08915,0.10959
37.84808,0.10481
37.60701,0.10922
37.36594,0.11864
37.12487,0.12438
36.88380,0.12791
36.64272,0.13462
36.40165,0.13931
36.16058,0.13207
35.91951,0.11486
35.67844,0.10043
35.43737,0.09438
35.19630,0.09348
34.95523,0.09777
34.71416,0.11060
34.47309,0.13130
34.23202,0.15247
33.99095,0.16283
33.74988,0.15808
33.50881,0.14735
33.26774,0.14305
33.02667,0.15027
32.78560,0.16942
32.54453,0.19752
32.30345,0.22020
32.06238,0.22190
31.82131,0.20459
31.58024,0.18317
31.33917,0.17038
31.09810,0.16513
30.85703,0.16192
30.61596,0.16346
30.37489,0.17318
30.13382,0.17990
29.89275,0.16796
29.65168,0.14097
29.41061,0.11602
29.16954,0.10711
28.92847,0.12259
28.68740,0.16609
28.44633,0.22910
28.20526,0.28686
27.96418,0.31844
27.72311,0.31298
27.48204,0.26072
27.24097,0.18102
26.99990,0.13208
26.75883,0.15095
26.51776,0.21049
26.27669,0.26691
26.03562,0.30378
25.79455,0.32059
25.55348,0.31497
25.31241,0.29684
25.07134,0.28877
24.83027,0.29376
24.58920,0.30613
24.34813,0.33045
24.10706,0.37118
23.86599,0.41914
23.62491,0.44158
23.38384,0.42032
23.14277,0.39951
22.90170,0.42491
22.66063,0.49031
22.41956,0.54869
22.17849,0.58872
21.93742,0.61525
21.69635,0.60183
21.45528,0.52560
21.21421,0.43337
20.97314,0.38600
20.73207,0.41049
20.49100,0.53631
20.24993,0.74193
20.00886,0.84123
19.76779,0.74329
19.52672,0.58806
19.28564,0.49295
19.04457,0.48619
18.80350,0.54300
18.56243,0.60982
18.32136,0.67981
18.08029,0.77644
17.83922,0.79580
17.59815,0.73679
17.35708,0.75818
17.11601,0.84719
16.87494,0.90615
16.63387,0.92475
16.39280,0.95641
16.15173,1.10797
15.91066,1.45325
15.66959,1.12916
15.42852,0.83709
15.18745,0.76976
14.94637,0.77574
14.70530,0.74615
14.46423,0.63242
14.22316,0.55460
13.98209,0.59473
13.74102,0.65040
13.49995,0.68353
13.25888,0.77886
13.01781,0.89520
12.77674,0.90541
12.53567,0.77246
12.29460,0.64864
12.05353,0.60547
11.81246,0.62741
11.57139,0.66794
11.33032,0.61613
11.08925,0.56643
10.84818,0.65343
10.60710,0.79803
10.36603,0.74080
10.12496,0.64748
9.88389,0.68377
9.64282,0.81758
9.40175,0.87810
9.16068,0.86386
8.91961,0.74818
8.67854,0.58468
8.43747,0.47112
8.19640,0.42608
7.95533,0.43547
7.71426,0.50015
7.47319,0.58796
7.23212,0.60310
6.99105,0.59188
6.74998,0.74816
6.50891,1.14386
6.26783,0.87892
6.02676,0.72955
5.78569,0.95033
5.54462,0.98532
5.30355,0.86101
5.06248,0.81156
4.82141,0.71112
4.58034,0.62927
4.33927,0.58299
4.09820,0.66898
3.85713,0.83897
3.61606,0.98918
3.37499,0.89893
3.13392,0.62319
2.89285,0.47111
2.65178,0.47839
2.41071,0.54688
2.16964,0.63008
1.92856,0.78263
1.68749,0.99341
1.44642,1.16151
1.20535,1.16010
0.96428,1.05709
0.72321,1.04307
0.48214,0.92100
0.24107,0.79763
-0.00000,0.63779
