399.69498,1.65115
399.45391,1.65027
399.21284,1.65484
398.97177,1.66542
398.73070,1.66461
398.48963,1.64172
398.24856,1.60104
398.00749,1.56767
397.76642,1.56600
397.52535,1.59330
397.28428,1.62851
397.04321,1.65659
396.80214,1.67052
396.56107,1.65892
396.32000,1.62370
396.07892,1.58819
395.83785,1.57072
395.59678,1.57872
395.35571,1.60991
395.11464,1.64450
394.87357,1.66884
394.63250,1.68802
394.39143,1.70538
394.15036,1.72500
393.90929,1.75104
393.66822,1.76630
393.42715,1.75294
393.18608,1.71369
392.94501,1.67361
392.70394,1.64878
392.46287,1.63372
392.22180,1.61923
391.98073,1.60561
391.73965,1.60220
391.49858,1.61754
391.25751,1.64562
391.01644,1.66258
390.77537,1.66998
390.53430,1.69999
390.29323,1.73799
390.05216,1.72180
389.81109,1.68022
389.57002,1.64632
389.32895,1.63607
389.08788,1.63429
388.84681,1.61434
388.60574,1.57765
388.36467,1.56885
388.12360,1.60302
387.88253,1.65626
387.64146,1.68596
387.40038,1.66104
387.15931,1.61661
386.91824,1.61339
386.67717,1.64820
386.43610,1.67029
386.19503,1.64084
385.95396,1.57050
385.71289,1.50280
385.47182,1.48197
385.23075,1.53176
384.98968,1.61419
384.74861,1.60300
384.50754,1.54045
384.26647,1.47832
384.02540,1.45932
383.78433,1.48332
383.54326,1.47469
383.30219,1.41587
383.06111,1.37016
382.82004,1.36581
382.57897,1.40222
382.33790,1.45808
382.09683,1.49321
381.85576,1.48382
381.61469,1.45558
381.37362,1.44721
381.13255,1.47458
380.89148,1.51051
380.65041,1.48870
380.40934,1.46529
380.16827,1.46640
379.92720,1.46236
379.68613,1.47028
379.44506,1.48308
379.20399,1.47123
378.96292,1.45149
378.72184,1.43645
378.48077,1.42957
378.23970,1.42360
377.99863,1.41914
377.75756,1.41184
377.51649,1.39702
377.27542,1.38759
377.03435,1.39791
376.79328,1.42824
376.55221,1.47005
376.31114,1.50800
376.07007,1.52682
375.82900,1.53111
375.58793,1.52619
375.34686,1.52024
375.10579,1.52473
374.86472,1.54423
374.62365,1.57370
374.38257,1.59888
374.14150,1.61372
373.90043,1.61518
373.65936,1.59149
373.41829,1.56671
373.17722,1.55489
372.93615,1.53364
372.69508,1.50569
372.45401,1.49619
372.21294,1.51345
371.97187,1.53695
371.73080,1.53444
371.48973,1.50536
371.24866,1.47545
371.00759,1.45905
370.76652,1.45008
370.52545,1.44096
370.28437,1.43646
370.04330,1.44257
369.80223,1.45543
369.56116,1.46478
369.32009,1.46349
369.07902,1.44922
368.83795,1.42592
368.59688,1.40563
368.35581,1.39643
368.11474,1.38884
367.87367,1.37095
367.63260,1.34585
367.39153,1.32124
367.15046,1.30263
366.90939,1.29470
366.66832,1.30007
366.42725,1.31473
366.18618,1.32857
365.94510,1.33198
365.70403,1.32211
365.46296,1.30738
365.22189,1.30046
364.98082,1.30429
364.73975,1.30967
364.49868,1.30552
364.25761,1.29141
364.01654,1.27491
363.77547,1.26127
363.53440,1.25050
363.29333,1.24121
363.05226,1.23402
362.81119,1.23174
362.57012,1.23688
362.32905,1.24806
362.08798,1.25945
361.84691,1.26446
361.60583,1.26181
361.36476,1.25467
361.12369,1.24470
360.88262,1.23293
360.64155,1.22542
360.40048,1.23117
360.15941,1.25446
359.91834,1.28777
359.67727,1.31036
359.43620,1.30664
359.19513,1.28562
358.95406,1.26836
358.71299,1.26635
358.47192,1.27573
358.23085,1.28504
357.98978,1.28543
357.74871,1.27957
357.50764,1.27639
357.26656,1.27134
357.02549,1.26096
356.78442,1.25388
356.54335,1.25214
356.30228,1.24873
356.06121,1.24450
355.82014,1.24603
355.57907,1.25014
355.33800,1.25114
355.09693,1.25110
354.85586,1.25042
354.61479,1.24286
354.37372,1.22907
354.13265,1.22017
353.89158,1.22405
353.65051,1.23820
353.40944,1.25280
353.16837,1.25906
352.92729,1.25951
352.68622,1.26605
352.44515,1.28425
352.20408,1.30771
351.96301,1.32789
351.72194,1.34021
351.48087,1.33988
351.23980,1.32665
350.99873,1.31432
350.75766,1.31969
350.51659,1.34107
350.27552,1.35642
350.03445,1.34727
349.79338,1.31814
349.55231,1.28338
349.31124,1.25389
349.07017,1.23931
348.82910,1.24204
348.58802,1.25259
348.34695,1.25978
348.10588,1.26489
347.86481,1.27625
347.62374,1.29385
347.38267,1.31015
347.14160,1.32358
346.90053,1.33989
346.65946,1.36527
346.41839,1.39749
346.17732,1.42528
345.93625,1.43701
345.69518,1.42403
345.45411,1.38980
345.21304,1.35461
344.97197,1.33854
344.73090,1.34398
344.48983,1.35966
344.24875,1.37564
344.00768,1.39443
343.76661,1.42361
343.52554,1.45557
343.28447,1.46402
343.04340,1.43539
342.80233,1.40483
342.56126,1.41146
342.32019,1.45452
342.07912,1.51085
341.83805,1.54222
341.59698,1.51495
341.35591,1.48398
341.11484,1.47764
340.87377,1.49021
340.63270,1.50268
340.39163,1.50509
340.15056,1.51467
339.90948,1.53074
339.66841,1.54087
339.42734,1.53917
339.18627,1.52052
338.94520,1.49712
338.70413,1.49093
338.46306,1.50341
338.22199,1.52125
337.98092,1.53289
337.73985,1.53147
337.49878,1.51712
337.25771,1.50249
337.01664,1.49553
336.77557,1.49065
336.53450,1.49703
336.29343,1.52835
336.05236,1.56177
335.81129,1.57182
335.57021,1.57389
335.32914,1.57491
335.08807,1.56871
334.84700,1.55687
334.60593,1.54649
334.36486,1.54231
334.12379,1.54551
333.88272,1.56464
333.64165,1.59655
333.40058,1.61544
333.15951,1.61654
332.91844,1.60080
332.67737,1.50482
332.43630,1.44642
332.19523,1.43084
331.95416,1.41534
331.71309,1.38664
331.47202,1.36017
331.23094,1.36149
330.98987,1.40502
330.74880,1.47486
330.50773,1.51838
330.26666,1.52772
330.02559,1.55490
329.78452,1.54925
329.54345,1.48395
329.30238,1.45090
329.06131,1.45116
328.82024,1.44430
328.57917,1.41148
328.33810,1.37527
328.09703,1.36028
327.85596,1.36789
327.61489,1.39452
327.37382,1.42390
327.13275,1.41528
326.89167,1.38329
326.65060,1.34767
326.40953,1.32509
326.16846,1.33185
325.92739,1.38458
325.68632,1.48296
325.44525,1.55641
325.20418,1.51161
324.96311,1.43324
324.72204,1.38953
324.48097,1.38453
324.23990,1.41157
323.99883,1.47252
323.75776,1.57800
323.51669,1.69551
323.27562,1.72324
323.03455,1.64448
322.79348,1.54932
322.55240,1.51395
322.31133,1.48678
322.07026,1.46427
321.82919,1.47815
321.58812,1.51377
321.34705,1.50267
321.10598,1.47179
320.86491,1.47991
320.62384,1.54585
320.38277,1.56021
320.14170,1.51722
319.90063,1.50156
319.65956,1.49419
319.41849,1.48420
319.17742,1.49179
318.93635,1.52774
318.69528,1.57499
318.45421,1.56607
318.21313,1.51532
317.97206,1.49862
317.73099,1.50891
317.48992,1.52269
317.24885,1.52971
317.00778,1.49460
316.76671,1.45762
316.52564,1.44802
316.28457,1.45740
316.04350,1.46344
315.80243,1.45224
315.56136,1.43267
315.32029,1.43376
315.07922,1.45863
314.83815,1.49392
314.59708,1.53309
314.35601,1.56940
314.11494,1.60439
313.87386,1.64936
313.63279,1.66397
313.39172,1.62382
313.15065,1.60803
312.90958,1.62775
312.66851,1.62462
312.42744,1.58482
312.18637,1.54684
311.94530,1.53605
311.70423,1.53090
311.46316,1.50729
311.22209,1.49466
310.98102,1.52582
310.73995,1.58330
310.49888,1.56823
310.25781,1.52734
310.01674,1.50140
309.77567,1.49649
309.53459,1.51258
309.29352,1.53930
309.05245,1.54833
308.81138,1.53409
308.57031,1.53196
308.32924,1.53938
308.08817,1.51105
307.84710,1.48095
307.60603,1.50841
307.36496,1.59652
307.12389,1.66765
306.88282,1.61236
306.64175,1.52664
306.40068,1.48570
306.15961,1.51541
305.91854,1.60834
305.67747,1.71002
305.43640,1.70298
305.19532,1.61936
304.95425,1.56049
304.71318,1.52477
304.47211,1.50432
304.23104,1.51092
303.98997,1.54381
303.74890,1.55560
303.50783,1.50790
303.26676,1.44240
303.02569,1.41100
302.78462,1.41880
302.54355,1.44057
302.30248,1.46020
302.06141,1.48082
301.82034,1.49944
301.57927,1.49795
301.33820,1.47665
301.09713,1.45263
300.85605,1.42068
300.61498,1.38172
300.37391,1.36208
300.13284,1.37787
299.89177,1.40946
299.65070,1.41791
299.40963,1.39558
299.16856,1.36264
298.92749,1.33388
298.68642,1.31285
298.44535,1.30230
298.20428,1.30963
297.96321,1.32990
297.72214,1.34057
297.48107,1.32753
297.24000,1.30211
296.99893,1.28447
296.75786,1.28303
296.51678,1.29111
296.27571,1.29506
296.03464,1.28403
295.79357,1.25638
295.55250,1.22411
295.31143,1.20577
295.07036,1.21204
294.82929,1.23969
294.58822,1.27418
294.34715,1.29297
294.10608,1.27582
293.86501,1.23190
293.62394,1.19557
293.38287,1.18767
293.14180,1.20335
292.90073,1.21573
292.65966,1.19526
292.41859,1.16078
292.17751,1.15176
291.93644,1.17294
291.69537,1.19812
291.45430,1.19685
291.21323,1.16918
290.97216,1.14547
290.73109,1.14587
290.49002,1.16208
290.24895,1.17170
290.00788,1.16932
289.76681,1.17028
289.52574,1.18030
289.28467,1.18533
289.04360,1.17555
288.80253,1.16234
288.56146,1.16031
288.32039,1.16805
288.07932,1.17516
287.83824,1.17683
287.59717,1.17490
287.35610,1.17007
287.11503,1.15941
286.87396,1.14403
286.63289,1.13324
286.39182,1.13379
286.15075,1.13984
285.90968,1.14118
285.66861,1.13881
285.42754,1.14219
285.18647,1.15136
284.94540,1.15553
284.70433,1.15065
284.46326,1.14518
284.22219,1.14750
283.98112,1.15462
283.74005,1.15514
283.49897,1.14499
283.25790,1.13342
283.01683,1.12968
282.77576,1.13270
282.53469,1.13664
282.29362,1.13897
282.05255,1.13952
281.81148,1.13860
281.57041,1.13804
281.32934,1.13856
281.08827,1.13767
280.84720,1.13447
280.60613,1.13195
280.36506,1.13028
280.12399,1.12475
279.88292,1.11506
279.64185,1.10768
279.40078,1.10629
279.15970,1.10834
278.91863,1.11212
278.67756,1.11977
278.43649,1.13103
278.19542,1.14179
277.95435,1.14792
277.71328,1.14673
277.47221,1.13913
277.23114,1.13117
276.99007,1.12593
276.74900,1.11996
276.50793,1.11192
276.26686,1.10694
276.02579,1.10792
275.78472,1.10955
275.54365,1.10810
275.30258,1.10954
275.06151,1.12068
274.82043,1.13693
274.57936,1.14547
274.33829,1.14205
274.09722,1.13716
273.85615,1.14020
273.61508,1.15053
273.37401,1.16302
273.13294,1.17190
272.89187,1.17442
272.65080,1.17548
272.40973,1.18007
272.16866,1.18288
271.92759,1.17554
271.68652,1.16029
271.44545,1.14828
271.20438,1.14772
270.96331,1.15713
270.72224,1.16806
270.48116,1.17230
270.24009,1.16752
269.99902,1.15803
269.75795,1.15203
269.51688,1.15674
269.27581,1.17055
269.03474,1.18240
268.79367,1.18437
268.55260,1.18037
268.31153,1.17980
268.07046,1.18905
267.82939,1.20881
267.58832,1.23307
267.34725,1.25326
267.10618,1.26738
266.86511,1.27870
266.62404,1.28820
266.38297,1.29453
266.14189,1.29970
265.90082,1.30624
265.65975,1.30924
265.41868,1.30315
265.17761,1.29238
264.93654,1.28677
264.69547,1.29324
264.45440,1.31285
264.21333,1.34086
263.97226,1.36959
263.73119,1.39291
263.49012,1.40467
263.24905,1.40137
263.00798,1.39254
262.76691,1.39384
262.52584,1.41275
262.28477,1.44304
262.04370,1.46888
261.80262,1.48197
261.56155,1.48874
261.32048,1.49636
261.07941,1.50832
260.83834,1.52726
260.59727,1.55252
260.35620,1.57997
260.11513,1.60925
259.87406,1.64296
259.63299,1.67928
259.39192,1.71458
259.15085,1.74000
258.90978,1.74564
258.66871,1.74947
258.42764,1.78183
258.18657,1.85751
257.94550,1.95928
257.70443,1.99551
257.46335,1.90068
257.22228,1.81377
256.98121,1.79561
256.74014,1.83486
256.49907,1.88451
256.25800,1.89823
256.01693,1.86809
255.77586,1.81125
255.53479,1.76360
255.29372,1.73968
255.05265,1.72995
254.81158,1.73075
254.57051,1.75101
254.32944,1.77504
254.08837,1.75119
253.84730,1.68621
253.60623,1.64465
253.36516,1.65883
253.12408,1.72017
252.88301,1.79543
252.64194,1.83855
252.40087,1.81968
252.15980,1.78965
251.91873,1.75175
251.67766,1.69388
251.43659,1.63188
251.19552,1.60296
250.95445,1.62891
250.71338,1.69210
250.47231,1.73875
250.23124,1.74441
249.99017,1.73106
249.74910,1.73296
249.50803,1.76172
249.26696,1.72611
249.02589,1.67353
248.78481,1.63854
248.54374,1.63712
248.30267,1.66568
248.06160,1.70041
247.82053,1.71721
247.57946,1.71589
247.33839,1.71500
247.09732,1.72690
246.85625,1.75329
246.61518,1.77799
246.37411,1.77017
246.13304,1.72969
245.89197,1.69336
245.65090,1.68895
245.40983,1.72867
245.16876,1.81656
244.92769,1.88452
244.68661,1.88055
244.44554,1.85091
244.20447,1.83110
243.96340,1.84477
243.72233,1.84620
243.48126,1.83694
243.24019,1.86722
242.99912,1.90735
242.75805,1.91446
242.51698,1.89477
242.27591,1.78147
242.03484,1.62662
241.79377,1.51189
241.55270,1.44391
241.31163,1.40230
241.07056,1.36458
240.82949,1.31873
240.58842,1.26707
240.34734,1.21735
240.10627,1.17242
239.86520,1.13197
239.62413,1.09721
239.38306,1.06913
239.14199,1.04538
238.90092,1.02221
238.65985,1.00003
238.41878,0.98380
238.17771,0.97618
237.93664,0.97267
237.69557,0.96599
237.45450,0.95372
237.21343,0.93871
236.97236,0.92399
236.73129,0.91064
236.49022,0.89932
236.24915,0.89138
236.00807,0.88751
235.76700,0.88583
235.52593,0.88254
235.28486,0.87519
235.04379,0.86499
234.80272,0.85479
234.56165,0.84574
234.32058,0.83664
234.07951,0.82649
233.83844,0.81712
233.59737,0.81193
233.35630,0.81216
233.11523,0.81624
232.87416,0.82323
232.63309,0.83233
232.39202,0.83783
232.15095,0.83190
231.90988,0.81692
231.66880,0.80567
231.42773,0.80501
231.18666,0.80832
230.94559,0.80736
230.70452,0.80350
230.46345,0.80085
230.22238,0.79801
229.98131,0.79429
229.74024,0.79613
229.49917,0.80702
229.25810,0.81759
229.01703,0.81722
228.77596,0.81061
228.53489,0.80698
228.29382,0.80457
228.05275,0.79854
227.81168,0.79387
227.57061,0.79771
227.32953,0.80707
227.08846,0.81229
226.84739,0.80797
226.60632,0.79621
226.36525,0.78379
226.12418,0.77879
225.88311,0.78511
225.64204,0.79774
225.40097,0.80767
225.15990,0.81334
224.91883,0.81898
224.67776,0.82195
224.43669,0.81633
224.19562,0.80703
223.95455,0.80283
223.71348,0.80381
223.47241,0.80565
223.23134,0.80852
222.99026,0.81543
222.74919,0.82803
222.50812,0.84478
222.26705,0.85877
222.02598,0.86297
221.78491,0.86123
221.54384,0.86272
221.30277,0.86675
221.06170,0.86801
220.82063,0.86775
220.57956,0.86948
220.33849,0.87560
220.09742,0.89040
219.85635,0.91593
219.61528,0.94585
219.37421,0.96871
219.13314,0.97758
218.89207,0.97527
218.65099,0.97004
218.40992,0.96830
218.16885,0.97203
217.92778,0.98025
217.68671,0.99245
217.44564,1.01238
217.20457,1.04392
216.96350,1.07804
216.72243,1.09498
216.48136,1.09213
216.24029,1.08608
215.99922,1.09134
215.75815,1.11298
215.51708,1.14485
215.27601,1.17395
215.03494,1.19569
214.79387,1.21466
214.55280,1.22527
214.31172,1.21968
214.07065,1.20938
213.82958,1.21125
213.58851,1.23092
213.34744,1.25641
213.10637,1.26760
212.86530,1.25934
212.62423,1.24640
212.38316,1.24553
212.14209,1.26334
211.90102,1.29261
211.65995,1.31652
211.41888,1.32464
211.17781,1.32246
210.93674,1.31966
210.69567,1.31692
210.45460,1.31007
210.21353,1.29828
209.97245,1.28093
209.73138,1.25847
209.49031,1.23799
209.24924,1.22874
209.00817,1.23676
208.76710,1.26173
208.52603,1.28869
208.28496,1.29666
208.04389,1.28442
207.80282,1.26495
207.56175,1.25221
207.32068,1.25486
207.07961,1.27033
206.83854,1.28326
206.59747,1.26979
206.35640,1.22949
206.11533,1.18950
205.87426,1.16590
205.63318,1.16329
205.39211,1.17989
205.15104,1.19744
204.90997,1.18534
204.66890,1.14096
204.42783,1.09579
204.18676,1.07194
203.94569,1.06935
203.70462,1.07742
203.46355,1.08435
203.22248,1.08096
202.98141,1.06357
202.74034,1.03573
202.49927,1.00587
202.25820,0.98299
202.01713,0.97186
201.77606,0.96923
201.53499,0.96496
201.29391,0.94970
201.05284,0.92284
200.81177,0.89217
200.57070,0.86743
200.32963,0.85436
200.08856,0.85141
199.84749,0.85014
199.60642,0.84236
199.36535,0.82822
199.12428,0.81262
198.88321,0.79962
198.64214,0.79211
198.40107,0.79068
198.16000,0.79127
197.91893,0.78619
197.67786,0.77182
197.43679,0.75467
197.19572,0.74357
196.95464,0.73849
196.71357,0.73037
196.47250,0.71328
196.23143,0.69479
195.99036,0.68733
195.74929,0.69419
195.50822,0.70203
195.26715,0.69030
195.02608,0.66270
194.78501,0.64316
194.54394,0.64412
194.30287,0.65696
194.06180,0.65965
193.82073,0.64340
193.57966,0.62463
193.33859,0.61765
193.09752,0.62083
192.85645,0.62487
192.61537,0.62481
192.37430,0.62317
192.13323,0.62247
191.89216,0.62069
191.65109,0.61593
191.41002,0.61132
191.16895,0.61103
190.92788,0.61330
190.68681,0.61253
190.44574,0.60838
190.20467,0.60614
189.96360,0.60798
189.72253,0.60987
189.48146,0.60786
189.24039,0.60292
188.99932,0.59717
188.75825,0.59074
188.51718,0.58420
188.27610,0.58016
188.03503,0.57929
187.79396,0.57748
187.55289,0.57050
187.31182,0.56110
187.07075,0.55773
186.82968,0.56445
186.58861,0.57483
186.34754,0.57962
186.10647,0.57921
185.86540,0.58004
185.62433,0.58369
185.38326,0.58782
185.14219,0.59335
184.90112,0.60037
184.66005,0.60177
184.41898,0.59406
184.17791,0.58809
183.93683,0.59417
183.69576,0.60691
183.45469,0.61299
183.21362,0.61048
182.97255,0.60851
182.73148,0.60946
182.49041,0.60760
182.24934,0.60284
182.00827,0.60249
181.76720,0.60859
181.52613,0.61415
181.28506,0.61540
181.04399,0.61676
180.80292,0.62039
180.56185,0.62275
180.32078,0.62329
180.07971,0.62566
179.83864,0.63002
179.59756,0.63517
179.35649,0.64332
179.11542,0.65418
178.87435,0.66300
178.63328,0.66927
178.39221,0.67554
178.15114,0.67956
177.91007,0.68134
177.66900,0.68671
177.42793,0.69617
177.18686,0.70444
176.94579,0.71163
176.70472,0.72356
176.46365,0.74227
176.22258,0.76573
175.98151,0.79190
175.74044,0.81760
175.49937,0.83963
175.25829,0.86083
175.01722,0.88711
174.77615,0.91727
174.53508,0.94027
174.29401,0.94590
174.05294,0.93955
173.81187,0.93858
173.57080,0.95392
173.32973,0.97994
173.08866,1.00188
172.84759,1.01311
172.60652,1.02149
172.36545,1.03585
172.12438,1.05413
171.88331,1.06957
171.64224,1.08073
171.40117,1.08857
171.16010,1.09205
170.91902,1.09028
170.67795,1.08054
170.43688,1.05969
170.19581,1.03294
169.95474,1.00905
169.71367,0.99045
169.47260,0.97546
169.23153,0.96418
168.99046,0.95853
168.74939,0.96188
168.50832,0.97878
168.26725,1.00811
168.02618,1.03629
167.78511,1.04538
167.54404,1.03282
167.30297,1.01124
167.06190,0.98875
166.82083,0.96539
166.57975,0.94477
166.33868,0.93648
166.09761,0.94629
165.85654,0.97077
165.61547,1.00143
165.37440,1.03115
165.13333,1.05570
164.89226,1.07042
164.65119,1.06781
164.41012,1.04554
164.16905,1.01520
163.92798,0.99434
163.68691,0.99540
163.44584,1.02043
163.20477,1.06171
162.96370,1.10867
162.72263,1.15262
162.48156,1.18087
162.24048,1.18045
161.99941,1.15986
161.75834,1.14305
161.51727,1.14599
161.27620,1.16683
161.03513,1.18784
160.79406,1.19265
160.55299,1.18659
160.31192,1.18526
160.07085,1.18740
159.82978,1.18011
159.58871,1.16452
159.34764,1.15404
159.10657,1.15210
158.86550,1.15297
158.62443,1.16005
158.38336,1.18154
158.14229,1.20129
157.90121,1.18655
157.66014,1.13965
157.41907,1.09299
157.17800,1.06964
156.93693,1.07400
156.69586,1.10089
156.45479,1.13363
156.21372,1.13814
155.97265,1.10071
155.73158,1.05039
155.49051,1.01580
155.24944,1.00722
155.00837,1.01838
154.76730,1.02961
154.52623,1.02073
154.28516,0.99016
154.04409,0.95352
153.80302,0.92321
153.56194,0.90362
153.32087,0.89589
153.07980,0.89542
152.83873,0.89163
152.59766,0.87596
152.35659,0.84930
152.11552,0.82023
151.87445,0.79755
151.63338,0.78488
151.39231,0.77922
151.15124,0.77186
150.91017,0.75428
150.66910,0.72859
150.42803,0.70513
150.18696,0.68998
149.94589,0.68177
149.70482,0.67637
149.46375,0.66968
149.22267,0.65794
148.98160,0.64016
148.74053,0.62062
148.49946,0.60640
148.25839,0.60242
148.01732,0.60695
147.77625,0.61070
147.53518,0.60692
147.29411,0.60085
147.05304,0.60181
146.81197,0.61015
146.57090,0.61488
146.32983,0.60847
146.08876,0.60003
145.84769,0.60327
145.60662,0.62018
145.36555,0.63830
145.12448,0.64280
144.88340,0.63519
144.64233,0.62908
144.40126,0.63224
144.16019,0.64194
143.91912,0.65081
143.67805,0.65454
143.43698,0.65343
143.19591,0.64906
142.95484,0.64290
142.71377,0.63568
142.47270,0.62662
142.23163,0.61414
141.99056,0.59845
141.74949,0.58309
141.50842,0.57226
141.26735,0.56656
141.02628,0.56286
140.78521,0.55887
140.54413,0.55581
140.30306,0.55579
140.06199,0.55901
139.82092,0.56468
139.57985,0.57296
139.33878,0.58272
139.09771,0.58968
138.85664,0.59115
138.61557,0.59107
138.37450,0.59518
138.13343,0.60329
137.89236,0.61167
137.65129,0.62079
137.41022,0.63454
137.16915,0.65328
136.92808,0.67401
136.68701,0.69625
136.44594,0.72111
136.20486,0.74578
135.96379,0.76549
135.72272,0.78493
135.48165,0.81558
135.24058,0.85698
134.99951,0.89517
134.75844,0.92204
134.51737,0.94533
134.27630,0.97741
134.03523,1.02394
133.79416,1.07602
133.55309,1.11261
133.31202,1.12783
133.07095,1.14056
132.82988,1.16138
132.58881,1.18218
132.34774,1.20179
132.10667,1.22521
131.86559,1.23946
131.62452,1.22349
131.38345,1.18155
131.14238,1.13711
130.90131,1.10407
130.66024,1.08122
130.41917,1.06150
130.17810,1.04058
129.93703,1.01691
129.69596,0.98925
129.45489,0.95579
129.21382,0.91506
128.97275,0.86838
128.73168,0.82144
128.49061,0.78195
128.24954,0.75174
128.00847,0.72480
127.76740,0.69586
127.52632,0.66732
127.28525,0.64425
127.04418,0.62631
126.80311,0.60949
126.56204,0.59298
126.32097,0.57968
126.07990,0.57121
125.83883,0.56562
125.59776,0.55985
125.35669,0.55183
125.11562,0.54117
124.87455,0.52927
124.63348,0.51784
124.39241,0.50679
124.15134,0.49509
123.91027,0.48383
123.66920,0.47608
123.42812,0.47281
123.18705,0.47071
122.94598,0.46542
122.70491,0.45702
122.46384,0.45040
122.22277,0.44972
121.98170,0.45409
121.74063,0.45917
121.49956,0.46287
121.25849,0.46848
121.01742,0.48110
120.77635,0.50165
120.53528,0.52592
120.29421,0.54960
120.05314,0.57225
119.81207,0.59431
119.57100,0.61281
119.32993,0.62516
119.08885,0.63470
118.84778,0.64684
118.60671,0.66284
118.36564,0.68109
118.12457,0.70221
117.88350,0.72883
117.64243,0.76020
117.40136,0.79004
117.16029,0.81095
116.91922,0.82095
116.67815,0.82478
116.43708,0.82875
116.19601,0.83537
115.95494,0.84109
115.71387,0.83817
115.47280,0.82343
115.23173,0.80185
114.99066,0.77492
114.74958,0.74052
114.50851,0.70384
114.26744,0.67506
114.02637,0.65804
113.78530,0.65124
113.54423,0.65435
113.30316,0.66685
113.06209,0.68526
112.82102,0.70708
112.57995,0.73430
112.33888,0.76916
112.09781,0.80601
111.85674,0.82453
111.61567,0.80359
111.37460,0.75804
111.13353,0.71638
110.89246,0.68930
110.65139,0.67651
110.41031,0.67737
110.16924,0.69544
109.92817,0.73631
109.68710,0.79415
109.44603,0.83125
109.20496,0.80223
108.96389,0.73784
108.72282,0.68257
108.48175,0.64472
108.24068,0.61928
107.99961,0.60368
107.75854,0.59915
107.51747,0.60507
107.27640,0.61305
107.03533,0.60715
106.79426,0.57776
106.55319,0.53491
106.31212,0.49299
106.07104,0.46019
105.82997,0.44242
105.58890,0.44152
105.34783,0.45161
105.10676,0.45904
104.86569,0.44877
104.62462,0.42186
104.38355,0.39453
104.14248,0.37791
103.90141,0.37324
103.66034,0.37674
103.41927,0.38265
103.17820,0.38347
102.93713,0.37348
102.69606,0.35625
102.45499,0.34057
102.21392,0.33268
101.97285,0.33601
101.73177,0.34848
101.49070,0.35883
101.24963,0.35492
101.00856,0.33857
100.76749,0.32176
100.52642,0.31327
100.28535,0.31608
100.04428,0.33029
99.80321,0.34874
99.56214,0.35218
99.32107,0.33001
99.08000,0.30018
98.83893,0.28571
98.59786,0.29623
98.35679,0.32084
98.11572,0.32734
97.87465,0.30324
97.63358,0.27929
97.39250,0.28040
97.15143,0.30316
96.91036,0.32007
96.66929,0.31168
96.42822,0.29780
96.18715,0.30258
95.94608,0.32668
95.70501,0.34815
95.46394,0.34851
95.22287,0.34348
94.98180,0.35234
94.74073,0.36946
94.49966,0.37833
94.25859,0.37876
94.01752,0.38488
93.77645,0.39535
93.53538,0.39503
93.29431,0.38780
93.05323,0.39232
92.81216,0.41081
92.57109,0.42167
92.33002,0.41293
92.08895,0.40716
91.84788,0.41672
91.60681,0.42379
91.36574,0.41982
91.12467,0.42631
90.88360,0.45509
90.64253,0.48337
90.40146,0.49632
90.16039,0.52270
89.91932,0.57062
89.67825,0.61176
89.43718,0.64431
89.19611,0.68540
88.95504,0.71678
88.71396,0.72587
88.47289,0.73261
88.23182,0.73888
87.99075,0.72848
87.74968,0.70004
87.50861,0.65888
87.26754,0.60991
87.02647,0.56258
86.78540,0.52306
86.54433,0.49074
86.30326,0.46152
86.06219,0.43431
85.82112,0.41096
85.58005,0.39148
85.33898,0.37343
85.09791,0.35310
84.85684,0.32927
84.61577,0.30607
84.37469,0.28898
84.13362,0.27922
83.89255,0.27311
83.65148,0.26552
83.41041,0.25420
83.16934,0.24097
82.92827,0.22865
82.68720,0.21972
82.44613,0.21640
82.20506,0.21826
81.96399,0.22156
81.72292,0.22287
81.48185,0.22163
81.24078,0.21949
80.99971,0.21845
80.75864,0.21854
80.51757,0.21833
80.27650,0.21822
80.03542,0.21986
79.79435,0.22275
79.55328,0.22542
79.31221,0.22759
79.07114,0.22789
78.83007,0.22366
78.58900,0.21532
78.34793,0.20688
78.10686,0.20234
77.86579,0.20356
77.62472,0.20923
77.38365,0.21431
77.14258,0.21245
76.90151,0.20273
76.66044,0.19311
76.41937,0.19396
76.17830,0.20803
75.93723,0.22710
75.69615,0.23869
75.45508,0.23535
75.21401,0.22054
74.97294,0.20396
74.73187,0.19315
74.49080,0.19358
74.24973,0.20780
74.00866,0.23029
73.76759,0.24848
73.52652,0.25488
73.28545,0.25409
73.04438,0.25434
72.80331,0.26004
72.56224,0.26910
72.32117,0.27410
72.08010,0.26982
71.83903,0.25783
71.59796,0.24368
71.35688,0.23092
71.11581,0.21766
70.87474,0.20072
70.63367,0.18481
70.39260,0.18181
70.15153,0.19913
69.91046,0.23430
69.66939,0.28010
69.42832,0.33151
69.18725,0.38165
68.94618,0.40299
68.70511,0.36812
68.46404,0.30530
68.22297,0.24526
67.98190,0.19756
67.74083,0.16679
67.49976,0.15397
67.25869,0.15331
67.01761,0.15545
66.77654,0.15442
66.53547,0.14998
66.29440,0.14499
66.05333,0.14250
65.81226,0.14481
65.57119,0.15440
65.33012,0.17334
65.08905,0.20130
64.84798,0.23474
64.60691,0.26777
64.36584,0.29535
64.12477,0.31739
63.88370,0.33702
63.64263,0.35417
63.40156,0.36217
63.16049,0.35207
62.91942,0.32374
62.67834,0.28649
62.43727,0.24915
62.19620,0.21580
61.95513,0.18775
61.71406,0.16630
61.47299,0.15164
61.23192,0.14064
60.99085,0.12925
60.74978,0.11701
60.50871,0.10800
60.26764,0.10816
60.02657,0.12226
59.78550,0.15099
59.54443,0.18934
59.30336,0.22859
59.06229,0.26083
58.82122,0.28390
58.58015,0.30375
58.33907,0.32402
58.09800,0.32322
57.85693,0.28008
57.61586,0.21542
57.37479,0.14823
57.13372,0.09142
56.89265,0.05596
56.65158,0.04442
56.41051,0.05270
56.16944,0.07681
55.92837,0.11649
55.68730,0.17550
55.44623,0.27213
55.20516,0.39366
54.96409,0.33841
54.72302,0.21645
54.48195,0.12823
54.24088,0.07491
53.99980,0.04926
53.75873,0.04805
53.51766,0.07384
53.27659,0.13315
53.03552,0.25349
52.79445,0.41128
52.55338,0.29785
52.31231,0.16946
52.07124,0.10388
51.83017,0.08244
51.58910,0.09999
51.34803,0.16164
51.10696,0.28364
50.86589,0.37813
50.62482,0.22014
50.38375,0.10051
50.14268,0.05866
49.90161,0.08173
49.66053,0.20763
49.41946,0.40347
49.17839,0.21821
48.93732,0.05628
48.69625,0.01737
48.45518,0.08713
48.21411,0.25387
47.97304,0.28519
47.73197,0.13380
47.49090,0.07477
47.24983,0.11798
47.00876,0.19328
46.76769,0.16289
46.52662,0.10326
46.28555,0.11459
46.04448,0.15240
45.80341,0.13030
45.56234,0.10633
45.32126,0.12819
45.08019,0.12662
44.83912,0.07440
44.59805,0.05894
44.35698,0.10446
44.11591,0.15709
43.87484,0.16575
43.63377,0.16621
43.39270,0.16545
43.15163,0.14294
42.91056,0.12280
42.66949,0.12666
42.42842,0.14895
42.18735,0.18287
41.94628,0.21138
41.70521,0.20702
41.46414,0.19089
41.22307,0.19565
40.98199,0.22466
40.74092,0.26440
40.49985,0.29455
40.25878,0.29482
40.01771,0.26444
39.77664,0.22413
39.53557,0.19352
39.29450,0.18047
39.05343,0.18410
38.81236,0.19945
38.57129,0.22387
38.33022,0.25121
38.08915,0.26642
37.84808,0.26800
37.60701,0.26853
37.36594,0.26832
37.12487,0.26581
36.88380,0.26916
36.64272,0.28158
36.40165,0.29563
36.16058,0.30307
35.91951,0.29604
35.67844,0.27063
35.43737,0.23790
35.19630,0.20967
34.95523,0.19152
34.71416,0.19049
34.47309,0.20592
34.23202,0.22280
33.99095,0.22972
33.74988,0.22643
33.50881,0.21201
33.26774,0.18019
33.02667,0.13261
32.78560,0.08779
32.54453,0.06477
32.30345,0.06590
32.06238,0.08016
31.82131,0.09932
31.58024,0.12092
31.33917,0.13457
31.09810,0.13074
30.85703,0.11645
30.61596,0.10331
30.37489,0.09429
30.13382,0.09178
29.89275,0.09740
29.65168,0.08374
29.41061,0.04961
29.16954,0.03800
28.92847,0.07198
28.68740,0.12894
28.44633,0.16393
28.20526,0.16279
27.96418,0.17253
27.72311,0.23190
27.48204,0.30823
27.24097,0.33041
26.99990,0.29445
26.75883,0.25820
26.51776,0.25581
26.27669,0.27300
26.03562,0.27681
25.79455,0.25578
25.55348,0.21369
25.31241,0.15928
25.07134,0.11585
24.83027,0.09746
24.58920,0.09605
24.34813,0.10113
24.10706,0.10239
23.86599,0.08681
23.62491,0.05569
23.38384,0.02970
23.14277,0.03709
22.90170,0.08428
22.66063,0.13867
22.41956,0.16511
22.17849,0.15830
21.93742,0.12558
21.69635,0.07388
21.45528,0.02223
21.21421,0.00430
20.97314,0.03151
20.73207,0.06363
20.49100,0.05429
20.24993,0.00252
20.00886,-0.05186
19.76779,-0.06870
19.52672,-0.04462
19.28564,-0.01360
19.04457,-0.01065
18.80350,-0.04511
18.56243,-0.09361
18.32136,-0.11997
18.08029,-0.10651
17.83922,-0.06307
17.59815,-0.02669
17.35708,-0.01436
17.11601,-0.00557
16.87494,0.01664
16.63387,0.02971
16.39280,0.01555
16.15173,-0.01217
15.91066,-0.03029
15.66959,-0.03974
15.42852,-0.05405
15.18745,-0.06616
14.94637,-0.05577
14.70530,-0.02833
14.46423,-0.01921
14.22316,-0.06088
13.98209,-0.13466
13.74102,-0.17953
13.49995,-0.15231
13.25888,-0.07531
13.01781,-0.01877
12.77674,-0.00238
12.53567,-0.01596
12.29460,-0.06720
12.05353,-0.14920
11.81246,-0.21825
11.57139,-0.24617
11.33032,-0.24305
11.08925,-0.22240
10.84818,-0.18183
10.60710,-0.12094
10.36603,-0.05000
10.12496,-0.00485
9.88389,-0.01987
9.64282,-0.07564
9.40175,-0.13095
9.16068,-0.19494
8.91961,-0.22848
8.67854,-0.20531
8.43747,-0.15585
8.19640,-0.09248
7.95533,-0.02952
7.71426,-0.00538
7.47319,-0.02029
7.23212,-0.04522
6.99105,-0.07891
6.74998,-0.13862
6.50891,-0.20599
6.26783,-0.22844
6.02676,-0.19285
5.78569,-0.15066
5.54462,-0.14841
5.30355,-0.17445
5.06248,-0.15219
4.82141,-0.10783
4.58034,-0.05917
4.33927,-0.01556
4.09820,-0.02414
3.85713,-0.06451
3.61606,-0.09056
3.37499,-0.07837
3.13392,-0.04140
2.89285,0.00195
2.65178,0.03835
2.41071,0.03395
2.16964,-0.00401
1.92856,-0.05062
1.68749,-0.09723
1.44642,-0.11868
1.20535,-0.10127
0.96428,-0.05744
0.72321,-0.01835
0.48214,-0.02945
0.24107,-0.09772
-0.00000,-0.10301
