399.69498,1.71222
399.45391,1.71500
399.21284,1.69442
398.97177,1.66571
398.73070,1.66195
398.48963,1.68499
398.24856,1.70796
398.00749,1.70832
397.76642,1.69027
397.52535,1.67395
397.28428,1.67408
397.04321,1.69231
396.80214,1.71448
396.56107,1.72175
396.32000,1.70820
396.07892,1.68668
395.83785,1.67386
395.59678,1.68183
395.35571,1.71654
395.11464,1.77422
394.87357,1.84403
394.63250,1.90474
394.39143,1.91888
394.15036,1.85687
393.90929,1.75463
393.66822,1.67620
393.42715,1.65577
393.18608,1.68456
392.94501,1.71616
392.70394,1.72121
392.46287,1.73596
392.22180,1.74168
391.98073,1.68880
391.73965,1.65953
391.49858,1.66645
391.25751,1.68157
391.01644,1.66719
390.77537,1.63049
390.53430,1.61344
390.29323,1.60999
390.05216,1.60809
389.81109,1.60709
389.57002,1.60380
389.32895,1.61368
389.08788,1.64748
388.84681,1.67332
388.60574,1.66497
388.36467,1.66235
388.12360,1.68019
387.88253,1.71699
387.64146,1.74933
387.40038,1.68576
387.15931,1.62218
386.91824,1.60649
386.67717,1.61184
386.43610,1.60362
386.19503,1.58421
385.95396,1.57339
385.71289,1.57023
385.47182,1.56824
385.23075,1.58539
384.98968,1.61912
384.74861,1.58472
384.50754,1.50339
384.26647,1.42653
384.02540,1.38534
383.78433,1.39689
383.54326,1.44789
383.30219,1.51857
383.06111,1.57296
382.82004,1.56753
382.57897,1.52412
382.33790,1.47720
382.09683,1.41557
381.85576,1.36317
381.61469,1.33829
381.37362,1.34084
381.13255,1.36615
380.89148,1.40790
380.65041,1.46341
380.40934,1.51514
380.16827,1.53561
379.92720,1.51293
379.68613,1.47568
379.44506,1.45229
379.20399,1.43345
378.96292,1.41303
378.72184,1.40972
378.48077,1.42084
378.23970,1.44448
377.99863,1.46238
377.75756,1.45414
377.51649,1.45115
377.27542,1.46186
377.03435,1.49416
376.79328,1.52632
376.55221,1.54315
376.31114,1.57123
376.07007,1.57523
375.82900,1.56218
375.58793,1.57241
375.34686,1.58470
375.10579,1.57032
374.86472,1.54874
374.62365,1.54731
374.38257,1.56050
374.14150,1.57130
373.90043,1.58428
373.65936,1.61227
373.41829,1.64327
373.17722,1.63809
372.93615,1.58896
372.69508,1.54063
372.45401,1.52774
372.21294,1.53966
371.97187,1.54501
371.73080,1.54885
371.48973,1.58206
371.24866,1.63151
371.00759,1.64082
370.76652,1.59325
370.52545,1.52572
370.28437,1.46854
370.04330,1.42935
369.80223,1.41079
369.56116,1.41124
369.32009,1.42371
369.07902,1.44454
368.83795,1.46510
368.59688,1.46567
368.35581,1.44328
368.11474,1.41626
367.87367,1.39365
367.63260,1.37068
367.39153,1.34824
367.15046,1.33519
366.90939,1.33503
366.66832,1.34263
366.42725,1.35690
366.18618,1.37942
365.94510,1.39674
365.70403,1.39121
365.46296,1.36995
365.22189,1.35459
364.98082,1.35480
364.73975,1.36220
364.49868,1.36747
364.25761,1.37129
364.01654,1.37594
363.77547,1.37466
363.53440,1.36096
363.29333,1.34361
363.05226,1.33652
362.81119,1.34468
362.57012,1.36099
362.32905,1.37212
362.08798,1.37203
361.84691,1.36362
361.60583,1.35003
361.36476,1.33467
361.12369,1.32523
360.88262,1.32750
360.64155,1.33444
360.40048,1.32944
360.15941,1.30825
359.91834,1.28938
359.67727,1.29059
359.43620,1.30700
359.19513,1.31920
358.95406,1.31579
358.71299,1.30351
358.47192,1.29518
358.23085,1.29363
357.98978,1.29030
357.74871,1.27912
357.50764,1.26851
357.26656,1.26929
357.02549,1.27971
356.78442,1.29204
356.54335,1.30473
356.30228,1.32108
356.06121,1.33934
355.82014,1.35059
355.57907,1.34931
355.33800,1.34066
355.09693,1.33730
354.85586,1.34364
354.61479,1.34709
354.37372,1.33880
354.13265,1.33051
353.89158,1.33760
353.65051,1.35885
353.40944,1.37320
353.16837,1.36527
352.92729,1.35300
352.68622,1.35309
352.44515,1.36417
352.20408,1.37610
351.96301,1.37428
351.72194,1.35589
351.48087,1.34175
351.23980,1.34713
350.99873,1.36151
350.75766,1.37544
350.51659,1.39321
350.27552,1.40364
350.03445,1.39077
349.79338,1.36235
349.55231,1.33575
349.31124,1.32208
349.07017,1.32033
348.82910,1.32530
348.58802,1.33299
348.34695,1.34044
348.10588,1.34667
347.86481,1.35547
347.62374,1.37446
347.38267,1.40917
347.14160,1.45628
346.90053,1.50203
346.65946,1.53176
346.41839,1.53867
346.17732,1.51030
345.93625,1.45679
345.69518,1.41469
345.45411,1.39486
345.21304,1.39063
344.97197,1.39748
344.73090,1.41304
344.48983,1.42619
344.24875,1.43581
344.00768,1.45714
343.76661,1.48382
343.52554,1.49541
343.28447,1.49696
343.04340,1.50346
342.80233,1.51920
342.56126,1.53653
342.32019,1.54786
342.07912,1.55325
341.83805,1.56128
341.59698,1.57521
341.35591,1.58448
341.11484,1.57953
340.87377,1.56240
340.63270,1.54130
340.39163,1.53012
340.15056,1.54161
339.90948,1.57089
339.66841,1.59432
339.42734,1.59980
339.18627,1.60696
338.94520,1.63785
338.70413,1.68101
338.46306,1.69679
338.22199,1.67365
337.98092,1.64139
337.73985,1.62046
337.49878,1.63675
337.25771,1.67064
337.01664,1.56212
336.77557,1.47289
336.53450,1.42949
336.29343,1.40623
336.05236,1.39245
335.81129,1.39869
335.57021,1.44137
335.32914,1.51323
335.08807,1.56180
334.84700,1.54722
334.60593,1.52527
334.36486,1.53048
334.12379,1.57336
333.88272,1.61654
333.64165,1.59021
333.40058,1.53419
333.15951,1.50058
332.91844,1.50577
332.67737,1.54134
332.43630,1.58436
332.19523,1.61379
331.95416,1.63391
331.71309,1.63099
331.47202,1.59325
331.23094,1.55188
330.98987,1.51483
330.74880,1.46923
330.50773,1.43264
330.26666,1.42686
330.02559,1.44898
329.78452,1.47947
329.54345,1.50056
329.30238,1.51266
329.06131,1.53147
328.82024,1.54803
328.57917,1.51880
328.33810,1.47509
328.09703,1.44406
327.85596,1.42091
327.61489,1.40541
327.37382,1.41404
327.13275,1.44969
326.89167,1.46964
326.65060,1.44886
326.40953,1.42479
326.16846,1.41755
325.92739,1.43191
325.68632,1.44226
325.44525,1.45152
325.20418,1.45783
324.96311,1.44963
324.72204,1.42817
324.48097,1.41299
324.23990,1.41490
323.99883,1.42357
323.75776,1.44310
323.51669,1.45601
323.27562,1.47678
323.03455,1.50738
322.79348,1.49522
322.55240,1.42783
322.31133,1.36892
322.07026,1.36254
321.82919,1.41577
321.58812,1.48801
321.34705,1.49544
321.10598,1.49606
320.86491,1.48570
320.62384,1.46202
320.38277,1.48056
320.14170,1.54854
319.90063,1.56923
319.65956,1.52483
319.41849,1.48833
319.17742,1.48495
318.93635,1.49067
318.69528,1.46207
318.45421,1.45442
318.21313,1.48223
317.97206,1.50491
317.73099,1.54201
317.48992,1.59950
317.24885,1.56990
317.00778,1.48660
316.76671,1.40906
316.52564,1.36383
316.28457,1.36681
316.04350,1.41185
315.80243,1.46315
315.56136,1.49434
315.32029,1.51102
315.07922,1.50527
314.83815,1.49241
314.59708,1.49531
314.35601,1.51682
314.11494,1.53143
313.87386,1.52008
313.63279,1.49782
313.39172,1.48307
313.15065,1.47476
312.90958,1.46885
312.66851,1.46912
312.42744,1.49385
312.18637,1.54197
311.94530,1.51121
311.70423,1.46301
311.46316,1.43554
311.22209,1.43651
310.98102,1.48398
310.73995,1.58179
310.49888,1.65716
310.25781,1.63545
310.01674,1.55813
309.77567,1.49406
309.53459,1.48503
309.29352,1.52444
309.05245,1.57310
308.81138,1.59429
308.57031,1.58681
308.32924,1.56916
308.08817,1.55724
307.84710,1.56980
307.60603,1.60599
307.36496,1.63387
307.12389,1.61981
306.88282,1.57453
306.64175,1.54836
306.40068,1.56268
306.15961,1.59551
305.91854,1.60791
305.67747,1.60390
305.43640,1.60762
305.19532,1.62810
304.95425,1.62871
304.71318,1.58012
304.47211,1.53534
304.23104,1.52506
303.98997,1.55318
303.74890,1.61014
303.50783,1.65084
303.26676,1.62324
303.02569,1.56676
302.78462,1.51937
302.54355,1.49749
302.30248,1.48766
302.06141,1.48001
301.82034,1.46775
301.57927,1.42368
301.33820,1.37868
301.09713,1.36612
300.85605,1.38591
300.61498,1.43439
300.37391,1.49561
300.13284,1.52202
299.89177,1.48817
299.65070,1.43468
299.40963,1.40015
299.16856,1.38993
298.92749,1.39213
298.68642,1.39263
298.44535,1.38239
298.20428,1.36787
297.96321,1.35581
297.72214,1.34828
297.48107,1.34545
297.24000,1.34497
296.99893,1.34734
296.75786,1.35513
296.51678,1.36307
296.27571,1.35734
296.03464,1.33523
295.79357,1.30801
295.55250,1.29042
295.31143,1.29180
295.07036,1.30441
294.82929,1.31501
294.58822,1.31964
294.34715,1.31857
294.10608,1.30879
293.86501,1.28692
293.62394,1.25913
293.38287,1.23930
293.14180,1.23475
292.90073,1.24134
292.65966,1.25089
292.41859,1.25758
292.17751,1.25845
291.93644,1.25252
291.69537,1.24540
291.45430,1.24772
291.21323,1.26181
290.97216,1.27413
290.73109,1.26870
290.49002,1.25271
290.24895,1.24862
290.00788,1.25962
289.76681,1.26278
289.52574,1.24097
289.28467,1.20794
289.04360,1.18388
288.80253,1.17659
288.56146,1.18018
288.32039,1.18454
288.07932,1.19108
287.83824,1.20276
287.59717,1.21097
287.35610,1.20393
287.11503,1.18239
286.87396,1.16413
286.63289,1.16413
286.39182,1.17804
286.15075,1.19048
285.90968,1.19649
285.66861,1.20299
285.42754,1.20920
285.18647,1.20676
284.94540,1.19935
284.70433,1.20100
284.46326,1.21600
284.22219,1.23404
283.98112,1.24281
283.74005,1.23851
283.49897,1.22466
283.25790,1.20599
283.01683,1.18910
282.77576,1.18247
282.53469,1.18834
282.29362,1.19909
282.05255,1.20479
281.81148,1.20383
281.57041,1.20290
281.32934,1.20655
281.08827,1.21054
280.84720,1.20739
280.60613,1.19624
280.36506,1.18284
280.12399,1.17286
279.88292,1.16795
279.64185,1.16735
279.40078,1.16893
279.15970,1.17006
278.91863,1.17030
278.67756,1.17166
278.43649,1.17651
278.19542,1.18283
277.95435,1.18684
277.71328,1.18876
277.47221,1.18693
277.23114,1.17694
276.99007,1.16243
276.74900,1.15542
276.50793,1.16263
276.26686,1.17932
276.02579,1.19837
275.78472,1.21632
275.54365,1.22669
275.30258,1.22394
275.06151,1.21374
274.82043,1.20609
274.57936,1.20300
274.33829,1.20221
274.09722,1.20369
273.85615,1.20575
273.61508,1.20472
273.37401,1.20247
273.13294,1.20466
272.89187,1.21145
272.65080,1.21771
272.40973,1.22079
272.16866,1.22262
271.92759,1.22408
271.68652,1.22263
271.44545,1.21750
271.20438,1.21387
270.96331,1.21825
270.72224,1.22793
270.48116,1.23105
270.24009,1.22363
269.99902,1.21780
269.75795,1.22217
269.51688,1.22810
269.27581,1.22510
269.03474,1.21634
268.79367,1.21137
268.55260,1.21486
268.31153,1.22501
268.07046,1.23670
267.82939,1.24511
267.58832,1.24896
267.34725,1.25044
267.10618,1.25248
266.86511,1.25782
266.62404,1.26880
266.38297,1.28420
266.14189,1.29868
265.90082,1.30969
265.65975,1.32271
265.41868,1.34283
265.17761,1.36378
264.93654,1.37613
264.69547,1.38492
264.45440,1.40245
264.21333,1.42820
263.97226,1.44838
263.73119,1.45589
263.49012,1.46187
263.24905,1.47792
263.00798,1.50407
262.76691,1.53547
262.52584,1.56596
262.28477,1.58738
262.04370,1.59452
261.80262,1.59078
261.56155,1.58106
261.32048,1.56477
261.07941,1.55290
260.83834,1.57097
260.59727,1.62848
260.35620,1.69523
260.11513,1.72182
259.87406,1.70424
259.63299,1.69475
259.39192,1.73118
259.15085,1.80540
258.90978,1.88552
258.66871,1.93418
258.42764,1.92007
258.18657,1.84066
257.94550,1.76228
257.70443,1.74321
257.46335,1.78050
257.22228,1.84414
256.98121,1.90610
256.74014,1.94050
256.49907,1.93490
256.25800,1.89719
256.01693,1.85120
255.77586,1.83018
255.53479,1.84230
255.29372,1.85453
255.05265,1.81706
254.81158,1.76105
254.57051,1.72966
254.32944,1.71522
254.08837,1.70851
253.84730,1.71565
253.60623,1.71735
253.36516,1.74105
253.12408,1.75634
252.88301,1.77196
252.64194,1.80180
252.40087,1.79748
252.15980,1.75019
251.91873,1.69503
251.67766,1.66179
251.43659,1.66619
251.19552,1.69261
250.95445,1.66834
250.71338,1.63433
250.47231,1.63307
250.23124,1.66678
249.99017,1.70809
249.74910,1.72856
249.50803,1.71109
249.26696,1.68588
249.02589,1.70284
248.78481,1.77285
248.54374,1.83060
248.30267,1.82841
248.06160,1.73301
247.82053,1.65020
247.57946,1.62225
247.33839,1.63702
247.09732,1.68022
246.85625,1.73180
246.61518,1.77508
246.37411,1.80187
246.13304,1.78953
245.89197,1.75584
245.65090,1.75680
245.40983,1.79046
245.16876,1.78348
244.92769,1.79920
244.68661,1.84692
244.44554,1.90843
244.20447,1.98154
243.96340,2.02081
243.72233,1.97516
243.48126,1.95096
243.24019,1.96107
242.99912,1.96630
242.75805,1.93368
242.51698,1.87612
242.27591,1.83918
242.03484,1.79356
241.79377,1.68863
241.55270,1.56543
241.31163,1.44380
241.07056,1.35392
240.82949,1.30548
240.58842,1.27925
240.34734,1.24954
240.10627,1.20913
239.86520,1.17163
239.62413,1.14585
239.38306,1.12301
239.14199,1.08966
238.90092,1.04868
238.65985,1.01588
238.41878,0.99987
238.17771,0.99511
237.93664,0.99080
237.69557,0.98295
237.45450,0.97389
237.21343,0.96361
236.97236,0.95038
236.73129,0.93695
236.49022,0.92850
236.24915,0.92555
236.00807,0.92325
235.76700,0.91675
235.52593,0.90522
235.28486,0.89086
235.04379,0.87638
234.80272,0.86369
234.56165,0.85364
234.32058,0.84693
234.07951,0.84501
233.83844,0.84913
233.59737,0.85877
233.35630,0.86985
233.11523,0.87502
232.87416,0.87086
232.63309,0.86318
232.39202,0.85698
232.15095,0.84813
231.90988,0.83414
231.66880,0.82356
231.42773,0.82233
231.18666,0.82386
230.94559,0.81963
230.70452,0.81254
230.46345,0.81139
230.22238,0.81755
229.98131,0.82519
229.74024,0.83096
229.49917,0.83594
229.25810,0.84003
229.01703,0.84222
228.77596,0.84374
228.53489,0.84243
228.29382,0.83307
228.05275,0.81912
227.81168,0.80875
227.57061,0.80225
227.32953,0.79728
227.08846,0.79500
226.84739,0.79564
226.60632,0.79781
226.36525,0.80292
226.12418,0.81281
225.88311,0.82432
225.64204,0.83124
225.40097,0.83027
225.15990,0.82335
224.91883,0.81677
224.67776,0.81599
224.43669,0.81925
224.19562,0.82155
223.95455,0.82349
223.71348,0.82960
223.47241,0.84014
223.23134,0.85104
222.99026,0.85992
222.74919,0.86674
222.50812,0.87031
222.26705,0.86819
222.02598,0.86112
221.78491,0.85414
221.54384,0.85258
221.30277,0.85939
221.06170,0.87549
220.82063,0.89936
220.57956,0.92573
220.33849,0.94679
220.09742,0.95606
219.85635,0.95280
219.61528,0.94381
219.37421,0.93972
219.13314,0.94615
218.89207,0.95879
218.65099,0.97087
218.40992,0.98480
218.16885,1.00911
217.92778,1.04313
217.68671,1.07231
217.44564,1.08335
217.20457,1.07792
216.96350,1.06605
216.72243,1.05682
216.48136,1.05799
216.24029,1.07545
215.99922,1.10988
215.75815,1.15468
215.51708,1.19614
215.27601,1.21936
215.03494,1.22373
214.79387,1.22204
214.55280,1.22118
214.31172,1.22366
214.07065,1.23800
213.82958,1.27107
213.58851,1.31317
213.34744,1.33952
213.10637,1.33417
212.86530,1.30760
212.62423,1.27955
212.38316,1.26700
212.14209,1.28073
211.90102,1.31856
211.65995,1.35978
211.41888,1.37140
211.17781,1.34705
210.93674,1.31192
210.69567,1.28040
210.45460,1.26091
210.21353,1.25898
209.97245,1.27091
209.73138,1.29346
209.49031,1.32579
209.24924,1.34611
209.00817,1.32273
208.76710,1.27128
208.52603,1.23952
208.28496,1.25428
208.04389,1.30032
207.80282,1.33880
207.56175,1.35527
207.32068,1.36480
207.07961,1.36681
206.83854,1.34662
206.59747,1.31206
206.35640,1.28601
206.11533,1.27569
205.87426,1.26863
205.63318,1.24813
205.39211,1.20997
205.15104,1.16812
204.90997,1.13900
204.66890,1.12890
204.42783,1.13523
204.18676,1.14480
203.94569,1.13474
203.70462,1.09630
203.46355,1.05098
203.22248,1.02368
202.98141,1.02269
202.74034,1.04030
202.49927,1.05624
202.25820,1.04679
202.01713,1.00807
201.77606,0.96319
201.53499,0.93467
201.29391,0.92933
201.05284,0.93598
200.81177,0.92805
200.57070,0.89300
200.32963,0.85352
200.08856,0.83316
199.84749,0.83461
199.60642,0.84417
199.36535,0.84174
199.12428,0.82239
198.88321,0.80279
198.64214,0.79421
198.40107,0.79425
198.16000,0.79504
197.91893,0.79006
197.67786,0.77882
197.43679,0.76453
197.19572,0.74981
196.95464,0.73625
196.71357,0.72408
196.47250,0.71232
196.23143,0.70109
195.99036,0.69281
195.74929,0.68974
195.50822,0.69034
195.26715,0.68956
195.02608,0.68491
194.78501,0.68015
194.54394,0.67853
194.30287,0.67531
194.06180,0.66160
193.82073,0.63921
193.57966,0.62433
193.33859,0.62814
193.09752,0.64305
192.85645,0.64918
192.61537,0.63827
192.37430,0.62424
192.13323,0.62093
191.89216,0.62494
191.65109,0.62214
191.41002,0.60966
191.16895,0.59983
190.92788,0.60005
190.68681,0.60317
190.44574,0.59900
190.20467,0.59007
189.96360,0.58665
189.72253,0.59185
189.48146,0.59813
189.24039,0.59840
188.99932,0.59579
188.75825,0.59695
188.51718,0.60185
188.27610,0.60612
188.03503,0.60833
187.79396,0.60804
187.55289,0.60199
187.31182,0.59068
187.07075,0.58177
186.82968,0.57994
186.58861,0.58029
186.34754,0.57760
186.10647,0.57500
185.86540,0.57499
185.62433,0.57239
185.38326,0.56531
185.14219,0.56213
184.90112,0.56739
184.66005,0.57373
184.41898,0.57494
184.17791,0.57731
183.93683,0.58654
183.69576,0.59614
183.45469,0.59993
183.21362,0.60289
182.97255,0.60873
182.73148,0.61360
182.49041,0.61669
182.24934,0.62075
182.00827,0.62298
181.76720,0.61927
181.52613,0.61340
181.28506,0.61047
181.04399,0.61005
180.80292,0.61092
180.56185,0.61351
180.32078,0.61792
180.07971,0.62417
179.83864,0.63123
179.59756,0.63611
179.35649,0.63849
179.11542,0.64237
178.87435,0.64952
178.63328,0.65670
178.39221,0.66080
178.15114,0.66318
177.91007,0.66927
177.66900,0.68412
177.42793,0.70601
177.18686,0.72672
176.94579,0.74209
176.70472,0.75670
176.46365,0.77339
176.22258,0.78739
175.98151,0.79376
175.74044,0.79660
175.49937,0.80694
175.25829,0.83014
175.01722,0.85909
174.77615,0.88384
174.53508,0.90574
174.29401,0.93285
174.05294,0.96556
173.81187,0.99684
173.57080,1.02440
173.32973,1.05213
173.08866,1.07702
172.84759,1.08533
172.60652,1.06863
172.36545,1.03622
172.12438,1.00629
171.88331,0.99066
171.64224,0.98752
171.40117,0.98784
171.16010,0.98961
170.91902,0.99950
170.67795,1.01973
170.43688,1.04234
170.19581,1.05945
169.95474,1.07246
169.71367,1.08418
169.47260,1.08754
169.23153,1.07026
168.99046,1.03349
168.74939,0.99452
168.50832,0.96750
168.26725,0.95657
168.02618,0.96061
167.78511,0.97566
167.54404,0.99660
167.30297,1.01774
167.06190,1.03213
166.82083,1.03397
166.57975,1.02171
166.33868,0.99845
166.09761,0.97171
165.85654,0.95122
165.61547,0.94434
165.37440,0.95386
165.13333,0.97853
164.89226,1.01227
164.65119,1.04362
164.41012,1.06146
164.16905,1.06376
163.92798,1.05721
163.68691,1.04882
163.44584,1.04326
163.20477,1.04477
162.96370,1.05517
162.72263,1.07476
162.48156,1.10649
162.24048,1.14865
161.99941,1.17762
161.75834,1.16524
161.51727,1.12671
161.27620,1.09549
161.03513,1.08532
160.79406,1.09418
160.55299,1.11449
160.31192,1.13981
160.07085,1.16837
159.82978,1.18927
159.58871,1.17514
159.34764,1.13159
159.10657,1.09541
158.86550,1.08562
158.62443,1.10400
158.38336,1.14367
158.14229,1.17937
157.90121,1.17527
157.66014,1.13413
157.41907,1.08852
157.17800,1.06230
156.93693,1.06205
156.69586,1.07917
156.45479,1.09729
156.21372,1.10179
155.97265,1.08553
155.73158,1.05310
155.49051,1.01785
155.24944,0.99034
155.00837,0.97445
154.76730,0.97089
154.52623,0.97695
154.28516,0.98124
154.04409,0.96831
153.80302,0.93753
153.56194,0.90449
153.32087,0.88376
153.07980,0.88112
152.83873,0.89058
152.59766,0.89228
152.35659,0.86697
152.11552,0.82105
151.87445,0.77815
151.63338,0.75473
151.39231,0.75150
151.15124,0.75440
150.91017,0.74316
150.66910,0.71300
150.42803,0.68075
150.18696,0.66162
149.94589,0.65631
149.70482,0.65464
149.46375,0.64580
149.22267,0.62918
148.98160,0.61349
148.74053,0.60619
148.49946,0.60775
148.25839,0.61252
148.01732,0.61275
147.77625,0.60491
147.53518,0.59345
147.29411,0.58655
147.05304,0.58806
146.81197,0.59392
146.57090,0.59752
146.32983,0.59880
146.08876,0.60291
145.84769,0.60987
145.60662,0.61203
145.36555,0.60576
145.12448,0.59939
144.88340,0.60306
144.64233,0.61561
144.40126,0.62479
144.16019,0.62393
143.91912,0.62141
143.67805,0.62555
143.43698,0.63230
143.19591,0.63195
142.95484,0.62313
142.71377,0.61295
142.47270,0.60552
142.23163,0.59709
141.99056,0.58231
141.74949,0.56329
141.50842,0.54769
141.26735,0.53909
141.02628,0.53454
140.78521,0.53118
140.54413,0.52972
140.30306,0.53105
140.06199,0.53462
139.82092,0.54081
139.57985,0.55028
139.33878,0.56018
139.09771,0.56616
138.85664,0.56932
138.61557,0.57397
138.37450,0.57980
138.13343,0.58430
137.89236,0.59081
137.65129,0.60361
137.41022,0.62033
137.16915,0.63803
136.92808,0.65774
136.68701,0.67856
136.44594,0.69862
136.20486,0.72247
135.96379,0.75582
135.72272,0.79525
135.48165,0.83336
135.24058,0.86932
134.99951,0.90615
134.75844,0.94357
134.51737,0.97872
134.27630,1.01051
134.03523,1.04037
133.79416,1.06644
133.55309,1.08243
133.31202,1.09107
133.07095,1.10607
132.82988,1.13041
132.58881,1.14766
132.34774,1.14517
132.10667,1.13260
131.86559,1.12639
131.62452,1.12862
131.38345,1.12642
131.14238,1.11037
130.90131,1.08725
130.66024,1.06672
130.41917,1.04674
130.17810,1.01964
129.93703,0.98339
129.69596,0.94249
129.45489,0.90278
129.21382,0.86604
128.97275,0.82930
128.73168,0.79174
128.49061,0.75811
128.24954,0.73145
128.00847,0.70783
127.76740,0.68150
127.52632,0.65249
127.28525,0.62564
127.04418,0.60407
126.80311,0.58642
126.56204,0.56957
126.32097,0.55167
126.07990,0.53368
125.83883,0.51904
125.59776,0.51024
125.35669,0.50602
125.11562,0.50271
124.87455,0.49706
124.63348,0.48767
124.39241,0.47599
124.15134,0.46551
123.91027,0.45831
123.66920,0.45418
123.42812,0.45320
123.18705,0.45548
122.94598,0.45853
122.70491,0.45880
122.46384,0.45606
122.22277,0.45329
121.98170,0.45303
121.74063,0.45512
121.49956,0.45743
121.25849,0.45915
121.01742,0.46270
120.77635,0.47149
120.53528,0.48612
120.29421,0.50368
120.05314,0.52030
119.81207,0.53435
119.57100,0.54733
119.32993,0.56232
119.08885,0.58297
118.84778,0.61139
118.60671,0.64497
118.36564,0.67603
118.12457,0.69778
117.88350,0.71153
117.64243,0.72434
117.40136,0.74269
117.16029,0.76974
116.91922,0.80249
116.67815,0.83358
116.43708,0.85742
116.19601,0.87200
115.95494,0.87336
115.71387,0.85435
115.47280,0.81816
115.23173,0.77618
114.99066,0.73439
114.74958,0.69266
114.50851,0.65333
114.26744,0.62299
114.02637,0.60506
113.78530,0.59678
113.54423,0.59517
113.30316,0.60220
113.06209,0.62234
112.82102,0.65812
112.57995,0.70647
112.33888,0.75218
112.09781,0.77174
111.85674,0.76090
111.61567,0.73429
111.37460,0.70726
111.13353,0.69182
110.89246,0.69204
110.65139,0.70596
110.41031,0.73244
110.16924,0.76853
109.92817,0.79879
109.68710,0.79579
109.44603,0.74818
109.20496,0.67968
108.96389,0.61824
108.72282,0.57472
108.48175,0.54779
108.24068,0.53609
107.99961,0.54385
107.75854,0.56995
107.51747,0.59081
107.27640,0.57505
107.03533,0.52849
106.79426,0.47811
106.55319,0.44024
106.31212,0.42089
106.07104,0.41911
105.82997,0.42782
105.58890,0.43612
105.34783,0.43284
105.10676,0.41299
104.86569,0.38330
104.62462,0.35534
104.38355,0.33762
104.14248,0.33420
103.90141,0.34392
103.66034,0.35872
103.41927,0.36355
103.17820,0.34579
102.93713,0.31279
102.69606,0.28631
102.45499,0.28210
102.21392,0.30157
101.97285,0.32922
101.73177,0.33767
101.49070,0.31888
101.24963,0.29595
101.00856,0.28736
100.76749,0.29522
100.52642,0.31028
100.28535,0.31459
100.04428,0.29877
99.80321,0.27570
99.56214,0.26240
99.32107,0.26673
99.08000,0.28520
98.83893,0.30014
98.59786,0.29165
98.35679,0.26593
98.11572,0.24672
97.87465,0.24755
97.63358,0.26265
97.39250,0.27047
97.15143,0.26206
96.91036,0.25571
96.66929,0.26677
96.42822,0.28798
96.18715,0.29770
95.94608,0.29404
95.70501,0.30026
95.46394,0.32815
95.22287,0.35677
94.98180,0.35524
94.74073,0.33782
94.49966,0.33927
94.25859,0.36373
94.01752,0.38112
93.77645,0.37343
93.53538,0.36394
93.29431,0.36861
93.05323,0.37564
92.81216,0.37616
92.57109,0.38189
92.33002,0.39360
92.08895,0.39500
91.84788,0.38995
91.60681,0.39698
91.36574,0.40913
91.12467,0.41021
90.88360,0.41486
90.64253,0.43870
90.40146,0.47089
90.16039,0.50109
89.91932,0.54061
89.67825,0.59072
89.43718,0.63278
89.19611,0.65876
88.95504,0.67906
88.71396,0.70264
88.47289,0.72357
88.23182,0.72554
87.99075,0.70699
87.74968,0.67976
87.50861,0.64313
87.26754,0.59151
87.02647,0.53506
86.78540,0.49004
86.54433,0.46008
86.30326,0.43668
86.06219,0.41104
85.82112,0.38167
85.58005,0.35231
85.33898,0.32614
85.09791,0.30307
84.85684,0.28226
84.61577,0.26481
84.37469,0.25120
84.13362,0.23949
83.89255,0.22855
83.65148,0.22010
83.41041,0.21633
83.16934,0.21646
82.92827,0.21631
82.68720,0.21351
82.44613,0.21126
82.20506,0.21341
81.96399,0.21777
81.72292,0.21849
81.48185,0.21351
81.24078,0.20666
80.99971,0.20299
80.75864,0.20386
80.51757,0.20693
80.27650,0.20951
80.03542,0.20972
79.79435,0.20562
79.55328,0.19624
79.31221,0.18394
79.07114,0.17392
78.83007,0.17016
78.58900,0.17163
78.34793,0.17411
78.10686,0.17552
77.86579,0.17517
77.62472,0.16968
77.38365,0.15745
77.14258,0.14435
76.90151,0.13855
76.66044,0.14260
76.41937,0.15353
76.17830,0.16758
75.93723,0.18130
75.69615,0.18955
75.45508,0.18810
75.21401,0.17826
74.97294,0.16542
74.73187,0.15559
74.49080,0.15428
74.24973,0.16257
74.00866,0.17137
73.76759,0.16880
73.52652,0.15742
73.28545,0.15053
73.04438,0.15740
72.80331,0.18044
72.56224,0.21503
72.32117,0.24460
72.08010,0.24909
71.83903,0.22993
71.59796,0.20410
71.35688,0.18211
71.11581,0.16621
70.87474,0.15721
70.63367,0.15648
70.39260,0.16459
70.15153,0.18232
69.91046,0.21240
69.66939,0.25714
69.42832,0.31130
69.18725,0.35391
68.94618,0.35731
68.70511,0.32287
68.46404,0.27373
68.22297,0.22599
67.98190,0.18869
67.74083,0.16507
67.49976,0.15119
67.25869,0.13979
67.01761,0.12726
66.77654,0.11542
66.53547,0.10679
66.29440,0.10156
66.05333,0.09967
65.81226,0.10320
65.57119,0.11410
65.33012,0.13132
65.08905,0.15212
64.84798,0.17477
64.60691,0.19882
64.36584,0.22241
64.12477,0.23922
63.88370,0.24232
63.64263,0.23388
63.40156,0.22424
63.16049,0.21871
62.91942,0.21300
62.67834,0.20266
62.43727,0.18905
62.19620,0.17486
61.95513,0.16110
61.71406,0.14859
61.47299,0.13998
61.23192,0.13808
60.99085,0.14159
60.74978,0.14567
60.50871,0.14659
60.26764,0.14287
60.02657,0.13436
59.78550,0.12232
59.54443,0.10768
59.30336,0.08966
59.06229,0.06848
58.82122,0.04806
58.58015,0.03441
58.33907,0.03264
58.09800,0.04584
57.85693,0.07384
57.61586,0.11232
57.37479,0.15722
57.13372,0.21690
56.89265,0.30173
56.65158,0.32989
56.41051,0.21907
56.16944,0.11681
55.92837,0.04999
55.68730,0.01088
55.44623,-0.00342
55.20516,0.00474
54.96409,0.03428
54.72302,0.08745
54.48195,0.17448
54.24088,0.28595
53.99980,0.30086
53.75873,0.19945
53.51766,0.10761
53.27659,0.04426
53.03552,0.00993
52.79445,0.00953
52.55338,0.04711
52.31231,0.14475
52.07124,0.29279
51.83017,0.24123
51.58910,0.09812
51.34803,0.01931
51.10696,0.00226
50.86589,0.03914
50.62482,0.15637
50.38375,0.30400
50.14268,0.14257
49.90161,0.01155
49.66053,-0.03131
49.41946,-0.00183
49.17839,0.12456
48.93732,0.26345
48.69625,0.09736
48.45518,-0.02036
48.21411,-0.02149
47.97304,0.07951
47.73197,0.18345
47.49090,0.08816
47.24983,0.01446
47.00876,0.04928
46.76769,0.12226
46.52662,0.07500
46.28555,0.00906
46.04448,0.02723
45.80341,0.08220
45.56234,0.07431
45.32126,0.04559
45.08019,0.02900
44.83912,-0.00382
44.59805,-0.02831
44.35698,-0.00703
44.11591,0.02713
43.87484,0.02371
43.63377,0.01342
43.39270,0.02746
43.15163,0.05346
42.91056,0.06922
42.66949,0.06998
42.42842,0.07039
42.18735,0.07782
41.94628,0.07721
41.70521,0.05672
41.46414,0.03191
41.22307,0.02248
40.98199,0.03181
40.74092,0.05034
40.49985,0.06272
40.25878,0.06014
40.01771,0.04932
39.77664,0.03818
39.53557,0.02747
39.29450,0.02167
39.05343,0.02501
38.81236,0.02911
38.57129,0.02442
38.33022,0.01234
38.08915,-0.00050
37.84808,-0.00842
37.60701,-0.00886
37.36594,-0.00341
37.12487,0.00241
36.88380,0.00697
36.64272,0.01888
36.40165,0.04880
36.16058,0.09055
35.91951,0.11626
35.67844,0.10433
35.43737,0.06929
35.19630,0.03995
34.95523,0.02528
34.71416,0.01225
34.47309,-0.01573
34.23202,-0.05142
33.99095,-0.05494
33.74988,-0.01495
33.50881,0.01773
33.26774,-0.01170
33.02667,-0.07666
32.78560,-0.10933
32.54453,-0.09497
32.30345,-0.08409
32.06238,-0.11914
31.82131,-0.15984
31.58024,-0.15501
31.33917,-0.13916
31.09810,-0.16072
30.85703,-0.20705
30.61596,-0.24305
30.37489,-0.24724
30.13382,-0.21326
29.89275,-0.18001
29.65168,-0.19205
29.41061,-0.22999
29.16954,-0.23933
28.92847,-0.21453
28.68740,-0.20382
28.44633,-0.23100
28.20526,-0.25871
27.96418,-0.23794
27.72311,-0.18258
27.48204,-0.14984
27.24097,-0.14498
26.99990,-0.13611
26.75883,-0.12657
26.51776,-0.13255
26.27669,-0.18208
26.03562,-0.26250
25.79455,-0.26341
25.55348,-0.27328
25.31241,-0.32322
25.07134,-0.36654
24.83027,-0.38854
24.58920,-0.38007
24.34813,-0.30144
24.10706,-0.17814
23.86599,-0.07819
23.62491,-0.03489
23.38384,-0.03788
23.14277,-0.05802
22.90170,-0.06779
22.66063,-0.06489
22.41956,-0.07078
22.17849,-0.10252
21.93742,-0.14858
21.69635,-0.17654
21.45528,-0.17447
21.21421,-0.16860
20.97314,-0.18950
20.73207,-0.21414
20.49100,-0.18921
20.24993,-0.13927
20.00886,-0.12167
19.76779,-0.14930
19.52672,-0.17042
19.28564,-0.12855
19.04457,-0.05139
18.80350,0.00838
18.56243,0.02966
18.32136,0.01124
18.08029,-0.04338
17.83922,-0.12045
17.59815,-0.18682
17.35708,-0.22288
17.11601,-0.23420
16.87494,-0.21561
16.63387,-0.17872
16.39280,-0.17244
16.15173,-0.19750
15.91066,-0.20431
15.66959,-0.18997
15.42852,-0.19257
15.18745,-0.21189
14.94637,-0.21139
14.70530,-0.17887
14.46423,-0.13770
14.22316,-0.10155
13.98209,-0.06418
13.74102,-0.03166
13.49995,-0.02628
13.25888,-0.05251
13.01781,-0.07870
12.77674,-0.06163
12.53567,-0.00367
12.29460,0.04425
12.05353,0.04698
11.81246,0.01190
11.57139,-0.05184
11.33032,-0.12694
11.08925,-0.15921
10.84818,-0.12582
10.60710,-0.09929
10.36603,-0.13006
10.12496,-0.18134
9.88389,-0.18450
9.64282,-0.13776
9.40175,-0.09535
9.16068,-0.08330
8.91961,-0.08662
8.67854,-0.09673
8.43747,-0.14233
8.19640,-0.23487
7.95533,-0.33466
7.71426,-0.38961
7.47319,-0.35323
7.23212,-0.24372
6.99105,-0.15681
6.74998,-0.12292
6.50891,-0.11629
6.26783,-0.10672
6.02676,-0.10372
5.78569,-0.09134
5.54462,-0.09347
5.30355,-0.11862
5.06248,-0.12119
4.82141,-0.08838
4.58034,-0.06879
4.33927,-0.08295
4.09820,-0.09913
3.85713,-0.08961
3.61606,-0.06718
3.37499,-0.07188
3.13392,-0.11242
2.89285,-0.15725
2.65178,-0.17447
2.41071,-0.18148
2.16964,-0.20815
1.92856,-0.23905
1.68749,-0.24570
1.44642,-0.22812
1.20535,-0.18692
0.96428,-0.14683
0.72321,-0.14912
0.48214,-0.22459
0.24107,-0.33534
-0.00000,-0.31893
