399.69498,1.52395
399.45391,1.51902
399.21284,1.51698
398.97177,1.51664
398.73070,1.51577
398.48963,1.51304
398.24856,1.50686
398.00749,1.49773
397.76642,1.49286
397.52535,1.50077
397.28428,1.51866
397.04321,1.53366
396.80214,1.53971
396.56107,1.54164
396.32000,1.53985
396.07892,1.52856
395.83785,1.51158
395.59678,1.50165
395.35571,1.50409
395.11464,1.51293
394.87357,1.51923
394.63250,1.51648
394.39143,1.50508
394.15036,1.49658
393.90929,1.50357
393.66822,1.52172
393.42715,1.53214
393.18608,1.52795
392.94501,1.52528
392.70394,1.53583
392.46287,1.54634
392.22180,1.53765
391.98073,1.51197
391.73965,1.48770
391.49858,1.47708
391.25751,1.48232
391.01644,1.50192
390.77537,1.52739
390.53430,1.54137
390.29323,1.53488
390.05216,1.51866
389.81109,1.50848
389.57002,1.50968
389.32895,1.51699
389.08788,1.52429
388.84681,1.53065
388.60574,1.53500
388.36467,1.53051
388.12360,1.51141
387.88253,1.48451
387.64146,1.46507
387.40038,1.46131
387.15931,1.46907
386.91824,1.47799
386.67717,1.48092
386.43610,1.47683
386.19503,1.46643
385.95396,1.45241
385.71289,1.43750
385.47182,1.41982
385.23075,1.39847
384.98968,1.37989
384.74861,1.37088
384.50754,1.36694
384.26647,1.35751
384.02540,1.34244
383.78433,1.33174
383.54326,1.33325
383.30219,1.34819
383.06111,1.37014
382.82004,1.38303
382.57897,1.37011
382.33790,1.33372
382.09683,1.29445
381.85576,1.27358
381.61469,1.27845
381.37362,1.29444
381.13255,1.29873
380.89148,1.28680
380.65041,1.27700
380.40934,1.28831
380.16827,1.31882
379.92720,1.34006
379.68613,1.32803
379.44506,1.29931
379.20399,1.28726
378.96292,1.30496
378.72184,1.33902
378.48077,1.36334
378.23970,1.36511
377.99863,1.35679
377.75756,1.35826
377.51649,1.37407
377.27542,1.38678
377.03435,1.38033
376.79328,1.36552
376.55221,1.36368
376.31114,1.37875
376.07007,1.39730
375.82900,1.40789
375.58793,1.41489
375.34686,1.43043
375.10579,1.45686
374.86472,1.47812
374.62365,1.47424
374.38257,1.44968
374.14150,1.42889
373.90043,1.42305
373.65936,1.42103
373.41829,1.40891
373.17722,1.38771
372.93615,1.36910
372.69508,1.35996
372.45401,1.35862
372.21294,1.36045
371.97187,1.36223
371.73080,1.36206
371.48973,1.35797
371.24866,1.35012
371.00759,1.34355
370.76652,1.34360
370.52545,1.34837
370.28437,1.34936
370.04330,1.34116
369.80223,1.32652
369.56116,1.31123
369.32009,1.29951
369.07902,1.29356
368.83795,1.29237
368.59688,1.29171
368.35581,1.28818
368.11474,1.28173
367.87367,1.27428
367.63260,1.26831
367.39153,1.26598
367.15046,1.26686
366.90939,1.26682
366.66832,1.26202
366.42725,1.25412
366.18618,1.24927
365.94510,1.24987
365.70403,1.25037
365.46296,1.24562
365.22189,1.23958
364.98082,1.24013
364.73975,1.24746
364.49868,1.25343
364.25761,1.25172
364.01654,1.24390
363.77547,1.23587
363.53440,1.23229
363.29333,1.23276
363.05226,1.23304
362.81119,1.23109
362.57012,1.22817
362.32905,1.22431
362.08798,1.21766
361.84691,1.20969
361.60583,1.20537
361.36476,1.20638
361.12369,1.20819
360.88262,1.20500
360.64155,1.19576
360.40048,1.18515
360.15941,1.18052
359.91834,1.18623
359.67727,1.19884
359.43620,1.20941
359.19513,1.21213
358.95406,1.20905
358.71299,1.20493
358.47192,1.20153
358.23085,1.19871
357.98978,1.19770
357.74871,1.19924
357.50764,1.20073
357.26656,1.19883
357.02549,1.19326
356.78442,1.18677
356.54335,1.18265
356.30228,1.18286
356.06121,1.18661
355.82014,1.18978
355.57907,1.18900
355.33800,1.18577
355.09693,1.18347
354.85586,1.18362
354.61479,1.18671
354.37372,1.19343
354.13265,1.20355
353.89158,1.21533
353.65051,1.22572
353.40944,1.23074
353.16837,1.22777
352.92729,1.21747
352.68622,1.20362
352.44515,1.19188
352.20408,1.18688
351.96301,1.18967
351.72194,1.19750
351.48087,1.20365
351.23980,1.20081
350.99873,1.18892
350.75766,1.17764
350.51659,1.17795
350.27552,1.19194
350.03445,1.21081
349.79338,1.22222
349.55231,1.22102
349.31124,1.21291
349.07017,1.20730
348.82910,1.20980
348.58802,1.22073
348.34695,1.23622
348.10588,1.25003
347.86481,1.25630
347.62374,1.25335
347.38267,1.24646
347.14160,1.24354
346.90053,1.24732
346.65946,1.25393
346.41839,1.25886
346.17732,1.26173
345.93625,1.26536
345.69518,1.27251
345.45411,1.28311
345.21304,1.29272
344.97197,1.29573
344.73090,1.29235
344.48983,1.28949
344.24875,1.29260
344.00768,1.29868
343.76661,1.29956
343.52554,1.29263
343.28447,1.28438
343.04340,1.28297
342.80233,1.29052
342.56126,1.30250
342.32019,1.31367
342.07912,1.32373
341.83805,1.33418
341.59698,1.34206
341.35591,1.34351
341.11484,1.34063
340.87377,1.33861
340.63270,1.34009
340.39163,1.34650
340.15056,1.36013
339.90948,1.37828
339.66841,1.39162
339.42734,1.39746
339.18627,1.40510
338.94520,1.42042
338.70413,1.43448
338.46306,1.43436
338.22199,1.42291
337.98092,1.41716
337.73985,1.42701
337.49878,1.44337
337.25771,1.44681
337.01664,1.43113
336.77557,1.41220
336.53450,1.40907
336.29343,1.42644
336.05236,1.45144
335.81129,1.46567
335.57021,1.46454
335.32914,1.45319
335.08807,1.43204
334.84700,1.40188
334.60593,1.37257
334.36486,1.35699
334.12379,1.35853
333.88272,1.36961
333.64165,1.38096
333.40058,1.38922
333.15951,1.39362
332.91844,1.39139
332.67737,1.38242
332.43630,1.37019
332.19523,1.35694
331.95416,1.34715
331.71309,1.34659
331.47202,1.34975
331.23094,1.34317
330.98987,1.32598
330.74880,1.31188
330.50773,1.30925
330.26666,1.31281
330.02559,1.31566
329.78452,1.31954
329.54345,1.32886
329.30238,1.34128
329.06131,1.34824
328.82024,1.34143
328.57917,1.31993
328.33810,1.29478
328.09703,1.28182
327.85596,1.28524
327.61489,1.29422
327.37382,1.29850
327.13275,1.29848
326.89167,1.29486
326.65060,1.28670
326.40953,1.28310
326.16846,1.29386
325.92739,1.31432
325.68632,1.33082
325.44525,1.33597
325.20418,1.33372
324.96311,1.32862
324.72204,1.31857
324.48097,1.30170
324.23990,1.28352
323.99883,1.27464
323.75776,1.28254
323.51669,1.30447
323.27562,1.32948
323.03455,1.34901
322.79348,1.36038
322.55240,1.36248
322.31133,1.35508
322.07026,1.34331
321.82919,1.33528
321.58812,1.33378
321.34705,1.33813
321.10598,1.34656
320.86491,1.35353
320.62384,1.35044
320.38277,1.33542
320.14170,1.31991
319.90063,1.31552
319.65956,1.32268
319.41849,1.33351
319.17742,1.34139
318.93635,1.34628
318.69528,1.34673
318.45421,1.33963
318.21313,1.33151
317.97206,1.33306
317.73099,1.34301
317.48992,1.34933
317.24885,1.34639
317.00778,1.34079
316.76671,1.33788
316.52564,1.33562
316.28457,1.33506
316.04350,1.34189
315.80243,1.35544
315.56136,1.36554
315.32029,1.36252
315.07922,1.34776
314.83815,1.33375
314.59708,1.33365
314.35601,1.34871
314.11494,1.36722
313.87386,1.37614
313.63279,1.37172
313.39172,1.35966
313.15065,1.34857
312.90958,1.34524
312.66851,1.35270
312.42744,1.36717
312.18637,1.37839
311.94530,1.37948
311.70423,1.37406
311.46316,1.36807
311.22209,1.36384
310.98102,1.36573
310.73995,1.37818
310.49888,1.39797
310.25781,1.41485
310.01674,1.41819
309.77567,1.40464
309.53459,1.38452
309.29352,1.37507
309.05245,1.38562
308.81138,1.41203
308.57031,1.44032
308.32924,1.45450
308.08817,1.44785
307.84710,1.43039
307.60603,1.41791
307.36496,1.41438
307.12389,1.41600
306.88282,1.42489
306.64175,1.44420
306.40068,1.46528
306.15961,1.47378
305.91854,1.46685
305.67747,1.45240
305.43640,1.43570
305.19532,1.42006
304.95425,1.41278
304.71318,1.41712
304.47211,1.42560
304.23104,1.42817
303.98997,1.42310
303.74890,1.41419
303.50783,1.40177
303.26676,1.38547
303.02569,1.37023
302.78462,1.35944
302.54355,1.34766
302.30248,1.33022
302.06141,1.31411
301.82034,1.30955
301.57927,1.31516
301.33820,1.31833
301.09713,1.31199
300.85605,1.30323
300.61498,1.30057
300.37391,1.30174
300.13284,1.29857
299.89177,1.28916
299.65070,1.27957
299.40963,1.27401
299.16856,1.26991
298.92749,1.26354
298.68642,1.25497
298.44535,1.24682
298.20428,1.24061
297.96321,1.23592
297.72214,1.23278
297.48107,1.23251
297.24000,1.23454
296.99893,1.23425
296.75786,1.22683
296.51678,1.21446
296.27571,1.20559
296.03464,1.20528
295.79357,1.20964
295.55250,1.21164
295.31143,1.20901
295.07036,1.20362
294.82929,1.19607
294.58822,1.18574
294.34715,1.17481
294.10608,1.16751
293.86501,1.16533
293.62394,1.16628
293.38287,1.16829
293.14180,1.17029
292.90073,1.17041
292.65966,1.16660
292.41859,1.15959
292.17751,1.15251
291.93644,1.14726
291.69537,1.14366
291.45430,1.14118
291.21323,1.13964
290.97216,1.13870
290.73109,1.13775
290.49002,1.13630
290.24895,1.13425
290.00788,1.13188
289.76681,1.12928
289.52574,1.12578
289.28467,1.12092
289.04360,1.11609
288.80253,1.11378
288.56146,1.11494
288.32039,1.11763
288.07932,1.11833
287.83824,1.11496
287.59717,1.10861
287.35610,1.10265
287.11503,1.09995
286.87396,1.10076
286.63289,1.10277
286.39182,1.10336
286.15075,1.10186
285.90968,1.09928
285.66861,1.09651
285.42754,1.09394
285.18647,1.09193
284.94540,1.09044
284.70433,1.08914
284.46326,1.08796
284.22219,1.08668
283.98112,1.08577
283.74005,1.08739
283.49897,1.09272
283.25790,1.09909
283.01683,1.10288
282.77576,1.10401
282.53469,1.10382
282.29362,1.10103
282.05255,1.09435
281.81148,1.08651
281.57041,1.08220
281.32934,1.08316
281.08827,1.08697
280.84720,1.09091
280.60613,1.09522
280.36506,1.10072
280.12399,1.10524
279.88292,1.10552
279.64185,1.10193
279.40078,1.09795
279.15970,1.09557
278.91863,1.09407
278.67756,1.09292
278.43649,1.09321
278.19542,1.09535
277.95435,1.09771
277.71328,1.09860
277.47221,1.09780
277.23114,1.09610
276.99007,1.09516
276.74900,1.09698
276.50793,1.10160
276.26686,1.10602
276.02579,1.10698
275.78472,1.10423
275.54365,1.10043
275.30258,1.09874
275.06151,1.10087
274.82043,1.10572
274.57936,1.10933
274.33829,1.10871
274.09722,1.10622
273.85615,1.10750
273.61508,1.11469
273.37401,1.12413
273.13294,1.13111
272.89187,1.13417
272.65080,1.13449
272.40973,1.13324
272.16866,1.13043
271.92759,1.12597
271.68652,1.12138
271.44545,1.11952
271.20438,1.12243
270.96331,1.12994
270.72224,1.14066
270.48116,1.15359
270.24009,1.16752
269.99902,1.17996
269.75795,1.18740
269.51688,1.18782
269.27581,1.18402
269.03474,1.18220
268.79367,1.18656
268.55260,1.19656
268.31153,1.20890
268.07046,1.22034
267.82939,1.22843
267.58832,1.23229
267.34725,1.23362
267.10618,1.23526
266.86511,1.23877
266.62404,1.24486
266.38297,1.25404
266.14189,1.26470
265.90082,1.27313
265.65975,1.27760
265.41868,1.28141
265.17761,1.28964
264.93654,1.30257
264.69547,1.31397
264.45440,1.31923
264.21333,1.32265
263.97226,1.33087
263.73119,1.34259
263.49012,1.35208
263.24905,1.36026
263.00798,1.37330
262.76691,1.39179
262.52584,1.41101
262.28477,1.43229
262.04370,1.46254
261.80262,1.49906
261.56155,1.52736
261.32048,1.54068
261.07941,1.54964
260.83834,1.56529
260.59727,1.58722
260.35620,1.61263
260.11513,1.64500
259.87406,1.69078
259.63299,1.75154
259.39192,1.81477
259.15085,1.86029
258.90978,1.88225
258.66871,1.88933
258.42764,1.88995
258.18657,1.88015
257.94550,1.85712
257.70443,1.83518
257.46335,1.82762
257.22228,1.82511
256.98121,1.80506
256.74014,1.76776
256.49907,1.74187
256.25800,1.74612
256.01693,1.76716
255.77586,1.77402
255.53479,1.75232
255.29372,1.71499
255.05265,1.68274
254.81158,1.66516
254.57051,1.65224
254.32944,1.62806
254.08837,1.59725
253.84730,1.58099
253.60623,1.58861
253.36516,1.60792
253.12408,1.61943
252.88301,1.61605
252.64194,1.60385
252.40087,1.58911
252.15980,1.57513
251.91873,1.56570
251.67766,1.56566
251.43659,1.57471
251.19552,1.58288
250.95445,1.58010
250.71338,1.57106
250.47231,1.57087
250.23124,1.58518
249.99017,1.60118
249.74910,1.60178
249.50803,1.58649
249.26696,1.56825
249.02589,1.55669
248.78481,1.55443
248.54374,1.55820
248.30267,1.56299
248.06160,1.56822
247.82053,1.57368
247.57946,1.57576
247.33839,1.57428
247.09732,1.57386
246.85625,1.57585
246.61518,1.57652
246.37411,1.57520
246.13304,1.57760
245.89197,1.58625
245.65090,1.59536
245.40983,1.60054
245.16876,1.60567
244.92769,1.61908
244.68661,1.64596
244.44554,1.68477
244.20447,1.73324
243.96340,1.78777
243.72233,1.82743
243.48126,1.83302
243.24019,1.83450
242.99912,1.87425
242.75805,1.95459
242.51698,2.02208
242.27591,1.95886
242.03484,1.81686
241.79377,1.69363
241.55270,1.59978
241.31163,1.52640
241.07056,1.45927
240.82949,1.38939
240.58842,1.32224
240.34734,1.26718
240.10627,1.22475
239.86520,1.18813
239.62413,1.15242
239.38306,1.11838
239.14199,1.08844
238.90092,1.06300
238.65985,1.04095
238.41878,1.02099
238.17771,1.00140
237.93664,0.98048
237.69557,0.95859
237.45450,0.93838
237.21343,0.92158
236.97236,0.90745
236.73129,0.89495
236.49022,0.88408
236.24915,0.87421
236.00807,0.86393
235.76700,0.85332
235.52593,0.84417
235.28486,0.83768
235.04379,0.83306
234.80272,0.82906
234.56165,0.82615
234.32058,0.82588
234.07951,0.82758
233.83844,0.82800
233.59737,0.82555
233.35630,0.82194
233.11523,0.81850
232.87416,0.81447
232.63309,0.80996
232.39202,0.80717
232.15095,0.80691
231.90988,0.80638
231.66880,0.80244
231.42773,0.79587
231.18666,0.79079
230.94559,0.79015
230.70452,0.79258
230.46345,0.79390
230.22238,0.79221
229.98131,0.79019
229.74024,0.79141
229.49917,0.79573
229.25810,0.79969
229.01703,0.79989
228.77596,0.79568
228.53489,0.78983
228.29382,0.78650
228.05275,0.78709
227.81168,0.78851
227.57061,0.78698
227.32953,0.78287
227.08846,0.78000
226.84739,0.78113
226.60632,0.78573
226.36525,0.79126
226.12418,0.79523
225.88311,0.79601
225.64204,0.79365
225.40097,0.79015
225.15990,0.78770
224.91883,0.78688
224.67776,0.78746
224.43669,0.78955
224.19562,0.79313
223.95455,0.79749
223.71348,0.80158
223.47241,0.80492
223.23134,0.80848
222.99026,0.81377
222.74919,0.82067
222.50812,0.82779
222.26705,0.83471
222.02598,0.84171
221.78491,0.84846
221.54384,0.85478
221.30277,0.86158
221.06170,0.86959
220.82063,0.87837
220.57956,0.88700
220.33849,0.89505
220.09742,0.90322
219.85635,0.91280
219.61528,0.92371
219.37421,0.93447
219.13314,0.94453
218.89207,0.95502
218.65099,0.96690
218.40992,0.98069
218.16885,0.99733
217.92778,1.01713
217.68671,1.03811
217.44564,1.05749
217.20457,1.07449
216.96350,1.08954
216.72243,1.10203
216.48136,1.11119
216.24029,1.11906
215.99922,1.13059
215.75815,1.14920
215.51708,1.17217
215.27601,1.19255
215.03494,1.20776
214.79387,1.22224
214.55280,1.23872
214.31172,1.25371
214.07065,1.26471
213.82958,1.27555
213.58851,1.29151
213.34744,1.31416
213.10637,1.33942
212.86530,1.35760
212.62423,1.36147
212.38316,1.35546
212.14209,1.34958
211.90102,1.35062
211.65995,1.36164
211.41888,1.38075
211.17781,1.39975
210.93674,1.41043
210.69567,1.41251
210.45460,1.41075
210.21353,1.40704
209.97245,1.40038
209.73138,1.39163
209.49031,1.38524
209.24924,1.38547
209.00817,1.39212
208.76710,1.39973
208.52603,1.39901
208.28496,1.38577
208.04389,1.36897
207.80282,1.36078
207.56175,1.36194
207.32068,1.36233
207.07961,1.35306
206.83854,1.33331
206.59747,1.30706
206.35640,1.27951
206.11533,1.25552
205.87426,1.23801
205.63318,1.22714
205.39211,1.21935
205.15104,1.20900
204.90997,1.19317
204.66890,1.17353
204.42783,1.15366
204.18676,1.13552
203.94569,1.11941
203.70462,1.10530
203.46355,1.09341
203.22248,1.08378
202.98141,1.07386
202.74034,1.05811
202.49927,1.03416
202.25820,1.00752
202.01713,0.98542
201.77606,0.96987
201.53499,0.95838
201.29391,0.94726
201.05284,0.93298
200.81177,0.91385
200.57070,0.89224
200.32963,0.87268
200.08856,0.85746
199.84749,0.84582
199.60642,0.83626
199.36535,0.82742
199.12428,0.81768
198.88321,0.80570
198.64214,0.79166
198.40107,0.77733
198.16000,0.76458
197.91893,0.75386
197.67786,0.74430
197.43679,0.73486
197.19572,0.72472
196.95464,0.71331
196.71357,0.70161
196.47250,0.69236
196.23143,0.68707
195.99036,0.68319
195.74929,0.67651
195.50822,0.66623
195.26715,0.65560
195.02608,0.64805
194.78501,0.64412
194.54394,0.64146
194.30287,0.63721
194.06180,0.63087
193.82073,0.62465
193.57966,0.62066
193.33859,0.61792
193.09752,0.61347
192.85645,0.60630
192.61537,0.59865
192.37430,0.59314
192.13323,0.59005
191.89216,0.58744
191.65109,0.58345
191.41002,0.57874
191.16895,0.57558
190.92788,0.57456
190.68681,0.57346
190.44574,0.57006
190.20467,0.56498
189.96360,0.56099
189.72253,0.55990
189.48146,0.56041
189.24039,0.55965
188.99932,0.55699
188.75825,0.55470
188.51718,0.55422
188.27610,0.55375
188.03503,0.55128
187.79396,0.54818
187.55289,0.54710
187.31182,0.54755
187.07075,0.54649
186.82968,0.54342
186.58861,0.54127
186.34754,0.54191
186.10647,0.54374
185.86540,0.54504
185.62433,0.54677
185.38326,0.55001
185.14219,0.55315
184.90112,0.55407
184.66005,0.55379
184.41898,0.55493
184.17791,0.55780
183.93683,0.56052
183.69576,0.56203
183.45469,0.56287
183.21362,0.56369
182.97255,0.56468
182.73148,0.56579
182.49041,0.56689
182.24934,0.56814
182.00827,0.57018
181.76720,0.57330
181.52613,0.57667
181.28506,0.57884
181.04399,0.57928
180.80292,0.57915
180.56185,0.58021
180.32078,0.58350
180.07971,0.58887
179.83864,0.59520
179.59756,0.60124
179.35649,0.60678
179.11542,0.61259
178.87435,0.61866
178.63328,0.62444
178.39221,0.63067
178.15114,0.63895
177.91007,0.64979
177.66900,0.66264
177.42793,0.67678
177.18686,0.69139
176.94579,0.70596
176.70472,0.72065
176.46365,0.73610
176.22258,0.75344
175.98151,0.77384
175.74044,0.79681
175.49937,0.82037
175.25829,0.84410
175.01722,0.87010
174.77615,0.89919
174.53508,0.92833
174.29401,0.95329
174.05294,0.97301
173.81187,0.99033
173.57080,1.00857
173.32973,1.02752
173.08866,1.04347
172.84759,1.05409
172.60652,1.06111
172.36545,1.06718
172.12438,1.07319
171.88331,1.07883
171.64224,1.08221
171.40117,1.08036
171.16010,1.07461
170.91902,1.07159
170.67795,1.07367
170.43688,1.07332
170.19581,1.06346
169.95474,1.04845
169.71367,1.03711
169.47260,1.03145
169.23153,1.02720
168.99046,1.02067
168.74939,1.01220
168.50832,1.00453
168.26725,0.99948
168.02618,0.99706
167.78511,0.99671
167.54404,0.99815
167.30297,1.00104
167.06190,1.00452
166.82083,1.00740
166.57975,1.00903
166.33868,1.00991
166.09761,1.01064
165.85654,1.01129
165.61547,1.01345
165.37440,1.02109
165.13333,1.03645
164.89226,1.05590
164.65119,1.07217
164.41012,1.08170
164.16905,1.08786
163.92798,1.09532
163.68691,1.10548
163.44584,1.11903
163.20477,1.13778
162.96370,1.16184
162.72263,1.18842
162.48156,1.21311
162.24048,1.22978
161.99941,1.23307
161.75834,1.22513
161.51727,1.21484
161.27620,1.20867
161.03513,1.20706
160.79406,1.20921
160.55299,1.21564
160.31192,1.22408
160.07085,1.22726
159.82978,1.21870
159.58871,1.20035
159.34764,1.18160
159.10657,1.17013
158.86550,1.16562
158.62443,1.16370
158.38336,1.16257
158.14229,1.16107
157.90121,1.15559
157.66014,1.14484
157.41907,1.13178
157.17800,1.11870
156.93693,1.10674
156.69586,1.09953
156.45479,1.10006
156.21372,1.10359
155.97265,1.10048
155.73158,1.08817
155.49051,1.07368
155.24944,1.06323
155.00837,1.05641
154.76730,1.04901
154.52623,1.03719
154.28516,1.01990
154.04409,0.99883
153.80302,0.97614
153.56194,0.95271
153.32087,0.92856
153.07980,0.90429
152.83873,0.88145
152.59766,0.86111
152.35659,0.84240
152.11552,0.82280
151.87445,0.80073
151.63338,0.77754
151.39231,0.75597
151.15124,0.73724
150.91017,0.72017
150.66910,0.70277
150.42803,0.68457
150.18696,0.66702
149.94589,0.65184
149.70482,0.63904
149.46375,0.62724
149.22267,0.61582
148.98160,0.60571
148.74053,0.59745
148.49946,0.59003
148.25839,0.58253
148.01732,0.57570
147.77625,0.57096
147.53518,0.56883
147.29411,0.56870
147.05304,0.56927
146.81197,0.56914
146.57090,0.56819
146.32983,0.56834
146.08876,0.57178
145.84769,0.57835
145.60662,0.58573
145.36555,0.59226
145.12448,0.59835
144.88340,0.60498
144.64233,0.61216
144.40126,0.61877
144.16019,0.62327
143.91912,0.62511
143.67805,0.62521
143.43698,0.62426
143.19591,0.62114
142.95484,0.61390
142.71377,0.60217
142.47270,0.58845
142.23163,0.57603
141.99056,0.56572
141.74949,0.55552
141.50842,0.54437
141.26735,0.53443
141.02628,0.52817
140.78521,0.52488
140.54413,0.52225
140.30306,0.52021
140.06199,0.52087
139.82092,0.52470
139.57985,0.52975
139.33878,0.53517
139.09771,0.54197
138.85664,0.55012
138.61557,0.55833
138.37450,0.56698
138.13343,0.57765
137.89236,0.59018
137.65129,0.60377
137.41022,0.61961
137.16915,0.63922
136.92808,0.66143
136.68701,0.68396
136.44594,0.70707
136.20486,0.73310
135.96379,0.76326
135.72272,0.79683
135.48165,0.83274
135.24058,0.86983
134.99951,0.90642
134.75844,0.94169
134.51737,0.97649
134.27630,1.01187
134.03523,1.04811
133.79416,1.08522
133.55309,1.12182
133.31202,1.15463
133.07095,1.18106
132.82988,1.20088
132.58881,1.21611
132.34774,1.23087
132.10667,1.24738
131.86559,1.25974
131.62452,1.25896
131.38345,1.24370
131.14238,1.21905
130.90131,1.19038
130.66024,1.16146
130.41917,1.13331
130.17810,1.10080
129.93703,1.05722
129.69596,1.00482
129.45489,0.95236
129.21382,0.90481
128.97275,0.86140
128.73168,0.82081
128.49061,0.78385
128.24954,0.75127
128.00847,0.72178
127.76740,0.69339
127.52632,0.66567
127.28525,0.63949
127.04418,0.61512
126.80311,0.59204
126.56204,0.57053
126.32097,0.55136
126.07990,0.53425
125.83883,0.51841
125.59776,0.50393
125.35669,0.49134
125.11562,0.48029
124.87455,0.46991
124.63348,0.45975
124.39241,0.45022
124.15134,0.44234
123.91027,0.43702
123.66920,0.43391
123.42812,0.43156
123.18705,0.42902
122.94598,0.42647
122.70491,0.42445
122.46384,0.42338
122.22277,0.42360
121.98170,0.42553
121.74063,0.42927
121.49956,0.43419
121.25849,0.43926
121.01742,0.44459
120.77635,0.45203
120.53528,0.46315
120.29421,0.47732
120.05314,0.49293
119.81207,0.50996
119.57100,0.52975
119.32993,0.55261
119.08885,0.57762
118.84778,0.60480
118.60671,0.63584
118.36564,0.67191
118.12457,0.71136
117.88350,0.74990
117.64243,0.78272
117.40136,0.80682
117.16029,0.82197
116.91922,0.82941
116.67815,0.82997
116.43708,0.82370
116.19601,0.81076
115.95494,0.79220
115.71387,0.77075
115.47280,0.75016
115.23173,0.73306
114.99066,0.71950
114.74958,0.70827
114.50851,0.69900
114.26744,0.69206
114.02637,0.68686
113.78530,0.68196
113.54423,0.67713
113.30316,0.67361
113.06209,0.67286
112.82102,0.67620
112.57995,0.68470
112.33888,0.69758
112.09781,0.71189
111.85674,0.72554
111.61567,0.73942
111.37460,0.75521
111.13353,0.77184
110.89246,0.78489
110.65139,0.78942
110.41031,0.78415
110.16924,0.77164
109.92817,0.75409
109.68710,0.73216
109.44603,0.70831
109.20496,0.68680
108.96389,0.66977
108.72282,0.65524
108.48175,0.63866
108.24068,0.61569
107.99961,0.58543
107.75854,0.55163
107.51747,0.52047
107.27640,0.49658
107.03533,0.48065
106.79426,0.46981
106.55319,0.46027
106.31212,0.44996
106.07104,0.43853
105.82997,0.42561
105.58890,0.41084
105.34783,0.39533
105.10676,0.38133
104.86569,0.37054
104.62462,0.36320
104.38355,0.35798
104.14248,0.35237
103.90141,0.34396
103.66034,0.33253
103.41927,0.32065
103.17820,0.31157
102.93713,0.30644
102.69606,0.30406
102.45499,0.30258
102.21392,0.30011
101.97285,0.29489
101.73177,0.28660
101.49070,0.27733
101.24963,0.27043
101.00856,0.26814
100.76749,0.26960
100.52642,0.27074
100.28535,0.26780
100.04428,0.26106
99.80321,0.25413
99.56214,0.25027
99.32107,0.25023
99.08000,0.25261
98.83893,0.25505
98.59786,0.25524
98.35679,0.25206
98.11572,0.24721
97.87465,0.24464
97.63358,0.24718
97.39250,0.25355
97.15143,0.25919
96.91036,0.26092
96.66929,0.26071
96.42822,0.26354
96.18715,0.27220
95.94608,0.28445
95.70501,0.29471
95.46394,0.30007
95.22287,0.30405
94.98180,0.31222
94.74073,0.32508
94.49966,0.33594
94.25859,0.33873
94.01752,0.33680
93.77645,0.33661
93.53538,0.33794
93.29431,0.33678
93.05323,0.33431
92.81216,0.33511
92.57109,0.33842
92.33002,0.33969
92.08895,0.33950
91.84788,0.34287
91.60681,0.35114
91.36574,0.36128
91.12467,0.37311
90.88360,0.39075
90.64253,0.41621
90.40146,0.44873
90.16039,0.48935
89.91932,0.53895
89.67825,0.59365
89.43718,0.64932
89.19611,0.70414
88.95504,0.75111
88.71396,0.77979
88.47289,0.78618
88.23182,0.76801
87.99075,0.72387
87.74968,0.66399
87.50861,0.60332
87.26754,0.54847
87.02647,0.50022
86.78540,0.45886
86.54433,0.42343
86.30326,0.39223
86.06219,0.36486
85.82112,0.34079
85.58005,0.31835
85.33898,0.29705
85.09791,0.27818
84.85684,0.26227
84.61577,0.24829
84.37469,0.23543
84.13362,0.22382
83.89255,0.21369
83.65148,0.20517
83.41041,0.19840
83.16934,0.19329
82.92827,0.18959
82.68720,0.18702
82.44613,0.18494
82.20506,0.18248
81.96399,0.17993
81.72292,0.17860
81.48185,0.17856
81.24078,0.17823
80.99971,0.17671
80.75864,0.17456
80.51757,0.17257
80.27650,0.17097
80.03542,0.16980
79.79435,0.16878
79.55328,0.16743
79.31221,0.16574
79.07114,0.16428
78.83007,0.16341
78.58900,0.16284
78.34793,0.16190
78.10686,0.16015
77.86579,0.15740
77.62472,0.15374
77.38365,0.14987
77.14258,0.14709
76.90151,0.14610
76.66044,0.14616
76.41937,0.14587
76.17830,0.14466
75.93723,0.14316
75.69615,0.14211
75.45508,0.14160
75.21401,0.14122
74.97294,0.14067
74.73187,0.13993
74.49080,0.13891
74.24973,0.13758
74.00866,0.13675
73.76759,0.13795
73.52652,0.14156
73.28545,0.14538
73.04438,0.14699
72.80331,0.14681
72.56224,0.14690
72.32117,0.14801
72.08010,0.14975
71.83903,0.15239
71.59796,0.15637
71.35688,0.16048
71.11581,0.16271
70.87474,0.16313
70.63367,0.16472
70.39260,0.17089
70.15153,0.18356
69.91046,0.20347
69.66939,0.22980
69.42832,0.25738
69.18725,0.27670
68.94618,0.28052
68.70511,0.26943
68.46404,0.24847
68.22297,0.22237
67.98190,0.19608
67.74083,0.17448
67.49976,0.15993
67.25869,0.15163
67.01761,0.14725
66.77654,0.14424
66.53547,0.14072
66.29440,0.13656
66.05333,0.13332
65.81226,0.13237
65.57119,0.13390
65.33012,0.13759
65.08905,0.14335
64.84798,0.15098
64.60691,0.15984
64.36584,0.16893
64.12477,0.17657
63.88370,0.18049
63.64263,0.17922
63.40156,0.17310
63.16049,0.16392
62.91942,0.15404
62.67834,0.14578
62.43727,0.14063
62.19620,0.13879
61.95513,0.13923
61.71406,0.14018
61.47299,0.14032
61.23192,0.13990
60.99085,0.14005
60.74978,0.14147
60.50871,0.14428
60.26764,0.14853
60.02657,0.15375
59.78550,0.15831
59.54443,0.16030
59.30336,0.15871
59.06229,0.15341
58.82122,0.14479
58.58015,0.13440
58.33907,0.12486
58.09800,0.11784
57.85693,0.11319
57.61586,0.11031
57.37479,0.10956
57.13372,0.11214
56.89265,0.11911
56.65158,0.13034
56.41051,0.14368
56.16944,0.15538
55.92837,0.16157
55.68730,0.16006
55.44623,0.15188
55.20516,0.14057
54.96409,0.13011
54.72302,0.12391
54.48195,0.12433
54.24088,0.13211
53.99980,0.14663
53.75873,0.16545
53.51766,0.18086
53.27659,0.18117
53.03552,0.16452
52.79445,0.14264
52.55338,0.12689
52.31231,0.12235
52.07124,0.12957
51.83017,0.14516
51.58910,0.16103
51.34803,0.16551
51.10696,0.15230
50.86589,0.12894
50.62482,0.10960
50.38375,0.10476
50.14268,0.11904
49.90161,0.14842
49.66053,0.17208
49.41946,0.16364
49.17839,0.13195
48.93732,0.10940
48.69625,0.11573
48.45518,0.15359
48.21411,0.19520
47.97304,0.18351
47.73197,0.13128
47.49090,0.10206
47.24983,0.11869
47.00876,0.15310
46.76769,0.15196
46.52662,0.12244
46.28555,0.11018
46.04448,0.12093
45.80341,0.12901
45.56234,0.12814
45.32126,0.13400
45.08019,0.14358
44.83912,0.14322
44.59805,0.14012
44.35698,0.14696
44.11591,0.15830
43.87484,0.16541
43.63377,0.16870
43.39270,0.16737
43.15163,0.16305
42.91056,0.16402
42.66949,0.16978
42.42842,0.16948
42.18735,0.16133
41.94628,0.15216
41.70521,0.14457
41.46414,0.13941
41.22307,0.13904
40.98199,0.14332
40.74092,0.15018
40.49985,0.15933
40.25878,0.17084
40.01771,0.18177
39.77664,0.18791
39.53557,0.18906
39.29450,0.18858
39.05343,0.18813
38.81236,0.18853
38.57129,0.19322
38.33022,0.20358
38.08915,0.21414
37.84808,0.22054
37.60701,0.22638
37.36594,0.23548
37.12487,0.24544
36.88380,0.25204
36.64272,0.25369
36.40165,0.25106
36.16058,0.24505
35.91951,0.23681
35.67844,0.23025
35.43737,0.23017
35.19630,0.23529
34.95523,0.23808
34.71416,0.23419
34.47309,0.22731
34.23202,0.22216
33.99095,0.21767
33.74988,0.21154
33.50881,0.20682
33.26774,0.20657
33.02667,0.21090
32.78560,0.22160
32.54453,0.23962
32.30345,0.25581
32.06238,0.25411
31.82131,0.23143
31.58024,0.20075
31.33917,0.17409
31.09810,0.15255
30.85703,0.13094
30.61596,0.10938
30.37489,0.09482
30.13382,0.08881
29.89275,0.08403
29.65168,0.07666
29.41061,0.07093
29.16954,0.07028
28.92847,0.07166
28.68740,0.06895
28.44633,0.06228
28.20526,0.06114
27.96418,0.06763
27.72311,0.06820
27.48204,0.05393
27.24097,0.03219
26.99990,0.01399
26.75883,0.00250
26.51776,-0.00560
26.27669,-0.01186
26.03562,-0.01608
25.79455,-0.02171
25.55348,-0.03337
25.31241,-0.05522
25.07134,-0.08580
24.83027,-0.11654
24.58920,-0.13560
24.34813,-0.13279
24.10706,-0.11692
23.86599,-0.11609
23.62491,-0.14211
23.38384,-0.17507
23.14277,-0.19081
22.90170,-0.19154
22.66063,-0.19698
22.41956,-0.21512
22.17849,-0.23368
21.93742,-0.24031
21.69635,-0.23340
21.45528,-0.21855
21.21421,-0.20546
20.97314,-0.20119
20.73207,-0.20500
20.49100,-0.21195
20.24993,-0.22264
20.00886,-0.23851
19.76779,-0.25198
19.52672,-0.25445
19.28564,-0.24865
19.04457,-0.24674
18.80350,-0.26005
18.56243,-0.28945
18.32136,-0.32408
18.08029,-0.35399
17.83922,-0.37761
17.59815,-0.39669
17.35708,-0.41054
17.11601,-0.41320
16.87494,-0.39969
16.63387,-0.37640
16.39280,-0.35657
16.15173,-0.35240
15.91066,-0.36405
15.66959,-0.37666
15.42852,-0.38770
15.18745,-0.40820
14.94637,-0.43230
14.70530,-0.44613
14.46423,-0.45436
14.22316,-0.46580
13.98209,-0.47860
13.74102,-0.47677
13.49995,-0.44641
13.25888,-0.40629
13.01781,-0.37450
12.77674,-0.36266
12.53567,-0.36916
12.29460,-0.38045
12.05353,-0.38477
11.81246,-0.38377
11.57139,-0.38848
11.33032,-0.40133
11.08925,-0.41618
10.84818,-0.42861
10.60710,-0.42576
10.36603,-0.41833
10.12496,-0.41930
9.88389,-0.43116
9.64282,-0.45101
9.40175,-0.46943
9.16068,-0.47111
8.91961,-0.45405
8.67854,-0.43957
8.43747,-0.44181
8.19640,-0.44495
7.95533,-0.43149
7.71426,-0.41525
7.47319,-0.40911
7.23212,-0.41747
6.99105,-0.43852
6.74998,-0.45363
6.50891,-0.44317
6.26783,-0.42044
6.02676,-0.42076
5.78569,-0.45347
5.54462,-0.48547
5.30355,-0.48589
5.06248,-0.46244
4.82141,-0.43036
4.58034,-0.40427
4.33927,-0.39233
4.09820,-0.38918
3.85713,-0.38556
3.61606,-0.38223
3.37499,-0.38067
3.13392,-0.38045
2.89285,-0.38284
2.65178,-0.38558
2.41071,-0.38938
2.16964,-0.40367
1.92856,-0.42541
1.68749,-0.44264
1.44642,-0.46088
1.20535,-0.47779
0.96428,-0.48502
0.72321,-0.47996
0.48214,-0.44340
0.24107,-0.36533
-0.00000,-0.02036
