399.69498,1.44539
399.45391,1.43911
399.21284,1.43833
398.97177,1.44354
398.73070,1.45110
398.48963,1.45825
398.24856,1.46413
398.00749,1.46521
397.76642,1.45811
397.52535,1.44769
397.28428,1.44340
397.04321,1.44764
396.80214,1.45458
396.56107,1.46144
396.32000,1.47077
396.07892,1.48020
395.83785,1.48192
395.59678,1.47303
395.35571,1.46077
395.11464,1.45687
394.87357,1.47090
394.63250,1.49953
394.39143,1.52047
394.15036,1.51819
393.90929,1.50257
393.66822,1.48792
393.42715,1.47773
393.18608,1.46921
392.94501,1.46312
392.70394,1.46726
392.46287,1.49088
392.22180,1.53215
391.98073,1.56966
391.73965,1.57831
391.49858,1.55915
391.25751,1.53154
391.01644,1.50294
390.77537,1.46983
390.53430,1.44020
390.29323,1.43313
390.05216,1.45580
389.81109,1.49620
389.57002,1.53297
389.32895,1.54955
389.08788,1.54128
388.84681,1.51457
388.60574,1.49048
388.36467,1.48610
388.12360,1.50253
387.88253,1.52725
387.64146,1.53567
387.40038,1.51276
387.15931,1.47866
386.91824,1.46516
386.67717,1.48181
386.43610,1.50841
386.19503,1.51127
385.95396,1.48448
385.71289,1.44923
385.47182,1.41311
385.23075,1.37214
384.98968,1.33220
384.74861,1.30297
384.50754,1.28532
384.26647,1.27791
384.02540,1.28401
383.78433,1.30050
383.54326,1.30909
383.30219,1.29980
383.06111,1.28655
382.82004,1.27630
382.57897,1.26615
382.33790,1.25880
382.09683,1.25683
381.85576,1.26027
381.61469,1.26987
381.37362,1.28577
381.13255,1.30080
380.89148,1.30382
380.65041,1.29471
380.40934,1.27978
380.16827,1.26370
379.92720,1.25529
379.68613,1.26111
379.44506,1.27340
379.20399,1.27662
378.96292,1.26855
378.72184,1.26514
378.48077,1.27707
378.23970,1.29925
377.99863,1.32333
377.75756,1.34247
377.51649,1.34977
377.27542,1.34603
377.03435,1.33872
376.79328,1.33519
376.55221,1.34014
376.31114,1.35242
376.07007,1.36576
375.82900,1.37510
375.58793,1.38266
375.34686,1.39158
375.10579,1.39704
374.86472,1.39894
374.62365,1.40812
374.38257,1.42571
374.14150,1.43729
373.90043,1.43310
373.65936,1.41536
373.41829,1.39165
373.17722,1.37682
372.93615,1.38384
372.69508,1.40377
372.45401,1.40967
372.21294,1.39006
371.97187,1.35990
371.73080,1.33700
371.48973,1.32465
371.24866,1.31728
371.00759,1.31188
370.76652,1.30895
370.52545,1.30759
370.28437,1.30333
370.04330,1.29203
369.80223,1.27530
369.56116,1.25760
369.32009,1.24125
369.07902,1.22823
368.83795,1.22134
368.59688,1.21986
368.35581,1.21827
368.11474,1.21392
367.87367,1.21196
367.63260,1.21637
367.39153,1.22137
367.15046,1.21798
366.90939,1.20544
366.66832,1.19051
366.42725,1.17996
366.18618,1.17592
365.94510,1.17554
365.70403,1.17519
365.46296,1.17393
365.22189,1.17248
364.98082,1.16972
364.73975,1.16275
364.49868,1.15217
364.25761,1.14402
364.01654,1.14354
363.77547,1.14982
363.53440,1.15746
363.29333,1.16186
363.05226,1.16132
362.81119,1.15571
362.57012,1.14649
362.32905,1.13729
362.08798,1.13196
361.84691,1.13286
361.60583,1.14039
361.36476,1.15157
361.12369,1.16076
360.88262,1.16536
360.64155,1.16902
360.40048,1.17474
360.15941,1.17784
359.91834,1.17242
359.67727,1.16169
359.43620,1.15391
359.19513,1.15115
358.95406,1.14936
358.71299,1.14601
358.47192,1.14151
358.23085,1.13663
357.98978,1.13289
357.74871,1.13237
357.50764,1.13391
357.26656,1.13320
357.02549,1.12807
356.78442,1.12191
356.54335,1.12080
356.30228,1.12818
356.06121,1.14163
355.82014,1.15206
355.57907,1.15110
355.33800,1.14205
355.09693,1.13557
354.85586,1.13596
354.61479,1.13924
354.37372,1.14131
354.13265,1.14117
353.89158,1.13879
353.65051,1.13583
353.40944,1.13589
353.16837,1.13919
352.92729,1.13999
352.68622,1.13443
352.44515,1.12864
352.20408,1.13254
351.96301,1.14665
351.72194,1.16002
351.48087,1.16265
351.23980,1.15599
350.99873,1.14809
350.75766,1.14454
350.51659,1.14676
350.27552,1.15367
350.03445,1.16170
349.79338,1.16536
349.55231,1.16265
349.31124,1.15832
349.07017,1.15755
348.82910,1.15924
348.58802,1.15976
348.34695,1.16005
348.10588,1.16333
347.86481,1.16950
347.62374,1.17724
347.38267,1.18653
347.14160,1.19727
346.90053,1.20871
346.65946,1.21725
346.41839,1.21848
346.17732,1.21389
345.93625,1.20882
345.69518,1.20341
345.45411,1.19536
345.21304,1.18883
344.97197,1.18998
344.73090,1.19801
344.48983,1.20753
344.24875,1.21638
344.00768,1.22607
343.76661,1.23744
343.52554,1.24844
343.28447,1.25378
343.04340,1.24791
342.80233,1.23442
342.56126,1.22716
342.32019,1.23619
342.07912,1.25801
341.83805,1.28208
341.59698,1.30067
341.35591,1.30892
341.11484,1.30476
340.87377,1.29455
340.63270,1.28878
340.39163,1.29069
340.15056,1.29578
339.90948,1.30007
339.66841,1.30523
339.42734,1.31598
339.18627,1.33492
338.94520,1.35792
338.70413,1.37377
338.46306,1.37522
338.22199,1.36869
337.98092,1.36634
337.73985,1.37227
337.49878,1.38036
337.25771,1.38696
337.01664,1.39409
336.77557,1.39946
336.53450,1.39986
336.29343,1.39970
336.05236,1.40262
335.81129,1.40134
335.57021,1.39182
335.32914,1.38468
335.08807,1.38763
334.84700,1.39321
334.60593,1.38953
334.36486,1.37408
334.12379,1.35487
333.88272,1.34348
333.64165,1.34565
333.40058,1.35718
333.15951,1.36968
332.91844,1.37628
332.67737,1.37321
332.43630,1.35961
332.19523,1.33896
331.95416,1.31956
331.71309,1.30751
331.47202,1.30173
331.23094,1.29666
330.98987,1.28850
330.74880,1.28105
330.50773,1.28215
330.26666,1.29083
330.02559,1.29706
329.78452,1.29582
329.54345,1.28548
329.30238,1.26650
329.06131,1.24639
328.82024,1.23602
328.57917,1.24201
328.33810,1.25823
328.09703,1.26690
327.85596,1.25764
327.61489,1.24091
327.37382,1.23215
327.13275,1.23465
326.89167,1.24361
326.65060,1.25410
326.40953,1.26070
326.16846,1.25942
325.92739,1.25371
325.68632,1.25270
325.44525,1.26152
325.20418,1.27675
324.96311,1.29306
324.72204,1.30977
324.48097,1.32556
324.23990,1.32796
323.99883,1.30511
323.75776,1.27166
323.51669,1.25478
323.27562,1.26353
323.03455,1.28278
322.79348,1.28970
322.55240,1.27933
322.31133,1.26974
322.07026,1.27669
321.82919,1.29570
321.58812,1.31052
321.34705,1.31252
321.10598,1.30862
320.86491,1.31089
320.62384,1.32203
320.38277,1.33143
320.14170,1.32727
319.90063,1.31107
319.65956,1.29715
319.41849,1.29932
319.17742,1.31717
318.93635,1.33955
318.69528,1.35563
318.45421,1.36084
318.21313,1.35946
317.97206,1.35576
317.73099,1.34738
317.48992,1.33157
317.24885,1.31754
317.00778,1.32041
316.76671,1.33892
316.52564,1.35114
316.28457,1.34309
316.04350,1.32770
315.80243,1.32015
315.56136,1.32134
315.32029,1.32475
315.07922,1.32481
314.83815,1.32119
314.59708,1.31952
314.35601,1.32680
314.11494,1.34099
313.87386,1.34767
313.63279,1.33809
313.39172,1.32569
313.15065,1.32838
312.90958,1.34292
312.66851,1.35147
312.42744,1.35142
312.18637,1.35593
311.94530,1.36254
311.70423,1.35614
311.46316,1.34038
311.22209,1.33371
310.98102,1.34423
310.73995,1.36389
310.49888,1.37880
310.25781,1.38460
310.01674,1.39040
309.77567,1.40455
309.53459,1.42023
309.29352,1.42038
309.05245,1.39925
308.81138,1.37270
308.57031,1.36229
308.32924,1.37417
308.08817,1.39369
307.84710,1.39971
307.60603,1.38663
307.36496,1.37189
307.12389,1.37656
306.88282,1.40186
306.64175,1.42923
306.40068,1.43858
306.15961,1.42285
305.91854,1.39273
305.67747,1.37122
305.43640,1.37522
305.19532,1.40256
304.95425,1.43399
304.71318,1.44653
304.47211,1.43124
304.23104,1.39890
303.98997,1.36937
303.74890,1.35486
303.50783,1.34914
303.26676,1.33600
303.02569,1.31298
302.78462,1.29531
302.54355,1.29182
302.30248,1.29712
302.06141,1.30497
301.82034,1.31346
301.57927,1.31691
301.33820,1.30665
301.09713,1.28462
300.85605,1.26422
300.61498,1.25378
300.37391,1.24887
300.13284,1.24215
299.89177,1.23342
299.65070,1.22572
299.40963,1.21805
299.16856,1.20866
298.92749,1.20117
298.68642,1.19984
298.44535,1.20330
298.20428,1.20785
297.96321,1.21243
297.72214,1.21706
297.48107,1.21845
297.24000,1.21182
296.99893,1.19737
296.75786,1.18103
296.51678,1.16870
296.27571,1.16172
296.03464,1.15741
295.79357,1.15258
295.55250,1.14659
295.31143,1.14147
295.07036,1.13922
294.82929,1.13950
294.58822,1.13971
294.34715,1.13713
294.10608,1.13162
293.86501,1.12564
293.62394,1.12114
293.38287,1.11702
293.14180,1.11107
292.90073,1.10421
292.65966,1.09919
292.41859,1.09663
292.17751,1.09626
291.93644,1.09889
291.69537,1.10478
291.45430,1.11187
291.21323,1.11754
290.97216,1.12040
290.73109,1.11848
290.49002,1.10963
290.24895,1.09621
290.00788,1.08500
289.76681,1.08079
289.52574,1.08211
289.28467,1.08310
289.04360,1.07948
288.80253,1.07307
288.56146,1.06944
288.32039,1.07100
288.07932,1.07425
287.83824,1.07498
287.59717,1.07256
287.35610,1.06696
287.11503,1.05792
286.87396,1.04937
286.63289,1.04793
286.39182,1.05458
286.15075,1.06241
285.90968,1.06459
285.66861,1.06148
285.42754,1.05722
285.18647,1.05360
284.94540,1.04997
284.70433,1.04601
284.46326,1.04283
284.22219,1.04208
283.98112,1.04363
283.74005,1.04483
283.49897,1.04308
283.25790,1.03877
283.01683,1.03453
282.77576,1.03253
282.53469,1.03290
282.29362,1.03455
282.05255,1.03671
281.81148,1.03897
281.57041,1.04053
281.32934,1.04050
281.08827,1.03918
280.84720,1.03773
280.60613,1.03663
280.36506,1.03554
280.12399,1.03478
279.88292,1.03490
279.64185,1.03480
279.40078,1.03237
279.15970,1.02728
278.91863,1.02198
278.67756,1.01975
278.43649,1.02264
278.19542,1.02986
277.95435,1.03770
277.71328,1.04253
277.47221,1.04388
277.23114,1.04338
276.99007,1.04221
276.74900,1.04049
276.50793,1.03871
276.26686,1.03866
276.02579,1.04127
275.78472,1.04432
275.54365,1.04521
275.30258,1.04556
275.06151,1.04932
274.82043,1.05636
274.57936,1.06165
274.33829,1.06166
274.09722,1.05803
273.85615,1.05467
273.61508,1.05452
273.37401,1.05854
273.13294,1.06408
272.89187,1.06629
272.65080,1.06483
272.40973,1.06578
272.16866,1.07279
271.92759,1.08129
271.68652,1.08507
271.44545,1.08420
271.20438,1.08314
270.96331,1.08556
270.72224,1.09295
270.48116,1.10396
270.24009,1.11403
269.99902,1.11905
269.75795,1.11985
269.51688,1.12086
269.27581,1.12447
269.03474,1.12836
268.79367,1.12947
268.55260,1.12900
268.31153,1.13079
268.07046,1.13576
267.82939,1.14063
267.58832,1.14218
267.34725,1.14194
267.10618,1.14549
266.86511,1.15670
266.62404,1.17304
266.38297,1.18687
266.14189,1.19350
265.90082,1.19600
265.65975,1.20042
265.41868,1.20988
265.17761,1.22326
264.93654,1.23600
264.69547,1.24341
264.45440,1.24600
264.21333,1.24973
263.97226,1.26057
263.73119,1.28000
263.49012,1.30193
263.24905,1.31544
263.00798,1.31790
262.76691,1.32151
262.52584,1.33865
262.28477,1.36608
262.04370,1.39004
261.80262,1.40511
261.56155,1.41729
261.32048,1.43047
261.07941,1.44479
260.83834,1.46516
260.59727,1.49896
260.35620,1.54432
260.11513,1.58844
259.87406,1.62219
259.63299,1.64898
259.39192,1.67636
259.15085,1.70956
258.90978,1.74821
258.66871,1.78475
258.42764,1.81638
258.18657,1.85027
257.94550,1.88244
257.70443,1.89011
257.46335,1.86900
257.22228,1.85352
256.98121,1.86881
256.74014,1.89748
256.49907,1.90564
256.25800,1.88466
256.01693,1.84951
255.77586,1.81020
255.53479,1.76808
255.29372,1.73022
255.05265,1.70517
254.81158,1.69098
254.57051,1.67748
254.32944,1.65646
254.08837,1.62897
253.84730,1.60641
253.60623,1.59868
253.36516,1.60459
253.12408,1.61783
252.88301,1.62850
252.64194,1.62525
252.40087,1.60768
252.15980,1.58969
251.91873,1.58463
251.67766,1.59171
251.43659,1.59947
251.19552,1.59674
250.95445,1.58258
250.71338,1.56564
250.47231,1.55208
250.23124,1.54199
249.99017,1.53610
249.74910,1.53489
249.50803,1.53516
249.26696,1.53332
249.02589,1.52888
248.78481,1.52296
248.54374,1.51590
248.30267,1.50988
248.06160,1.50913
247.82053,1.51346
247.57946,1.51805
247.33839,1.52201
247.09732,1.53014
246.85625,1.54696
246.61518,1.56985
246.37411,1.58674
246.13304,1.58463
245.89197,1.56331
245.65090,1.54020
245.40983,1.53623
245.16876,1.55754
244.92769,1.59058
244.68661,1.61400
244.44554,1.62518
244.20447,1.64824
243.96340,1.70240
243.72233,1.76887
243.48126,1.80460
243.24019,1.81697
242.99912,1.85605
242.75805,1.92672
242.51698,1.94042
242.27591,1.82119
242.03484,1.68550
241.79377,1.56857
241.55270,1.47370
241.31163,1.39956
241.07056,1.33999
240.82949,1.29143
240.58842,1.25085
240.34734,1.21235
240.10627,1.17213
239.86520,1.13263
239.62413,1.09840
239.38306,1.07038
239.14199,1.04575
238.90092,1.02242
238.65985,1.00167
238.41878,0.98474
238.17771,0.96873
237.93664,0.94914
237.69557,0.92517
237.45450,0.90040
237.21343,0.87921
236.97236,0.86378
236.73129,0.85317
236.49022,0.84498
236.24915,0.83831
236.00807,0.83385
235.76700,0.83071
235.52593,0.82574
235.28486,0.81752
235.04379,0.80822
234.80272,0.80016
234.56165,0.79317
234.32058,0.78710
234.07951,0.78369
233.83844,0.78377
233.59737,0.78512
233.35630,0.78470
233.11523,0.78161
232.87416,0.77686
232.63309,0.77180
232.39202,0.76721
232.15095,0.76349
231.90988,0.76102
231.66880,0.75970
231.42773,0.75879
231.18666,0.75787
230.94559,0.75740
230.70452,0.75822
230.46345,0.76139
230.22238,0.76740
229.98131,0.77378
229.74024,0.77513
229.49917,0.76917
229.25810,0.76044
229.01703,0.75469
228.77596,0.75207
228.53489,0.74910
228.29382,0.74589
228.05275,0.74584
227.81168,0.74822
227.57061,0.74770
227.32953,0.74317
227.08846,0.73952
226.84739,0.73999
226.60632,0.74320
226.36525,0.74637
226.12418,0.74777
225.88311,0.74765
225.64204,0.74857
225.40097,0.75265
225.15990,0.75831
224.91883,0.76210
224.67776,0.76284
224.43669,0.76181
224.19562,0.76067
223.95455,0.76147
223.71348,0.76622
223.47241,0.77449
223.23134,0.78293
222.99026,0.78835
222.74919,0.79034
222.50812,0.79113
222.26705,0.79412
222.02598,0.80196
221.78491,0.81399
221.54384,0.82601
221.30277,0.83420
221.06170,0.83903
220.82063,0.84414
220.57956,0.85228
220.33849,0.86342
220.09742,0.87603
219.85635,0.88836
219.61528,0.89879
219.37421,0.90685
219.13314,0.91396
218.89207,0.92230
218.65099,0.93255
218.40992,0.94333
218.16885,0.95277
217.92778,0.96114
217.68671,0.97184
217.44564,0.98765
217.20457,1.00667
216.96350,1.02470
216.72243,1.04116
216.48136,1.05882
216.24029,1.07809
215.99922,1.09600
215.75815,1.11127
215.51708,1.12539
215.27601,1.13863
215.03494,1.15018
214.79387,1.16184
214.55280,1.17547
214.31172,1.18790
214.07065,1.19476
213.82958,1.19764
213.58851,1.20299
213.34744,1.21705
213.10637,1.24353
212.86530,1.27949
212.62423,1.31130
212.38316,1.32407
212.14209,1.31674
211.90102,1.29983
211.65995,1.28426
211.41888,1.27886
211.17781,1.28797
210.93674,1.30576
210.69567,1.31893
210.45460,1.31935
210.21353,1.30886
209.97245,1.29407
209.73138,1.28409
209.49031,1.28660
209.24924,1.30080
209.00817,1.31642
208.76710,1.32331
208.52603,1.31902
208.28496,1.30526
208.04389,1.28718
207.80282,1.27321
207.56175,1.26745
207.32068,1.26477
207.07961,1.25582
206.83854,1.23765
206.59747,1.21670
206.35640,1.20266
206.11533,1.19948
205.87426,1.19991
205.63318,1.19146
205.39211,1.16978
205.15104,1.14322
204.90997,1.12294
204.66890,1.11282
204.42783,1.10774
204.18676,1.09964
203.94569,1.08572
203.70462,1.06816
203.46355,1.04981
203.22248,1.03387
202.98141,1.02089
202.74034,1.00472
202.49927,0.97977
202.25820,0.95148
202.01713,0.93055
201.77606,0.92037
201.53499,0.91472
201.29391,0.90451
201.05284,0.88693
200.81177,0.86761
200.57070,0.85333
200.32963,0.84474
200.08856,0.83616
199.84749,0.82263
199.60642,0.80603
199.36535,0.79203
199.12428,0.78299
198.88321,0.77541
198.64214,0.76469
198.40107,0.75099
198.16000,0.73820
197.91893,0.72813
197.67786,0.71905
197.43679,0.70952
197.19572,0.70044
196.95464,0.69250
196.71357,0.68485
196.47250,0.67650
196.23143,0.66742
195.99036,0.65817
195.74929,0.64967
195.50822,0.64271
195.26715,0.63687
195.02608,0.63090
194.78501,0.62471
194.54394,0.61937
194.30287,0.61520
194.06180,0.61083
193.82073,0.60467
193.57966,0.59697
193.33859,0.59018
193.09752,0.58671
192.85645,0.58617
192.61537,0.58522
192.37430,0.58125
192.13323,0.57564
191.89216,0.57152
191.65109,0.56959
191.41002,0.56777
191.16895,0.56509
190.92788,0.56312
190.68681,0.56243
190.44574,0.56056
190.20467,0.55528
189.96360,0.54821
189.72253,0.54308
189.48146,0.54146
189.24039,0.54127
188.99932,0.54020
188.75825,0.53881
188.51718,0.53861
188.27610,0.53880
188.03503,0.53775
187.79396,0.53634
187.55289,0.53665
187.31182,0.53854
187.07075,0.53990
186.82968,0.53955
186.58861,0.53799
186.34754,0.53615
186.10647,0.53451
185.86540,0.53323
185.62433,0.53244
185.38326,0.53213
185.14219,0.53250
184.90112,0.53406
184.66005,0.53691
184.41898,0.53979
184.17791,0.54074
183.93683,0.53950
183.69576,0.53844
183.45469,0.53985
183.21362,0.54335
182.97255,0.54738
182.73148,0.55175
182.49041,0.55611
182.24934,0.55836
182.00827,0.55807
181.76720,0.55798
181.52613,0.55945
181.28506,0.56093
181.04399,0.56173
180.80292,0.56262
180.56185,0.56325
180.32078,0.56355
180.07971,0.56557
179.83864,0.57098
179.59756,0.57870
179.35649,0.58627
179.11542,0.59227
178.87435,0.59747
178.63328,0.60396
178.39221,0.61296
178.15114,0.62363
177.91007,0.63432
177.66900,0.64447
177.42793,0.65537
177.18686,0.66864
176.94579,0.68361
176.70472,0.69805
176.46365,0.71212
176.22258,0.72925
175.98151,0.75185
175.74044,0.77810
175.49937,0.80325
175.25829,0.82329
175.01722,0.83819
174.77615,0.85179
174.53508,0.86784
174.29401,0.88746
174.05294,0.91047
173.81187,0.93633
173.57080,0.96327
173.32973,0.98854
173.08866,1.00986
172.84759,1.02556
172.60652,1.03433
172.36545,1.03619
172.12438,1.03331
171.88331,1.02950
171.64224,1.02845
171.40117,1.03188
171.16010,1.03861
170.91902,1.04462
170.67795,1.04584
170.43688,1.04140
170.19581,1.03227
169.95474,1.01872
169.71367,1.00256
169.47260,0.98809
169.23153,0.97828
168.99046,0.97310
168.74939,0.97122
168.50832,0.97017
168.26725,0.96655
168.02618,0.95958
167.78511,0.95227
167.54404,0.94758
167.30297,0.94580
167.06190,0.94621
166.82083,0.94839
166.57975,0.95052
166.33868,0.95040
166.09761,0.95053
165.85654,0.95710
165.61547,0.97124
165.37440,0.98584
165.13333,0.99410
164.89226,0.99854
164.65119,1.00733
164.41012,1.02372
164.16905,1.04322
163.92798,1.06130
163.68691,1.07892
163.44584,1.09770
163.20477,1.11492
162.96370,1.12851
162.72263,1.14139
162.48156,1.15532
162.24048,1.16582
161.99941,1.16769
161.75834,1.16205
161.51727,1.15499
161.27620,1.15153
161.03513,1.15184
160.79406,1.15380
160.55299,1.15725
160.31192,1.16247
160.07085,1.16629
159.82978,1.16319
159.58871,1.15082
159.34764,1.13228
159.10657,1.11258
158.86550,1.09605
158.62443,1.08604
158.38336,1.08325
158.14229,1.08472
157.90121,1.08595
157.66014,1.08341
157.41907,1.07547
157.17800,1.06436
156.93693,1.05643
156.69586,1.05642
156.45479,1.06088
156.21372,1.06059
155.97265,1.05096
155.73158,1.03615
155.49051,1.02237
155.24944,1.01363
155.00837,1.01128
154.76730,1.01050
154.52623,1.00034
154.28516,0.97586
154.04409,0.94624
153.80302,0.92431
153.56194,0.91391
153.32087,0.90792
153.07980,0.89486
152.83873,0.87066
152.59766,0.84211
152.35659,0.81718
152.11552,0.79769
151.87445,0.78010
151.63338,0.76008
151.39231,0.73737
151.15124,0.71610
150.91017,0.70001
150.66910,0.68786
150.42803,0.67430
150.18696,0.65613
149.94589,0.63618
149.70482,0.61986
149.46375,0.60928
149.22267,0.60181
148.98160,0.59362
148.74053,0.58396
148.49946,0.57474
148.25839,0.56746
148.01732,0.56211
147.77625,0.55803
147.53518,0.55495
147.29411,0.55320
147.05304,0.55292
146.81197,0.55348
146.57090,0.55393
146.32983,0.55411
146.08876,0.55504
145.84769,0.55818
145.60662,0.56395
145.36555,0.57110
145.12448,0.57819
144.88340,0.58513
144.64233,0.59232
144.40126,0.59892
144.16019,0.60357
143.91912,0.60620
143.67805,0.60788
143.43698,0.60857
143.19591,0.60604
142.95484,0.59831
142.71377,0.58687
142.47270,0.57552
142.23163,0.56593
141.99056,0.55651
141.74949,0.54591
141.50842,0.53557
141.26735,0.52725
141.02628,0.52045
140.78521,0.51438
140.54413,0.51049
140.30306,0.51050
140.06199,0.51364
139.82092,0.51778
139.57985,0.52214
139.33878,0.52739
139.09771,0.53399
138.85664,0.54120
138.61557,0.54813
138.37450,0.55577
138.13343,0.56640
137.89236,0.58076
137.65129,0.59741
137.41022,0.61486
137.16915,0.63226
136.92808,0.64958
136.68701,0.66893
136.44594,0.69318
136.20486,0.72178
135.96379,0.75068
135.72272,0.77676
135.48165,0.80037
135.24058,0.82467
134.99951,0.85368
134.75844,0.88894
134.51737,0.92783
134.27630,0.96700
134.03523,1.00519
133.79416,1.04038
133.55309,1.06943
133.31202,1.09367
133.07095,1.11829
132.82988,1.14473
132.58881,1.16883
132.34774,1.18810
132.10667,1.20394
131.86559,1.21292
131.62452,1.20929
131.38345,1.19551
131.14238,1.17676
130.90131,1.15208
130.66024,1.12013
130.41917,1.08545
130.17810,1.05052
129.93703,1.01112
129.69596,0.96616
129.45489,0.92261
129.21382,0.88580
128.97275,0.85197
128.73168,0.81413
128.49061,0.77173
128.24954,0.73006
128.00847,0.69346
127.76740,0.66352
127.52632,0.64013
127.28525,0.62075
127.04418,0.60126
126.80311,0.58007
126.56204,0.55923
126.32097,0.54129
126.07990,0.52703
125.83883,0.51547
125.59776,0.50434
125.35669,0.49185
125.11562,0.47863
124.87455,0.46687
124.63348,0.45761
124.39241,0.45022
124.15134,0.44362
123.91027,0.43731
123.66920,0.43130
123.42812,0.42564
123.18705,0.42025
122.94598,0.41512
122.70491,0.41085
122.46384,0.40901
122.22277,0.41127
121.98170,0.41682
121.74063,0.42204
121.49956,0.42461
121.25849,0.42683
121.01742,0.43272
120.77635,0.44357
120.53528,0.45759
120.29421,0.47268
120.05314,0.48779
119.81207,0.50244
119.57100,0.51656
119.32993,0.53143
119.08885,0.54988
118.84778,0.57503
118.60671,0.60836
118.36564,0.64833
118.12457,0.69094
117.88350,0.73205
117.64243,0.76876
117.40136,0.79840
117.16029,0.81799
116.91922,0.82537
116.67815,0.82045
116.43708,0.80543
116.19601,0.78404
115.95494,0.76061
115.71387,0.73992
115.47280,0.72571
115.23173,0.71727
114.99066,0.71039
114.74958,0.70220
114.50851,0.69281
114.26744,0.68318
114.02637,0.67299
113.78530,0.66154
113.54423,0.65049
113.30316,0.64439
113.06209,0.64696
112.82102,0.65717
112.57995,0.67049
112.33888,0.68325
112.09781,0.69423
111.85674,0.70280
111.61567,0.70804
111.37460,0.71111
111.13353,0.71551
110.89246,0.72294
110.65139,0.73084
110.41031,0.73551
110.16924,0.73585
109.92817,0.73155
109.68710,0.72015
109.44603,0.69944
109.20496,0.67164
108.96389,0.64280
108.72282,0.61868
108.48175,0.60187
108.24068,0.59068
107.99961,0.57889
107.75854,0.56002
107.51747,0.53495
107.27640,0.51051
107.03533,0.49084
106.79426,0.47564
106.55319,0.46392
106.31212,0.45469
106.07104,0.44476
105.82997,0.43018
105.58890,0.41093
105.34783,0.39211
105.10676,0.37984
104.86569,0.37605
104.62462,0.37671
104.38355,0.37467
104.14248,0.36462
103.90141,0.34708
103.66034,0.32869
103.41927,0.31681
103.17820,0.31412
102.93713,0.31758
102.69606,0.32001
102.45499,0.31482
102.21392,0.30284
101.97285,0.29157
101.73177,0.28737
101.49070,0.29026
101.24963,0.29442
101.00856,0.29409
100.76749,0.28909
100.52642,0.28316
100.28535,0.27913
100.04428,0.27650
99.80321,0.27259
99.56214,0.26653
99.32107,0.26138
99.08000,0.26091
98.83893,0.26448
98.59786,0.26691
98.35679,0.26471
98.11572,0.26043
97.87465,0.25865
97.63358,0.26033
97.39250,0.26252
97.15143,0.26267
96.91036,0.26285
96.66929,0.26739
96.42822,0.27579
96.18715,0.28224
95.94608,0.28419
95.70501,0.28751
95.46394,0.29843
95.22287,0.31417
94.98180,0.32509
94.74073,0.32766
94.49966,0.32936
94.25859,0.33579
94.01752,0.34186
93.77645,0.34065
93.53538,0.33630
93.29431,0.33856
93.05323,0.34836
92.81216,0.35592
92.57109,0.35525
92.33002,0.35258
92.08895,0.35383
91.84788,0.35638
91.60681,0.35918
91.36574,0.36700
91.12467,0.38050
90.88360,0.39645
90.64253,0.41813
90.40146,0.45079
90.16039,0.49118
89.91932,0.53506
89.67825,0.58630
89.43718,0.64385
89.19611,0.69367
88.95504,0.72682
88.71396,0.74696
88.47289,0.75364
88.23182,0.73895
87.99075,0.70149
87.74968,0.65071
87.50861,0.59717
87.26754,0.54653
87.02647,0.50070
86.78540,0.46038
86.54433,0.42509
86.30326,0.39378
86.06219,0.36639
85.82112,0.34284
85.58005,0.32152
85.33898,0.30101
85.09791,0.28193
84.85684,0.26517
84.61577,0.25064
84.37469,0.23844
84.13362,0.22919
83.89255,0.22253
83.65148,0.21670
83.41041,0.21012
83.16934,0.20299
82.92827,0.19718
82.68720,0.19440
82.44613,0.19450
82.20506,0.19559
81.96399,0.19586
81.72292,0.19491
81.48185,0.19327
81.24078,0.19129
80.99971,0.18926
80.75864,0.18774
80.51757,0.18697
80.27650,0.18657
80.03542,0.18590
79.79435,0.18439
79.55328,0.18187
79.31221,0.17921
79.07114,0.17778
78.83007,0.17778
78.58900,0.17800
78.34793,0.17746
78.10686,0.17593
77.86579,0.17335
77.62472,0.17023
77.38365,0.16788
77.14258,0.16695
76.90151,0.16665
76.66044,0.16616
76.41937,0.16571
76.17830,0.16572
75.93723,0.16586
75.69615,0.16549
75.45508,0.16437
75.21401,0.16229
74.97294,0.15913
74.73187,0.15551
74.49080,0.15275
74.24973,0.15209
74.00866,0.15421
73.76759,0.15846
73.52652,0.16244
73.28545,0.16377
73.04438,0.16293
72.80331,0.16259
72.56224,0.16394
72.32117,0.16572
72.08010,0.16688
71.83903,0.16758
71.59796,0.16753
71.35688,0.16611
71.11581,0.16445
70.87474,0.16520
70.63367,0.17048
70.39260,0.18133
70.15153,0.19852
69.91046,0.22183
69.66939,0.24811
69.42832,0.27084
69.18725,0.28281
68.94618,0.28066
68.70511,0.26685
68.46404,0.24709
68.22297,0.22677
67.98190,0.20902
67.74083,0.19477
67.49976,0.18425
67.25869,0.17760
67.01761,0.17390
66.77654,0.17084
66.53547,0.16655
66.29440,0.16140
66.05333,0.15756
65.81226,0.15667
65.57119,0.15819
65.33012,0.16049
65.08905,0.16338
64.84798,0.16853
64.60691,0.17686
64.36584,0.18571
64.12477,0.18977
63.88370,0.18550
63.64263,0.17437
63.40156,0.16131
63.16049,0.15086
62.91942,0.14503
62.67834,0.14340
62.43727,0.14426
62.19620,0.14619
61.95513,0.14875
61.71406,0.15236
61.47299,0.15828
61.23192,0.16740
60.99085,0.17765
60.74978,0.18420
60.50871,0.18343
60.26764,0.17513
60.02657,0.16095
59.78550,0.14333
59.54443,0.12595
59.30336,0.11348
59.06229,0.10995
58.82122,0.11658
58.58015,0.13099
58.33907,0.14881
58.09800,0.16582
57.85693,0.17696
57.61586,0.17636
57.37479,0.16379
57.13372,0.14604
56.89265,0.12960
56.65158,0.11796
56.41051,0.11403
56.16944,0.12102
55.92837,0.13981
55.68730,0.16470
55.44623,0.18278
55.20516,0.18318
54.96409,0.16917
54.72302,0.15256
54.48195,0.14110
54.24088,0.13841
53.99980,0.14852
53.75873,0.17471
53.51766,0.21062
53.27659,0.22921
53.03552,0.20660
52.79445,0.16371
52.55338,0.13153
52.31231,0.12639
52.07124,0.15472
51.83017,0.20227
51.58910,0.21807
51.34803,0.17652
51.10696,0.12691
50.86589,0.10610
50.62482,0.12272
50.38375,0.16663
50.14268,0.19693
49.90161,0.17404
49.66053,0.13334
49.41946,0.12136
49.17839,0.14487
48.93732,0.16933
48.69625,0.15380
48.45518,0.12450
48.21411,0.12598
47.97304,0.16215
47.73197,0.18795
47.49090,0.16201
47.24983,0.12773
47.00876,0.12862
46.76769,0.14952
46.52662,0.14148
46.28555,0.11535
46.04448,0.11826
45.80341,0.14560
45.56234,0.15028
45.32126,0.13333
45.08019,0.13599
44.83912,0.15703
44.59805,0.17080
44.35698,0.17761
44.11591,0.18410
43.87484,0.18044
43.63377,0.16872
43.39270,0.16302
43.15163,0.16525
42.91056,0.16828
42.66949,0.17161
42.42842,0.17739
42.18735,0.17915
41.94628,0.16937
41.70521,0.15298
41.46414,0.14262
41.22307,0.14282
40.98199,0.14778
40.74092,0.15395
40.49985,0.16424
40.25878,0.17855
40.01771,0.19084
39.77664,0.19444
39.53557,0.18750
39.29450,0.17828
39.05343,0.18013
38.81236,0.19444
38.57129,0.20563
38.33022,0.20147
38.08915,0.18926
37.84808,0.18455
37.60701,0.19105
37.36594,0.19748
37.12487,0.19574
36.88380,0.19140
36.64272,0.19035
36.40165,0.18949
36.16058,0.18493
35.91951,0.17856
35.67844,0.17340
35.43737,0.16870
35.19630,0.16363
34.95523,0.16366
34.71416,0.17366
34.47309,0.18667
34.23202,0.19308
33.99095,0.19434
33.74988,0.19352
33.50881,0.18132
33.26774,0.15341
33.02667,0.12804
32.78560,0.12392
32.54453,0.13866
32.30345,0.15932
32.06238,0.17775
31.82131,0.18743
31.58024,0.18219
31.33917,0.16386
31.09810,0.14329
30.85703,0.13163
30.61596,0.13029
30.37489,0.12883
30.13382,0.11905
29.89275,0.10413
29.65168,0.08679
29.41061,0.05922
29.16954,0.01842
28.92847,-0.01962
28.68740,-0.03852
28.44633,-0.03790
28.20526,-0.02555
27.96418,-0.00954
27.72311,-0.00172
27.48204,-0.01414
27.24097,-0.04562
26.99990,-0.07841
26.75883,-0.09350
26.51776,-0.08927
26.27669,-0.08361
26.03562,-0.09481
25.79455,-0.12240
25.55348,-0.15330
25.31241,-0.17985
25.07134,-0.20570
24.83027,-0.22991
24.58920,-0.23692
24.34813,-0.21645
24.10706,-0.19108
23.86599,-0.19722
23.62491,-0.24423
23.38384,-0.29334
23.14277,-0.29077
22.90170,-0.25506
22.66063,-0.24327
22.41956,-0.27677
22.17849,-0.32754
21.93742,-0.34428
21.69635,-0.31715
21.45528,-0.29164
21.21421,-0.30032
20.97314,-0.33790
20.73207,-0.36287
20.49100,-0.35364
20.24993,-0.33729
20.00886,-0.32904
19.76779,-0.34166
19.52672,-0.38844
19.28564,-0.45311
19.04457,-0.48381
18.80350,-0.46563
18.56243,-0.43596
18.32136,-0.41172
18.08029,-0.40556
17.83922,-0.43253
17.59815,-0.40508
17.35708,-0.39026
17.11601,-0.40709
16.87494,-0.43098
16.63387,-0.43553
16.39280,-0.41961
16.15173,-0.40118
15.91066,-0.38269
15.66959,-0.35892
15.42852,-0.33627
15.18745,-0.32373
14.94637,-0.31865
14.70530,-0.31154
14.46423,-0.30422
14.22316,-0.31214
13.98209,-0.33880
13.74102,-0.35865
13.49995,-0.36711
13.25888,-0.37306
13.01781,-0.36788
12.77674,-0.35659
12.53567,-0.36623
12.29460,-0.40960
12.05353,-0.43254
11.81246,-0.41614
11.57139,-0.39160
11.33032,-0.36828
11.08925,-0.35703
10.84818,-0.37205
10.60710,-0.41134
10.36603,-0.44714
10.12496,-0.45805
9.88389,-0.45317
9.64282,-0.44525
9.40175,-0.42882
9.16068,-0.40480
8.91961,-0.38948
8.67854,-0.39175
8.43747,-0.39565
8.19640,-0.38860
7.95533,-0.38329
7.71426,-0.37984
7.47319,-0.38471
7.23212,-0.40247
6.99105,-0.42067
6.74998,-0.43176
6.50891,-0.44216
6.26783,-0.44173
6.02676,-0.41621
5.78569,-0.38990
5.54462,-0.38302
5.30355,-0.39293
5.06248,-0.40882
4.82141,-0.41474
4.58034,-0.41025
4.33927,-0.40907
4.09820,-0.41265
3.85713,-0.41247
3.61606,-0.39425
3.37499,-0.39024
3.13392,-0.41190
2.89285,-0.43999
2.65178,-0.43938
2.41071,-0.41874
2.16964,-0.41219
1.92856,-0.41940
1.68749,-0.42587
1.44642,-0.42659
1.20535,-0.41077
0.96428,-0.38401
0.72321,-0.39086
0.48214,-0.46941
0.24107,-0.46571
-0.00000,-0.14704
