399.69498,1.65168
399.45391,1.65486
399.21284,1.64934
398.97177,1.64402
398.73070,1.64081
398.48963,1.63385
398.24856,1.62000
398.00749,1.61611
397.76642,1.62983
397.52535,1.63652
397.28428,1.61742
397.04321,1.60526
396.80214,1.63311
396.56107,1.68397
396.32000,1.72215
396.07892,1.73938
395.83785,1.75344
395.59678,1.75717
395.35571,1.71530
395.11464,1.67005
394.87357,1.67839
394.63250,1.73591
394.39143,1.79348
394.15036,1.80968
393.90929,1.82748
393.66822,1.88331
393.42715,1.94390
393.18608,1.98149
392.94501,2.01300
392.70394,2.04571
392.46287,2.05243
392.22180,1.97579
391.98073,1.87632
391.73965,1.83375
391.49858,1.87260
391.25751,2.05507
391.01644,2.37358
390.77537,2.24380
390.53430,2.10834
390.29323,2.20446
390.05216,2.29618
389.81109,2.17956
389.57002,2.10969
389.32895,2.07380
389.08788,1.98671
388.84681,1.83700
388.60574,1.76367
388.36467,1.79680
388.12360,1.92138
387.88253,2.05759
387.64146,2.05820
387.40038,1.99076
387.15931,2.02431
386.91824,2.14826
386.67717,2.10951
386.43610,1.96976
386.19503,1.90467
385.95396,1.94355
385.71289,2.02245
385.47182,1.98851
385.23075,1.88215
384.98968,1.82793
384.74861,1.82370
384.50754,1.75096
384.26647,1.67794
384.02540,1.67533
383.78433,1.69422
383.54326,1.65890
383.30219,1.62935
383.06111,1.64181
382.82004,1.70053
382.57897,1.79448
382.33790,1.94664
382.09683,2.11852
381.85576,1.97450
381.61469,1.79056
381.37362,1.78948
381.13255,1.88972
380.89148,1.94016
380.65041,1.95304
380.40934,1.94133
380.16827,1.88789
379.92720,1.86610
379.68613,1.82955
379.44506,1.76638
379.20399,1.78721
378.96292,1.99154
378.72184,2.38235
378.48077,2.19266
378.23970,1.93791
377.99863,1.83552
377.75756,1.79726
377.51649,1.79632
377.27542,1.87083
377.03435,1.98983
376.79328,1.99916
376.55221,2.19461
376.31114,2.26804
376.07007,2.09021
375.82900,1.91993
375.58793,1.89963
375.34686,2.04027
375.10579,2.33147
374.86472,2.43551
374.62365,2.20333
374.38257,2.02328
374.14150,1.86320
373.90043,1.73279
373.65936,1.66683
373.41829,1.65079
373.17722,1.63517
372.93615,1.59492
372.69508,1.56151
372.45401,1.56154
372.21294,1.58605
371.97187,1.61612
371.73080,1.65485
371.48973,1.70191
371.24866,1.73376
371.00759,1.73651
370.76652,1.71434
370.52545,1.67076
370.28437,1.59958
370.04330,1.51824
369.80223,1.45945
369.56116,1.42878
369.32009,1.41180
369.07902,1.39743
368.83795,1.38232
368.59688,1.36606
368.35581,1.35191
368.11474,1.34630
367.87367,1.34996
367.63260,1.35650
367.39153,1.36422
367.15046,1.37210
366.90939,1.37340
366.66832,1.36610
366.42725,1.35574
366.18618,1.34350
365.94510,1.32461
365.70403,1.30135
365.46296,1.28452
365.22189,1.27996
364.98082,1.28205
364.73975,1.27872
364.49868,1.26206
364.25761,1.23643
364.01654,1.21535
363.77547,1.21029
363.53440,1.22195
363.29333,1.24042
363.05226,1.25431
362.81119,1.26070
362.57012,1.26353
362.32905,1.26578
362.08798,1.27214
361.84691,1.28809
361.60583,1.30600
361.36476,1.30580
361.12369,1.28063
360.88262,1.24928
360.64155,1.23457
360.40048,1.24266
360.15941,1.26067
359.91834,1.26724
359.67727,1.25327
359.43620,1.22993
359.19513,1.21200
358.95406,1.20384
358.71299,1.20068
358.47192,1.19779
358.23085,1.19577
357.98978,1.19650
357.74871,1.20110
357.50764,1.21033
357.26656,1.22202
357.02549,1.23258
356.78442,1.24385
356.54335,1.26259
356.30228,1.28526
356.06121,1.29008
355.82014,1.26508
355.57907,1.23190
355.33800,1.21663
355.09693,1.22354
354.85586,1.24179
354.61479,1.25881
354.37372,1.26739
354.13265,1.26777
353.89158,1.26733
353.65051,1.27435
353.40944,1.28774
353.16837,1.29343
352.92729,1.27823
352.68622,1.24946
352.44515,1.22833
352.20408,1.22699
351.96301,1.24034
351.72194,1.25391
351.48087,1.25595
351.23980,1.24558
350.99873,1.23448
350.75766,1.23570
350.51659,1.24977
350.27552,1.26369
350.03445,1.26737
349.79338,1.26521
349.55231,1.26584
349.31124,1.27092
349.07017,1.27919
348.82910,1.29069
348.58802,1.30419
348.34695,1.31515
348.10588,1.31701
347.86481,1.30641
347.62374,1.29021
347.38267,1.27935
347.14160,1.27171
346.90053,1.26033
346.65946,1.25371
346.41839,1.26162
346.17732,1.27462
345.93625,1.27487
345.69518,1.26299
345.45411,1.25997
345.21304,1.28048
344.97197,1.31476
344.73090,1.33808
344.48983,1.34173
344.24875,1.34126
344.00768,1.34897
343.76661,1.36649
343.52554,1.39353
343.28447,1.42565
343.04340,1.44929
342.80233,1.45565
342.56126,1.45741
342.32019,1.47457
342.07912,1.50564
341.83805,1.52605
341.59698,1.52059
341.35591,1.50713
341.11484,1.50843
340.87377,1.51302
340.63270,1.50506
340.39163,1.50601
340.15056,1.53603
339.90948,1.57877
339.66841,1.60019
339.42734,1.58832
339.18627,1.56351
338.94520,1.56151
338.70413,1.60166
338.46306,1.66458
338.22199,1.69017
337.98092,1.65368
337.73985,1.61689
337.49878,1.64415
337.25771,1.75132
337.01664,1.87755
336.77557,1.92064
336.53450,1.88732
336.29343,1.83757
336.05236,1.81594
335.81129,1.81929
335.57021,1.83532
335.32914,1.86690
335.08807,1.88383
334.84700,1.86137
334.60593,1.80065
334.36486,1.73024
334.12379,1.67362
333.88272,1.64836
333.64165,1.65246
333.40058,1.66175
333.15951,1.65923
332.91844,1.64468
332.67737,1.61672
332.43630,1.58132
332.19523,1.55586
331.95416,1.54846
331.71309,1.54885
331.47202,1.54190
331.23094,1.53295
330.98987,1.53517
330.74880,1.53094
330.50773,1.50705
330.26666,1.48028
330.02559,1.46725
329.78452,1.46553
329.54345,1.47040
329.30238,1.49145
329.06131,1.52734
328.82024,1.55903
328.57917,1.58751
328.33810,1.62247
328.09703,1.65436
327.85596,1.66174
327.61489,1.63392
327.37382,1.59143
327.13275,1.55479
326.89167,1.53745
326.65060,1.54625
326.40953,1.57252
326.16846,1.59664
325.92739,1.60403
325.68632,1.59254
325.44525,1.57766
325.20418,1.58681
324.96311,1.61448
324.72204,1.61946
324.48097,1.57742
324.23990,1.52073
323.99883,1.49853
323.75776,1.52803
323.51669,1.58140
323.27562,1.61143
323.03455,1.61812
322.79348,1.63015
322.55240,1.62701
322.31133,1.60035
322.07026,1.59311
321.82919,1.63223
321.58812,1.69072
321.34705,1.71533
321.10598,1.69241
320.86491,1.68191
320.62384,1.76540
320.38277,1.90314
320.14170,1.90605
319.90063,1.98890
319.65956,2.18232
319.41849,2.10372
319.17742,1.99369
318.93635,1.94721
318.69528,1.87602
318.45421,1.79461
318.21313,1.75457
317.97206,1.77639
317.73099,1.84231
317.48992,1.91071
317.24885,1.95540
317.00778,1.97176
316.76671,2.00574
316.52564,2.08019
316.28457,2.08258
316.04350,2.03799
315.80243,2.03380
315.56136,2.08524
315.32029,2.16144
315.07922,2.19093
314.83815,2.03455
314.59708,1.96443
314.35601,2.01435
314.11494,2.08031
313.87386,2.13459
313.63279,2.15456
313.39172,2.14369
313.15065,2.10986
312.90958,1.91024
312.66851,1.79049
312.42744,1.82029
312.18637,1.95536
311.94530,2.05507
311.70423,2.08954
311.46316,2.12535
311.22209,2.15841
310.98102,2.20865
310.73995,2.18990
310.49888,2.18928
310.25781,2.23744
310.01674,2.21074
309.77567,2.14793
309.53459,2.12958
309.29352,2.11990
309.05245,2.06023
308.81138,2.08706
308.57031,2.11386
308.32924,2.05698
308.08817,1.94744
307.84710,1.86086
307.60603,1.82319
307.36496,1.81722
307.12389,1.82056
306.88282,1.82145
306.64175,1.81957
306.40068,1.81055
306.15961,1.78977
305.91854,1.75722
305.67747,1.70903
305.43640,1.64771
305.19532,1.58550
304.95425,1.54104
304.71318,1.52058
304.47211,1.50754
304.23104,1.48831
303.98997,1.46437
303.74890,1.44157
303.50783,1.42322
303.26676,1.40290
303.02569,1.37659
302.78462,1.35576
302.54355,1.35404
302.30248,1.36762
302.06141,1.37395
301.82034,1.35331
301.57927,1.31556
301.33820,1.28761
301.09713,1.27991
300.85605,1.28299
300.61498,1.28157
300.37391,1.26686
300.13284,1.24229
299.89177,1.21608
299.65070,1.19360
299.40963,1.17747
299.16856,1.16739
298.92749,1.16039
298.68642,1.15441
298.44535,1.14867
298.20428,1.14152
297.96321,1.13141
297.72214,1.11821
297.48107,1.10521
297.24000,1.10101
296.99893,1.11107
296.75786,1.12718
296.51678,1.13517
296.27571,1.13246
296.03464,1.12689
295.79357,1.12194
295.55250,1.11506
295.31143,1.10665
295.07036,1.09950
294.82929,1.09112
294.58822,1.07632
294.34715,1.05829
294.10608,1.04758
293.86501,1.04881
293.62394,1.05502
293.38287,1.05610
293.14180,1.04793
292.90073,1.03465
292.65966,1.02638
292.41859,1.03075
292.17751,1.04245
291.93644,1.04582
291.69537,1.03390
291.45430,1.01678
291.21323,1.00469
290.97216,0.99733
290.73109,0.99115
290.49002,0.98588
290.24895,0.98200
290.00788,0.97899
289.76681,0.97777
289.52574,0.98002
289.28467,0.98486
289.04360,0.98948
288.80253,0.99129
288.56146,0.98932
288.32039,0.98591
288.07932,0.98477
287.83824,0.98675
287.59717,0.98979
287.35610,0.99154
287.11503,0.98971
286.87396,0.98297
286.63289,0.97412
286.39182,0.96902
286.15075,0.96964
285.90968,0.97096
285.66861,0.96768
285.42754,0.96173
285.18647,0.96016
284.94540,0.96576
284.70433,0.97291
284.46326,0.97447
284.22219,0.96967
283.98112,0.96323
283.74005,0.95839
283.49897,0.95281
283.25790,0.94381
283.01683,0.93636
282.77576,0.93795
282.53469,0.94654
282.29362,0.95134
282.05255,0.94768
281.81148,0.94263
281.57041,0.94253
281.32934,0.94485
281.08827,0.94387
280.84720,0.93911
280.60613,0.93469
280.36506,0.93269
280.12399,0.93172
279.88292,0.93166
279.64185,0.93462
279.40078,0.94030
279.15970,0.94496
278.91863,0.94665
278.67756,0.94774
278.43649,0.95012
278.19542,0.95107
277.95435,0.94761
277.71328,0.94304
277.47221,0.94336
277.23114,0.94825
276.99007,0.95129
276.74900,0.94936
276.50793,0.94557
276.26686,0.94212
276.02579,0.93757
275.78472,0.93167
275.54365,0.92804
275.30258,0.93029
275.06151,0.93720
274.82043,0.94306
274.57936,0.94349
274.33829,0.94013
274.09722,0.93804
273.85615,0.93946
273.61508,0.94274
273.37401,0.94611
273.13294,0.94897
272.89187,0.95020
272.65080,0.94922
272.40973,0.94792
272.16866,0.94858
271.92759,0.95129
271.68652,0.95502
271.44545,0.95867
271.20438,0.96074
270.96331,0.96128
270.72224,0.96255
270.48116,0.96494
270.24009,0.96570
269.99902,0.96493
269.75795,0.96687
269.51688,0.97292
269.27581,0.97995
269.03474,0.98549
268.79367,0.98892
268.55260,0.98993
268.31153,0.99090
268.07046,0.99765
267.82939,1.01324
267.58832,1.03257
267.34725,1.04582
267.10618,1.04710
266.86511,1.03855
266.62404,1.02768
266.38297,1.02240
266.14189,1.02676
265.90082,1.03873
265.65975,1.05166
265.41868,1.05925
265.17761,1.06091
264.93654,1.06213
264.69547,1.06774
264.45440,1.07642
264.21333,1.08417
263.97226,1.09037
263.73119,1.09805
263.49012,1.10873
263.24905,1.12117
263.00798,1.13528
262.76691,1.15071
262.52584,1.16299
262.28477,1.16936
262.04370,1.17559
261.80262,1.18899
261.56155,1.20843
261.32048,1.22759
261.07941,1.24286
260.83834,1.25364
260.59727,1.26171
260.35620,1.27333
260.11513,1.29279
259.87406,1.31333
259.63299,1.32203
259.39192,1.31454
259.15085,1.30140
258.90978,1.29802
258.66871,1.31382
258.42764,1.34844
258.18657,1.39129
257.94550,1.42659
257.70443,1.44834
257.46335,1.47044
257.22228,1.50767
256.98121,1.55321
256.74014,1.59331
256.49907,1.63221
256.25800,1.67591
256.01693,1.70367
255.77586,1.69483
255.53479,1.67608
255.29372,1.68631
255.05265,1.72912
254.81158,1.77361
254.57051,1.79640
254.32944,1.81891
254.08837,1.86576
253.84730,1.93629
253.60623,2.00005
253.36516,1.99075
253.12408,1.96910
252.88301,2.04274
252.64194,2.23522
252.40087,2.42645
252.15980,2.45100
251.91873,2.50124
251.67766,2.63546
251.43659,2.72367
251.19552,2.63700
250.95445,2.34247
250.71338,2.18812
250.47231,2.12913
250.23124,2.13288
249.99017,2.21026
249.74910,2.31677
249.50803,2.39793
249.26696,2.41919
249.02589,2.35414
248.78481,2.28502
248.54374,2.26042
248.30267,2.24046
248.06160,2.20202
247.82053,2.22188
247.57946,2.17639
247.33839,2.12481
247.09732,2.18958
246.85625,2.31461
246.61518,2.20986
246.37411,2.05864
246.13304,1.98972
245.89197,1.99756
245.65090,2.07723
245.40983,2.15521
245.16876,2.09930
244.92769,1.96146
244.68661,1.83989
244.44554,1.75293
244.20447,1.68761
243.96340,1.62549
243.72233,1.56857
243.48126,1.53017
243.24019,1.50758
242.99912,1.48352
242.75805,1.44894
242.51698,1.40877
242.27591,1.36457
242.03484,1.31157
241.79377,1.25426
241.55270,1.20589
241.31163,1.17258
241.07056,1.14649
240.82949,1.11637
240.58842,1.07998
240.34734,1.04061
240.10627,0.99933
239.86520,0.95909
239.62413,0.92700
239.38306,0.90616
239.14199,0.89240
238.90092,0.88108
238.65985,0.86964
238.41878,0.85444
238.17771,0.83365
237.93664,0.81190
237.69557,0.79575
237.45450,0.78548
237.21343,0.77560
236.97236,0.76205
236.73129,0.74649
236.49022,0.73255
236.24915,0.72101
236.00807,0.71072
235.76700,0.70240
235.52593,0.69742
235.28486,0.69318
235.04379,0.68561
234.80272,0.67626
234.56165,0.67147
234.32058,0.67364
234.07951,0.67801
233.83844,0.67878
233.59737,0.67522
233.35630,0.67016
233.11523,0.66594
232.87416,0.66290
232.63309,0.65976
232.39202,0.65545
232.15095,0.65095
231.90988,0.64841
231.66880,0.64805
231.42773,0.64773
231.18666,0.64606
230.94559,0.64405
230.70452,0.64338
230.46345,0.64445
230.22238,0.64650
229.98131,0.64876
229.74024,0.65121
229.49917,0.65377
229.25810,0.65494
229.01703,0.65320
228.77596,0.64925
228.53489,0.64537
228.29382,0.64254
228.05275,0.63931
227.81168,0.63421
227.57061,0.62804
227.32953,0.62256
227.08846,0.61916
226.84739,0.61943
226.60632,0.62459
226.36525,0.63303
226.12418,0.64091
225.88311,0.64628
225.64204,0.64991
225.40097,0.65223
225.15990,0.65254
224.91883,0.65143
224.67776,0.65129
224.43669,0.65406
224.19562,0.65982
223.95455,0.66774
223.71348,0.67677
223.47241,0.68446
223.23134,0.68762
222.99026,0.68622
222.74919,0.68416
222.50812,0.68518
222.26705,0.69056
222.02598,0.69987
221.78491,0.71036
221.54384,0.71702
221.30277,0.71776
221.06170,0.71700
220.82063,0.72087
220.57956,0.73071
220.33849,0.74259
220.09742,0.75171
219.85635,0.75716
219.61528,0.76214
219.37421,0.76968
219.13314,0.77959
218.89207,0.78991
218.65099,0.79956
218.40992,0.80862
218.16885,0.81669
217.92778,0.82255
217.68671,0.82623
217.44564,0.82974
217.20457,0.83552
216.96350,0.84506
216.72243,0.85896
216.48136,0.87668
216.24029,0.89637
215.99922,0.91595
215.75815,0.93416
215.51708,0.94973
215.27601,0.96176
215.03494,0.97228
214.79387,0.98542
214.55280,1.00194
214.31172,1.01681
214.07065,1.02550
213.82958,1.02948
213.58851,1.03187
213.34744,1.03310
213.10637,1.03292
212.86530,1.03221
212.62423,1.03297
212.38316,1.03781
212.14209,1.04753
211.90102,1.05844
211.65995,1.06592
211.41888,1.07120
211.17781,1.07803
210.93674,1.08541
210.69567,1.09069
210.45460,1.09425
210.21353,1.09709
209.97245,1.09709
209.73138,1.09167
209.49031,1.08220
209.24924,1.07240
209.00817,1.06448
208.76710,1.05766
208.52603,1.05020
208.28496,1.04233
208.04389,1.03663
207.80282,1.03548
207.56175,1.03846
207.32068,1.04089
207.07961,1.03670
206.83854,1.02621
206.59747,1.01612
206.35640,1.01044
206.11533,1.00618
205.87426,0.99926
205.63318,0.99107
205.39211,0.98506
205.15104,0.97913
204.90997,0.96868
204.66890,0.95490
204.42783,0.94227
204.18676,0.93063
203.94569,0.91673
203.70462,0.90121
203.46355,0.88818
203.22248,0.87991
202.98141,0.87488
202.74034,0.86799
202.49927,0.85302
202.25820,0.82923
202.01713,0.80332
201.77606,0.78281
201.53499,0.76989
201.29391,0.76155
201.05284,0.75374
200.81177,0.74428
200.57070,0.73327
200.32963,0.72313
200.08856,0.71670
199.84749,0.71320
199.60642,0.70788
199.36535,0.69744
199.12428,0.68344
198.88321,0.66948
198.64214,0.65776
198.40107,0.64809
198.16000,0.63870
197.91893,0.62825
197.67786,0.61773
197.43679,0.60898
197.19572,0.60221
196.95464,0.59603
196.71357,0.58901
196.47250,0.58069
196.23143,0.57203
195.99036,0.56478
195.74929,0.55977
195.50822,0.55625
195.26715,0.55319
195.02608,0.55039
194.78501,0.54826
194.54394,0.54678
194.30287,0.54437
194.06180,0.53890
193.82073,0.53055
193.57966,0.52223
193.33859,0.51647
193.09752,0.51286
192.85645,0.50912
192.61537,0.50406
192.37430,0.49874
192.13323,0.49467
191.89216,0.49173
191.65109,0.48842
191.41002,0.48371
191.16895,0.47798
190.92788,0.47255
190.68681,0.46862
190.44574,0.46675
190.20467,0.46701
189.96360,0.46873
189.72253,0.46998
189.48146,0.46876
189.24039,0.46534
188.99932,0.46178
188.75825,0.45917
188.51718,0.45711
188.27610,0.45542
188.03503,0.45448
187.79396,0.45435
187.55289,0.45467
187.31182,0.45515
187.07075,0.45593
186.82968,0.45712
186.58861,0.45779
186.34754,0.45642
186.10647,0.45301
185.86540,0.44962
185.62433,0.44796
185.38326,0.44804
185.14219,0.44912
184.90112,0.45073
184.66005,0.45299
184.41898,0.45661
184.17791,0.46177
183.93683,0.46657
183.69576,0.46845
183.45469,0.46714
183.21362,0.46521
182.97255,0.46543
182.73148,0.46805
182.49041,0.47073
182.24934,0.47138
182.00827,0.47038
181.76720,0.46959
181.52613,0.47017
181.28506,0.47207
181.04399,0.47487
180.80292,0.47803
180.56185,0.48098
180.32078,0.48350
180.07971,0.48565
179.83864,0.48772
179.59756,0.49066
179.35649,0.49587
179.11542,0.50344
178.87435,0.51127
178.63328,0.51720
178.39221,0.52178
178.15114,0.52747
177.91007,0.53566
177.66900,0.54563
177.42793,0.55608
177.18686,0.56692
176.94579,0.57915
176.70472,0.59367
176.46365,0.61066
176.22258,0.62971
175.98151,0.64936
175.74044,0.66775
175.49937,0.68498
175.25829,0.70288
175.01722,0.72112
174.77615,0.73764
174.53508,0.75360
174.29401,0.77285
174.05294,0.79500
173.81187,0.81407
173.57080,0.82565
173.32973,0.83178
173.08866,0.83820
172.84759,0.84862
172.60652,0.86076
172.36545,0.86807
172.12438,0.86767
171.88331,0.86419
171.64224,0.86388
171.40117,0.86775
171.16010,0.87208
170.91902,0.87478
170.67795,0.87725
170.43688,0.87953
170.19581,0.87708
169.95474,0.86573
169.71367,0.84827
169.47260,0.83160
169.23153,0.82063
168.99046,0.81684
168.74939,0.81811
168.50832,0.81881
168.26725,0.81489
168.02618,0.80932
167.78511,0.80737
167.54404,0.80871
167.30297,0.80843
167.06190,0.80443
166.82083,0.79991
166.57975,0.79942
166.33868,0.80519
166.09761,0.81609
165.85654,0.82821
165.61547,0.83690
165.37440,0.84038
165.13333,0.84151
164.89226,0.84478
164.65119,0.85169
164.41012,0.85962
164.16905,0.86635
163.92798,0.87475
163.68691,0.88957
163.44584,0.90966
163.20477,0.92679
162.96370,0.93497
162.72263,0.93856
162.48156,0.94574
162.24048,0.95605
161.99941,0.96049
161.75834,0.95433
161.51727,0.94425
161.27620,0.93959
161.03513,0.94203
160.79406,0.94707
160.55299,0.95108
160.31192,0.95284
160.07085,0.95166
159.82978,0.94773
159.58871,0.94231
159.34764,0.93601
159.10657,0.92830
158.86550,0.92018
158.62443,0.91481
158.38336,0.91312
158.14229,0.91072
157.90121,0.90290
157.66014,0.89185
157.41907,0.88369
157.17800,0.88069
156.93693,0.88090
156.69586,0.88218
156.45479,0.88328
156.21372,0.88322
155.97265,0.88164
155.73158,0.87811
155.49051,0.87237
155.24944,0.86500
155.00837,0.85602
154.76730,0.84357
154.52623,0.82655
154.28516,0.80778
154.04409,0.79176
153.80302,0.77941
153.56194,0.76723
153.32087,0.75191
153.07980,0.73406
152.83873,0.71622
152.59766,0.69910
152.35659,0.68211
152.11552,0.66545
151.87445,0.64912
151.63338,0.63251
151.39231,0.61653
151.15124,0.60323
150.91017,0.59188
150.66910,0.57897
150.42803,0.56372
150.18696,0.54985
149.94589,0.54019
149.70482,0.53311
149.46375,0.52550
149.22267,0.51669
148.98160,0.50815
148.74053,0.50054
148.49946,0.49299
148.25839,0.48497
148.01732,0.47750
147.77625,0.47250
147.53518,0.47096
147.29411,0.47162
147.05304,0.47190
146.81197,0.47077
146.57090,0.46959
146.32983,0.46980
146.08876,0.47132
145.84769,0.47375
145.60662,0.47737
145.36555,0.48235
145.12448,0.48782
144.88340,0.49234
144.64233,0.49548
144.40126,0.49893
144.16019,0.50513
143.91912,0.51360
143.67805,0.51947
143.43698,0.51789
143.19591,0.50986
142.95484,0.50067
142.71377,0.49302
142.47270,0.48507
142.23163,0.47519
141.99056,0.46521
141.74949,0.45767
141.50842,0.45266
141.26735,0.44893
141.02628,0.44594
140.78521,0.44356
140.54413,0.44151
140.30306,0.43976
140.06199,0.43864
139.82092,0.43856
139.57985,0.44030
139.33878,0.44482
139.09771,0.45183
138.85664,0.45933
138.61557,0.46552
138.37450,0.47059
138.13343,0.47619
137.89236,0.48378
137.65129,0.49365
137.41022,0.50530
137.16915,0.51850
136.92808,0.53403
136.68701,0.55264
136.44594,0.57367
136.20486,0.59555
135.96379,0.61724
135.72272,0.63863
135.48165,0.66049
135.24058,0.68470
134.99951,0.71366
134.75844,0.74797
134.51737,0.78356
134.27630,0.81260
134.03523,0.83085
133.79416,0.84396
133.55309,0.86181
133.31202,0.88687
133.07095,0.91169
132.82988,0.92922
132.58881,0.94109
132.34774,0.95096
132.10667,0.95687
131.86559,0.95669
131.62452,0.95348
131.38345,0.95079
131.14238,0.94622
130.90131,0.93313
130.66024,0.90919
130.41917,0.87904
130.17810,0.84717
129.93703,0.81410
129.69596,0.77943
129.45489,0.74351
129.21382,0.70747
128.97275,0.67489
128.73168,0.65035
128.49061,0.63298
128.24954,0.61544
128.00847,0.59141
127.76740,0.56204
127.52632,0.53335
127.28525,0.50863
127.04418,0.48655
126.80311,0.46541
126.56204,0.44581
126.32097,0.42897
126.07990,0.41545
125.83883,0.40540
125.59776,0.39798
125.35669,0.39098
125.11562,0.38295
124.87455,0.37467
124.63348,0.36739
124.39241,0.36105
124.15134,0.35491
123.91027,0.34864
123.66920,0.34265
123.42812,0.33771
123.18705,0.33442
122.94598,0.33316
122.70491,0.33402
122.46384,0.33608
122.22277,0.33785
121.98170,0.33876
121.74063,0.33912
121.49956,0.33915
121.25849,0.33978
121.01742,0.34291
120.77635,0.34963
120.53528,0.35919
120.29421,0.37055
120.05314,0.38356
119.81207,0.39820
119.57100,0.41390
119.32993,0.43042
119.08885,0.44924
118.84778,0.47287
118.60671,0.50149
118.36564,0.53107
118.12457,0.55674
117.88350,0.57767
117.64243,0.59686
117.40136,0.61557
117.16029,0.63047
116.91922,0.63770
116.67815,0.63772
116.43708,0.63322
116.19601,0.62470
115.95494,0.61276
115.71387,0.60136
115.47280,0.59351
115.23173,0.58676
114.99066,0.57610
114.74958,0.56052
114.50851,0.54483
114.26744,0.53442
114.02637,0.52915
113.78530,0.52514
113.54423,0.52181
113.30316,0.52216
113.06209,0.52657
112.82102,0.53117
112.57995,0.53368
112.33888,0.53600
112.09781,0.54004
111.85674,0.54549
111.61567,0.55274
111.37460,0.56401
111.13353,0.57862
110.89246,0.59034
110.65139,0.59432
110.41031,0.59283
110.16924,0.58916
109.92817,0.58163
109.68710,0.56739
109.44603,0.54716
109.20496,0.52373
108.96389,0.49979
108.72282,0.47804
108.48175,0.46009
108.24068,0.44508
107.99961,0.43124
107.75854,0.41768
107.51747,0.40340
107.27640,0.38717
107.03533,0.37002
106.79426,0.35506
106.55319,0.34356
106.31212,0.33399
106.07104,0.32495
105.82997,0.31622
105.58890,0.30748
105.34783,0.29840
105.10676,0.28944
104.86569,0.28093
104.62462,0.27209
104.38355,0.26226
104.14248,0.25254
103.90141,0.24489
103.66034,0.23982
103.41927,0.23585
103.17820,0.23156
102.93713,0.22690
102.69606,0.22239
102.45499,0.21840
102.21392,0.21553
101.97285,0.21406
101.73177,0.21302
101.49070,0.21101
101.24963,0.20783
101.00856,0.20435
100.76749,0.20079
100.52642,0.19622
100.28535,0.19051
100.04428,0.18576
99.80321,0.18446
99.56214,0.18671
99.32107,0.18998
99.08000,0.19188
98.83893,0.19220
98.59786,0.19177
98.35679,0.19057
98.11572,0.18833
97.87465,0.18597
97.63358,0.18476
97.39250,0.18455
97.15143,0.18446
96.91036,0.18544
96.66929,0.18983
96.42822,0.19825
96.18715,0.20847
95.94608,0.21810
95.70501,0.22683
95.46394,0.23508
95.22287,0.24201
94.98180,0.24659
94.74073,0.24954
94.49966,0.25283
94.25859,0.25763
94.01752,0.26307
93.77645,0.26637
93.53538,0.26496
93.29431,0.25951
93.05323,0.25390
92.81216,0.25164
92.57109,0.25273
92.33002,0.25483
92.08895,0.25675
91.84788,0.25948
91.60681,0.26456
91.36574,0.27331
91.12467,0.28679
90.88360,0.30539
90.64253,0.32904
90.40146,0.35803
90.16039,0.39285
89.91932,0.43252
89.67825,0.47326
89.43718,0.51028
89.19611,0.54063
88.95504,0.56277
88.71396,0.57385
88.47289,0.57111
88.23182,0.55535
87.99075,0.52966
87.74968,0.49669
87.50861,0.45972
87.26754,0.42288
87.02647,0.38809
86.78540,0.35486
86.54433,0.32373
86.30326,0.29702
86.06219,0.27572
85.82112,0.25831
85.58005,0.24296
85.33898,0.22882
85.09791,0.21537
84.85684,0.20226
84.61577,0.18989
84.37469,0.17881
84.13362,0.16877
83.89255,0.15908
83.65148,0.14991
83.41041,0.14250
83.16934,0.13797
82.92827,0.13609
82.68720,0.13554
82.44613,0.13490
82.20506,0.13312
81.96399,0.12972
81.72292,0.12534
81.48185,0.12167
81.24078,0.11979
80.99971,0.11919
80.75864,0.11894
80.51757,0.11847
80.27650,0.11699
80.03542,0.11384
79.79435,0.10981
79.55328,0.10690
79.31221,0.10619
79.07114,0.10669
78.83007,0.10658
78.58900,0.10554
78.34793,0.10474
78.10686,0.10441
77.86579,0.10321
77.62472,0.10104
77.38365,0.09979
77.14258,0.10019
76.90151,0.10059
76.66044,0.09962
76.41937,0.09797
76.17830,0.09679
75.93723,0.09609
75.69615,0.09523
75.45508,0.09411
75.21401,0.09348
74.97294,0.09353
74.73187,0.09306
74.49080,0.09123
74.24973,0.08944
74.00866,0.08985
73.76759,0.09246
73.52652,0.09535
73.28545,0.09709
73.04438,0.09791
72.80331,0.09866
72.56224,0.09915
72.32117,0.09812
72.08010,0.09574
71.83903,0.09478
71.59796,0.09737
71.35688,0.10200
71.11581,0.10597
70.87474,0.10972
70.63367,0.11577
70.39260,0.12441
70.15153,0.13366
69.91046,0.14312
69.66939,0.15417
69.42832,0.16565
69.18725,0.17311
68.94618,0.17350
68.70511,0.16798
68.46404,0.15927
68.22297,0.14876
67.98190,0.13698
67.74083,0.12489
67.49976,0.11372
67.25869,0.10421
67.01761,0.09671
66.77654,0.09161
66.53547,0.08885
66.29440,0.08742
66.05333,0.08642
65.81226,0.08613
65.57119,0.08714
65.33012,0.08917
65.08905,0.09115
64.84798,0.09249
64.60691,0.09412
64.36584,0.09744
64.12477,0.10188
63.88370,0.10522
63.64263,0.10651
63.40156,0.10600
63.16049,0.10324
62.91942,0.09851
62.67834,0.09402
62.43727,0.09068
62.19620,0.08632
61.95513,0.07995
61.71406,0.07419
61.47299,0.07147
61.23192,0.07061
60.99085,0.06885
60.74978,0.06549
60.50871,0.06253
60.26764,0.06216
60.02657,0.06429
59.78550,0.06684
59.54443,0.06880
59.30336,0.07146
59.06229,0.07501
58.82122,0.07666
58.58015,0.07473
58.33907,0.07177
58.09800,0.07104
57.85693,0.07210
57.61586,0.07188
57.37479,0.06852
57.13372,0.06278
56.89265,0.05714
56.65158,0.05381
56.41051,0.05268
56.16944,0.05209
55.92837,0.05167
55.68730,0.05275
55.44623,0.05558
55.20516,0.05810
54.96409,0.05793
54.72302,0.05431
54.48195,0.04869
54.24088,0.04438
53.99980,0.04482
53.75873,0.05068
53.51766,0.05889
53.27659,0.06491
53.03552,0.06612
52.79445,0.06366
52.55338,0.06086
52.31231,0.05879
52.07124,0.05541
51.83017,0.05030
51.58910,0.04731
51.34803,0.04936
51.10696,0.05327
50.86589,0.05318
50.62482,0.04780
50.38375,0.04155
50.14268,0.03874
49.90161,0.03845
49.66053,0.03692
49.41946,0.03358
49.17839,0.03144
48.93732,0.03282
48.69625,0.03736
48.45518,0.04200
48.21411,0.04203
47.97304,0.03458
47.73197,0.02228
47.49090,0.01185
47.24983,0.00689
47.00876,0.00442
46.76769,0.00183
46.52662,0.00239
46.28555,0.00949
46.04448,0.01879
45.80341,0.02234
45.56234,0.01903
45.32126,0.01538
45.08019,0.01522
44.83912,0.01293
44.59805,0.00186
44.35698,-0.01239
44.11591,-0.01667
43.87484,-0.00689
43.63377,0.00860
43.39270,0.02007
43.15163,0.02481
42.91056,0.02406
42.66949,0.01971
42.42842,0.01522
42.18735,0.01192
41.94628,0.00629
41.70521,-0.00232
41.46414,-0.00773
41.22307,-0.00723
40.98199,-0.00623
40.74092,-0.00685
40.49985,-0.00372
40.25878,0.00362
40.01771,0.00675
39.77664,0.00123
39.53557,-0.00689
39.29450,-0.01088
39.05343,-0.00896
38.81236,-0.00042
38.57129,0.01322
38.33022,0.02500
38.08915,0.02728
37.84808,0.01979
37.60701,0.00757
37.36594,-0.00749
37.12487,-0.02318
36.88380,-0.03084
36.64272,-0.02592
36.40165,-0.01584
36.16058,-0.00717
35.91951,0.00433
35.67844,0.02157
35.43737,0.03345
35.19630,0.03046
34.95523,0.02417
34.71416,0.03066
34.47309,0.04258
34.23202,0.04211
33.99095,0.03182
33.74988,0.03133
33.50881,0.04640
33.26774,0.06378
33.02667,0.07261
32.78560,0.08008
32.54453,0.10146
32.30345,0.12511
32.06238,0.12163
31.82131,0.08590
31.58024,0.04040
31.33917,0.00900
31.09810,-0.00349
30.85703,-0.00840
30.61596,-0.01583
30.37489,-0.02682
30.13382,-0.03598
29.89275,-0.03304
29.65168,-0.01355
29.41061,0.01186
29.16954,0.02655
28.92847,0.02524
28.68740,0.02327
28.44633,0.03709
28.20526,0.06507
27.96418,0.09984
27.72311,0.14130
27.48204,0.17962
27.24097,0.18365
26.99990,0.15092
26.75883,0.11335
26.51776,0.09607
26.27669,0.11684
26.03562,0.17826
25.79455,0.24511
25.55348,0.27871
25.31241,0.27638
25.07134,0.24890
24.83027,0.21925
24.58920,0.19881
24.34813,0.17766
24.10706,0.15104
23.86599,0.13136
23.62491,0.13509
23.38384,0.17641
23.14277,0.25171
22.90170,0.30040
22.66063,0.28576
22.41956,0.25097
22.17849,0.25633
21.93742,0.31702
21.69635,0.40388
21.45528,0.45079
21.21421,0.44035
20.97314,0.40782
20.73207,0.37701
20.49100,0.34317
20.24993,0.29450
20.00886,0.23819
19.76779,0.22232
19.52672,0.32278
19.28564,0.52998
19.04457,0.65847
18.80350,0.66471
18.56243,0.71882
18.32136,0.71178
18.08029,0.67700
17.83922,0.74352
17.59815,0.82646
17.35708,0.84602
17.11601,0.91725
16.87494,1.02666
16.63387,0.92987
16.39280,0.72827
16.15173,0.64459
15.91066,0.64039
15.66959,0.73750
15.42852,0.84814
15.18745,0.90059
14.94637,0.88606
14.70530,0.80261
14.46423,0.61613
14.22316,0.53217
13.98209,0.59872
13.74102,0.65445
13.49995,0.59165
13.25888,0.57442
13.01781,0.58996
12.77674,0.53780
12.53567,0.49745
12.29460,0.44890
12.05353,0.38767
11.81246,0.36208
11.57139,0.39551
11.33032,0.48355
11.08925,0.64913
10.84818,0.77855
10.60710,0.72079
10.36603,0.63854
10.12496,0.59354
9.88389,0.57685
9.64282,0.61825
9.40175,0.63297
9.16068,0.63176
8.91961,0.72739
8.67854,0.80687
8.43747,0.81932
8.19640,0.93315
7.95533,1.03616
7.71426,0.86011
7.47319,0.61053
7.23212,0.56722
6.99105,0.66894
6.74998,0.81785
6.50891,0.88773
6.26783,0.74166
6.02676,0.58741
5.78569,0.57529
5.54462,0.65525
5.30355,0.79244
5.06248,1.15562
4.82141,1.75992
4.58034,1.03517
4.33927,0.61192
4.09820,0.47668
3.85713,0.47507
3.61606,0.53148
3.37499,0.63357
3.13392,0.68504
2.89285,0.73048
2.65178,0.92024
2.41071,0.86434
2.16964,0.70471
1.92856,0.64777
1.68749,0.74278
1.44642,0.88720
1.20535,0.80661
0.96428,0.66982
0.72321,0.60389
0.48214,0.49101
0.24107,0.47324
-0.00000,0.50849
