399.69498,1.53093
399.45391,1.54116
399.21284,1.54882
398.97177,1.55291
398.73070,1.55417
398.48963,1.55103
398.24856,1.54216
398.00749,1.53282
397.76642,1.53192
397.52535,1.53908
397.28428,1.54370
397.04321,1.53852
396.80214,1.52603
396.56107,1.51385
396.32000,1.50848
396.07892,1.51357
395.83785,1.52776
395.59678,1.54384
395.35571,1.55401
395.11464,1.55500
394.87357,1.55238
394.63250,1.55394
394.39143,1.55868
394.15036,1.55967
393.90929,1.55363
393.66822,1.54294
393.42715,1.53242
393.18608,1.52858
392.94501,1.53442
392.70394,1.54115
392.46287,1.53535
392.22180,1.51574
391.98073,1.49494
391.73965,1.48487
391.49858,1.48754
391.25751,1.49746
391.01644,1.50747
390.77537,1.51344
390.53430,1.51657
390.29323,1.51839
390.05216,1.51579
389.81109,1.50501
389.57002,1.48852
389.32895,1.47927
389.08788,1.48826
388.84681,1.51073
388.60574,1.53074
388.36467,1.53512
388.12360,1.52348
387.88253,1.50597
387.64146,1.49121
387.40038,1.48153
387.15931,1.47915
386.91824,1.48559
386.67717,1.49226
386.43610,1.48412
386.19503,1.45989
385.95396,1.43481
385.71289,1.42064
385.47182,1.41613
385.23075,1.41646
384.98968,1.42006
384.74861,1.42275
384.50754,1.41861
384.26647,1.40637
384.02540,1.38969
383.78433,1.37324
383.54326,1.36042
383.30219,1.35289
383.06111,1.34889
382.82004,1.34547
382.57897,1.34184
382.33790,1.33720
382.09683,1.32825
381.85576,1.31031
381.61469,1.28713
381.37362,1.27389
381.13255,1.27742
380.89148,1.28519
380.65041,1.28356
380.40934,1.27454
380.16827,1.26290
379.92720,1.24702
379.68613,1.23002
379.44506,1.22182
379.20399,1.22646
378.96292,1.23775
378.72184,1.24956
378.48077,1.26225
378.23970,1.27779
377.99863,1.29591
377.75756,1.31729
377.51649,1.34562
377.27542,1.38116
377.03435,1.41346
376.79328,1.42694
376.55221,1.41967
376.31114,1.40742
376.07007,1.40657
375.82900,1.42194
375.58793,1.44414
375.34686,1.45456
375.10579,1.44169
374.86472,1.41454
374.62365,1.39425
374.38257,1.39336
374.14150,1.40599
373.90043,1.41444
373.65936,1.40874
373.41829,1.39697
373.17722,1.39052
372.93615,1.38910
372.69508,1.38588
372.45401,1.37937
372.21294,1.37134
371.97187,1.35990
371.73080,1.34660
371.48973,1.34136
371.24866,1.34910
371.00759,1.35928
370.76652,1.35846
370.52545,1.34877
370.28437,1.34204
370.04330,1.34102
369.80223,1.33752
369.56116,1.32608
369.32009,1.31123
369.07902,1.30025
368.83795,1.29432
368.59688,1.28966
368.35581,1.28422
368.11474,1.27974
367.87367,1.27751
367.63260,1.27554
367.39153,1.27294
367.15046,1.27259
366.90939,1.27519
366.66832,1.27684
366.42725,1.27497
366.18618,1.27065
365.94510,1.26452
365.70403,1.25658
365.46296,1.24865
365.22189,1.24266
364.98082,1.23794
364.73975,1.23319
364.49868,1.22951
364.25761,1.22974
364.01654,1.23499
363.77547,1.24148
363.53440,1.24273
363.29333,1.23716
363.05226,1.23000
362.81119,1.22498
362.57012,1.21922
362.32905,1.20999
362.08798,1.20151
361.84691,1.20027
361.60583,1.20593
361.36476,1.21017
361.12369,1.20563
360.88262,1.19505
360.64155,1.18740
360.40048,1.18747
360.15941,1.19250
359.91834,1.19714
359.67727,1.19868
359.43620,1.19765
359.19513,1.19649
358.95406,1.19797
358.71299,1.20224
358.47192,1.20570
358.23085,1.20520
357.98978,1.20138
357.74871,1.19678
357.50764,1.19377
357.26656,1.19405
357.02549,1.19719
356.78442,1.20104
356.54335,1.20502
356.30228,1.21053
356.06121,1.21702
355.82014,1.22101
355.57907,1.22091
355.33800,1.21826
355.09693,1.21355
354.85586,1.20512
354.61479,1.19442
354.37372,1.18754
354.13265,1.18833
353.89158,1.19344
353.65051,1.19686
353.40944,1.19794
353.16837,1.19993
352.92729,1.20297
352.68622,1.20533
352.44515,1.20785
352.20408,1.21231
351.96301,1.21761
351.72194,1.22143
351.48087,1.22351
351.23980,1.22483
350.99873,1.22519
350.75766,1.22345
350.51659,1.22070
350.27552,1.22009
350.03445,1.22153
349.79338,1.21983
349.55231,1.21211
349.31124,1.20435
349.07017,1.20502
348.82910,1.21417
348.58802,1.22332
348.34695,1.22696
348.10588,1.22971
347.86481,1.23826
347.62374,1.25063
347.38267,1.25785
347.14160,1.25538
346.90053,1.24781
346.65946,1.24204
346.41839,1.24126
346.17732,1.24469
345.93625,1.24963
345.69518,1.25388
345.45411,1.25754
345.21304,1.26149
344.97197,1.26468
344.73090,1.26632
344.48983,1.26999
344.24875,1.27972
344.00768,1.29258
343.76661,1.30092
343.52554,1.30187
343.28447,1.30008
343.04340,1.30237
342.80233,1.31164
342.56126,1.32282
342.32019,1.32724
342.07912,1.32356
341.83805,1.31922
341.59698,1.31870
341.35591,1.31946
341.11484,1.32134
340.87377,1.32803
340.63270,1.33559
340.39163,1.33419
340.15056,1.32584
339.90948,1.32476
339.66841,1.33775
339.42734,1.35661
339.18627,1.37015
338.94520,1.37763
338.70413,1.38652
338.46306,1.40136
338.22199,1.41906
337.98092,1.42990
337.73985,1.42428
337.49878,1.40557
337.25771,1.39066
337.01664,1.39169
336.77557,1.40565
336.53450,1.42292
336.29343,1.43798
336.05236,1.44892
335.81129,1.45217
335.57021,1.44432
335.32914,1.42893
335.08807,1.41389
334.84700,1.40243
334.60593,1.39183
334.36486,1.37978
334.12379,1.36883
333.88272,1.36379
333.64165,1.36676
333.40058,1.37699
333.15951,1.39283
332.91844,1.40841
332.67737,1.41217
332.43630,1.39823
332.19523,1.37387
331.95416,1.35097
331.71309,1.33789
331.47202,1.33581
331.23094,1.33810
330.98987,1.33625
330.74880,1.32910
330.50773,1.32202
330.26666,1.31686
330.02559,1.31046
329.78452,1.30286
329.54345,1.29787
329.30238,1.29666
329.06131,1.29614
328.82024,1.29241
328.57917,1.28487
328.33810,1.27803
328.09703,1.27856
327.85596,1.28860
327.61489,1.30315
327.37382,1.31575
327.13275,1.32399
326.89167,1.32723
326.65060,1.32361
326.40953,1.31317
326.16846,1.30103
325.92739,1.29375
325.68632,1.29361
325.44525,1.29740
325.20418,1.29976
324.96311,1.29930
324.72204,1.29963
324.48097,1.30325
324.23990,1.30943
323.99883,1.31635
323.75776,1.31994
323.51669,1.31510
323.27562,1.30416
323.03455,1.29824
322.79348,1.30379
322.55240,1.31269
322.31133,1.31360
322.07026,1.30978
321.82919,1.31428
321.58812,1.33089
321.34705,1.35061
321.10598,1.36365
320.86491,1.36607
320.62384,1.35858
320.38277,1.34657
320.14170,1.33995
319.90063,1.34673
319.65956,1.36530
319.41849,1.38409
319.17742,1.38782
318.93635,1.37139
318.69528,1.34856
318.45421,1.33691
318.21313,1.33708
317.97206,1.33516
317.73099,1.32690
317.48992,1.32415
317.24885,1.33073
317.00778,1.33370
316.76671,1.32764
316.52564,1.32577
316.28457,1.33694
316.04350,1.35357
315.80243,1.36274
315.56136,1.35842
315.32029,1.34627
315.07922,1.33875
314.83815,1.34623
314.59708,1.36779
314.35601,1.38872
314.11494,1.39837
313.87386,1.40465
313.63279,1.41560
313.39172,1.42372
313.15065,1.42005
312.90958,1.41021
312.66851,1.40162
312.42744,1.39409
312.18637,1.38866
311.94530,1.39298
311.70423,1.40798
311.46316,1.41974
311.22209,1.41654
310.98102,1.40434
310.73995,1.39636
310.49888,1.39784
310.25781,1.40733
310.01674,1.42495
309.77567,1.45001
309.53459,1.47164
309.29352,1.47772
309.05245,1.47200
308.81138,1.46460
308.57031,1.45699
308.32924,1.44709
308.08817,1.43877
307.84710,1.43714
307.60603,1.44013
307.36496,1.44128
307.12389,1.43767
306.88282,1.43262
306.64175,1.43215
306.40068,1.43904
306.15961,1.44854
305.91854,1.45047
305.67747,1.43962
305.43640,1.42313
305.19532,1.41238
304.95425,1.41029
304.71318,1.41117
304.47211,1.40948
304.23104,1.40699
303.98997,1.40742
303.74890,1.40589
303.50783,1.39306
303.26676,1.37102
303.02569,1.35507
302.78462,1.35516
302.54355,1.36551
302.30248,1.37449
302.06141,1.37636
301.82034,1.37186
301.57927,1.36374
301.33820,1.35356
301.09713,1.34089
300.85605,1.32738
300.61498,1.31701
300.37391,1.30971
300.13284,1.30129
299.89177,1.29085
299.65070,1.28164
299.40963,1.27474
299.16856,1.26891
298.92749,1.26389
298.68642,1.25951
298.44535,1.25458
298.20428,1.24812
297.96321,1.24035
297.72214,1.23275
297.48107,1.22794
297.24000,1.22827
296.99893,1.23264
296.75786,1.23597
296.51678,1.23364
296.27571,1.22623
296.03464,1.21815
295.79357,1.21275
295.55250,1.20963
295.31143,1.20639
295.07036,1.20116
294.82929,1.19370
294.58822,1.18578
294.34715,1.18040
294.10608,1.17916
293.86501,1.18011
293.62394,1.17914
293.38287,1.17459
293.14180,1.16975
292.90073,1.16867
292.65966,1.17076
292.41859,1.17172
292.17751,1.16815
291.93644,1.16065
291.69537,1.15306
291.45430,1.14862
291.21323,1.14711
290.97216,1.14557
290.73109,1.14130
290.49002,1.13484
290.24895,1.12944
290.00788,1.12782
289.76681,1.13006
289.52574,1.13332
289.28467,1.13416
289.04360,1.13221
288.80253,1.13033
288.56146,1.13030
288.32039,1.12968
288.07932,1.12529
287.83824,1.11873
287.59717,1.11488
287.35610,1.11558
287.11503,1.11745
286.87396,1.11632
286.63289,1.11227
286.39182,1.10875
286.15075,1.10853
285.90968,1.11157
285.66861,1.11480
285.42754,1.11412
285.18647,1.10847
284.94540,1.10120
284.70433,1.09593
284.46326,1.09334
284.22219,1.09268
283.98112,1.09326
283.74005,1.09440
283.49897,1.09588
283.25790,1.09827
283.01683,1.10188
282.77576,1.10536
282.53469,1.10623
282.29362,1.10344
282.05255,1.09913
281.81148,1.09604
281.57041,1.09434
281.32934,1.09336
281.08827,1.09414
280.84720,1.09792
280.60613,1.10301
280.36506,1.10523
280.12399,1.10265
279.88292,1.09855
279.64185,1.09742
279.40078,1.09911
279.15970,1.09973
278.91863,1.09727
278.67756,1.09384
278.43649,1.09229
278.19542,1.09321
277.95435,1.09565
277.71328,1.09966
277.47221,1.10573
277.23114,1.11119
276.99007,1.11076
276.74900,1.10343
276.50793,1.09525
276.26686,1.09255
276.02579,1.09589
275.78472,1.10190
275.54365,1.10776
275.30258,1.11226
275.06151,1.11525
274.82043,1.11739
274.57936,1.11866
274.33829,1.11815
274.09722,1.11691
273.85615,1.11868
273.61508,1.12515
273.37401,1.13268
273.13294,1.13654
272.89187,1.13694
272.65080,1.13778
272.40973,1.14132
272.16866,1.14636
271.92759,1.15086
271.68652,1.15429
271.44545,1.15814
271.20438,1.16412
270.96331,1.17116
270.72224,1.17628
270.48116,1.17873
270.24009,1.18036
269.99902,1.18133
269.75795,1.17963
269.51688,1.17559
269.27581,1.17327
269.03474,1.17617
268.79367,1.18380
268.55260,1.19291
268.31153,1.20140
268.07046,1.20955
267.82939,1.21753
267.58832,1.22316
267.34725,1.22461
267.10618,1.22482
266.86511,1.22856
266.62404,1.23561
266.38297,1.24109
266.14189,1.24343
265.90082,1.24813
265.65975,1.26149
265.41868,1.28240
265.17761,1.30274
264.93654,1.31640
264.69547,1.32425
264.45440,1.33055
264.21333,1.33864
263.97226,1.34976
263.73119,1.36318
263.49012,1.37716
263.24905,1.39236
263.00798,1.41236
262.76691,1.43712
262.52584,1.45977
262.28477,1.47454
262.04370,1.48467
261.80262,1.49851
261.56155,1.52035
261.32048,1.54737
261.07941,1.57188
260.83834,1.58731
260.59727,1.59531
260.35620,1.60450
260.11513,1.62233
259.87406,1.64861
259.63299,1.67842
259.39192,1.71019
259.15085,1.74521
258.90978,1.77960
258.66871,1.80404
258.42764,1.81615
258.18657,1.82096
257.94550,1.82047
257.70443,1.81692
257.46335,1.81398
257.22228,1.81322
256.98121,1.81433
256.74014,1.81136
256.49907,1.79475
256.25800,1.76613
256.01693,1.73870
255.77586,1.72494
255.53479,1.72585
255.29372,1.73165
255.05265,1.73310
254.81158,1.72875
254.57051,1.71870
254.32944,1.69842
254.08837,1.66753
253.84730,1.63570
253.60623,1.61044
253.36516,1.59188
253.12408,1.58174
252.88301,1.58386
252.64194,1.59330
252.40087,1.59732
252.15980,1.59241
251.91873,1.58625
251.67766,1.58413
251.43659,1.58642
251.19552,1.59224
250.95445,1.59722
250.71338,1.59444
250.47231,1.58363
250.23124,1.57315
249.99017,1.56974
249.74910,1.57131
249.50803,1.57229
249.26696,1.57239
249.02589,1.57405
248.78481,1.57604
248.54374,1.57366
248.30267,1.56376
248.06160,1.55101
247.82053,1.54511
247.57946,1.54903
247.33839,1.55562
247.09732,1.55770
246.85625,1.55498
246.61518,1.55160
246.37411,1.55129
246.13304,1.55407
245.89197,1.55789
245.65090,1.56467
245.40983,1.58020
245.16876,1.60582
244.92769,1.63583
244.68661,1.66516
244.44554,1.69418
244.20447,1.72386
243.96340,1.75240
243.72233,1.78060
243.48126,1.81286
243.24019,1.85283
242.99912,1.89967
242.75805,1.95406
242.51698,2.00167
242.27591,1.94573
242.03484,1.80295
241.79377,1.67540
241.55270,1.57934
241.31163,1.49752
241.07056,1.42172
240.82949,1.35689
240.58842,1.30755
240.34734,1.26893
240.10627,1.23135
239.86520,1.18992
239.62413,1.14787
239.38306,1.11082
239.14199,1.08075
238.90092,1.05572
238.65985,1.03371
238.41878,1.01454
238.17771,0.99821
237.93664,0.98255
237.69557,0.96434
237.45450,0.94313
237.21343,0.92267
236.97236,0.90738
236.73129,0.89791
236.49022,0.89086
236.24915,0.88229
236.00807,0.87190
235.76700,0.86279
235.52593,0.85662
235.28486,0.85137
235.04379,0.84473
234.80272,0.83803
234.56165,0.83434
234.32058,0.83313
234.07951,0.83051
233.83844,0.82495
233.59737,0.81913
233.35630,0.81516
233.11523,0.81201
232.87416,0.80886
232.63309,0.80691
232.39202,0.80677
232.15095,0.80689
231.90988,0.80553
231.66880,0.80282
231.42773,0.80036
231.18666,0.79925
230.94559,0.79817
230.70452,0.79464
230.46345,0.78891
230.22238,0.78448
229.98131,0.78376
229.74024,0.78535
229.49917,0.78689
229.25810,0.78860
229.01703,0.79173
228.77596,0.79481
228.53489,0.79462
228.29382,0.79091
228.05275,0.78696
227.81168,0.78494
227.57061,0.78331
227.32953,0.78003
227.08846,0.77599
226.84739,0.77356
226.60632,0.77344
226.36525,0.77450
226.12418,0.77605
225.88311,0.77823
225.64204,0.78084
225.40097,0.78334
225.15990,0.78593
224.91883,0.78899
224.67776,0.79204
224.43669,0.79480
224.19562,0.79802
223.95455,0.80159
223.71348,0.80418
223.47241,0.80652
223.23134,0.81189
222.99026,0.82101
222.74919,0.83024
222.50812,0.83707
222.26705,0.84344
222.02598,0.85115
221.78491,0.85821
221.54384,0.86277
221.30277,0.86637
221.06170,0.87101
220.82063,0.87702
220.57956,0.88506
220.33849,0.89629
220.09742,0.90941
219.85635,0.92072
219.61528,0.92866
219.37421,0.93675
219.13314,0.95006
218.89207,0.96896
218.65099,0.98789
218.40992,1.00179
218.16885,1.01208
217.92778,1.02379
217.68671,1.03906
217.44564,1.05580
217.20457,1.07066
216.96350,1.08251
216.72243,1.09398
216.48136,1.10915
216.24029,1.12898
215.99922,1.15074
215.75815,1.17149
215.51708,1.19029
215.27601,1.20730
215.03494,1.22167
214.79387,1.23172
214.55280,1.23874
214.31172,1.24810
214.07065,1.26425
213.82958,1.28532
213.58851,1.30440
213.34744,1.31554
213.10637,1.31777
212.86530,1.31510
212.62423,1.31382
212.38316,1.31984
212.14209,1.33614
211.90102,1.35936
211.65995,1.38022
211.41888,1.39201
211.17781,1.39672
210.93674,1.39914
210.69567,1.39993
210.45460,1.39791
210.21353,1.39367
209.97245,1.38844
209.73138,1.38281
209.49031,1.37817
209.24924,1.37682
209.00817,1.37914
208.76710,1.38152
208.52603,1.37781
208.28496,1.36472
208.04389,1.34615
207.80282,1.33006
207.56175,1.32270
207.32068,1.32515
207.07961,1.33185
206.83854,1.33324
206.59747,1.32295
206.35640,1.30363
206.11533,1.28345
205.87426,1.26640
205.63318,1.24965
205.39211,1.23031
205.15104,1.21028
204.90997,1.19329
204.66890,1.17967
204.42783,1.16547
204.18676,1.14799
203.94569,1.12965
203.70462,1.11377
203.46355,1.10038
203.22248,1.08785
202.98141,1.07521
202.74034,1.06168
202.49927,1.04620
202.25820,1.02812
202.01713,1.00746
201.77606,0.98559
201.53499,0.96499
201.29391,0.94676
201.05284,0.92956
200.81177,0.91239
200.57070,0.89629
200.32963,0.88212
200.08856,0.86885
199.84749,0.85540
199.60642,0.84236
199.36535,0.83042
199.12428,0.81844
198.88321,0.80495
198.64214,0.79053
198.40107,0.77730
198.16000,0.76650
197.91893,0.75768
197.67786,0.74949
197.43679,0.74019
197.19572,0.72875
196.95464,0.71638
196.71357,0.70597
196.47250,0.69911
196.23143,0.69442
195.99036,0.68891
195.74929,0.68068
195.50822,0.67010
195.26715,0.65965
195.02608,0.65233
194.78501,0.64899
194.54394,0.64668
194.30287,0.64134
194.06180,0.63266
193.82073,0.62431
193.57966,0.61947
193.33859,0.61779
193.09752,0.61595
192.85645,0.61078
192.61537,0.60243
192.37430,0.59445
192.13323,0.59024
191.89216,0.58986
191.65109,0.59043
191.41002,0.58902
191.16895,0.58534
190.92788,0.58141
190.68681,0.57849
190.44574,0.57531
190.20467,0.57020
189.96360,0.56431
189.72253,0.56095
189.48146,0.56156
189.24039,0.56362
188.99932,0.56343
188.75825,0.56055
188.51718,0.55785
188.27610,0.55682
188.03503,0.55525
187.79396,0.55094
187.55289,0.54595
187.31182,0.54434
187.07075,0.54688
186.82968,0.55017
186.58861,0.55104
186.34754,0.55004
186.10647,0.54932
185.86540,0.54909
185.62433,0.54853
185.38326,0.54844
185.14219,0.55053
184.90112,0.55461
184.66005,0.55877
184.41898,0.56168
184.17791,0.56349
183.93683,0.56461
183.69576,0.56497
183.45469,0.56487
183.21362,0.56559
182.97255,0.56820
182.73148,0.57172
182.49041,0.57370
182.24934,0.57292
182.00827,0.57098
181.76720,0.57017
181.52613,0.57092
181.28506,0.57257
181.04399,0.57520
180.80292,0.57883
180.56185,0.58240
180.32078,0.58571
180.07971,0.59037
179.83864,0.59678
179.59756,0.60291
179.35649,0.60770
179.11542,0.61260
178.87435,0.61844
178.63328,0.62452
178.39221,0.63147
178.15114,0.64109
177.91007,0.65307
177.66900,0.66511
177.42793,0.67651
177.18686,0.68862
176.94579,0.70243
176.70472,0.71817
176.46365,0.73663
176.22258,0.75838
175.98151,0.78221
175.74044,0.80609
175.49937,0.82880
175.25829,0.85000
175.01722,0.87028
174.77615,0.89100
174.53508,0.91283
174.29401,0.93481
174.05294,0.95564
173.81187,0.97549
173.57080,0.99628
173.32973,1.01915
173.08866,1.04166
172.84759,1.05930
172.60652,1.07007
172.36545,1.07579
172.12438,1.07918
171.88331,1.08146
171.64224,1.08193
171.40117,1.07967
171.16010,1.07651
170.91902,1.07506
170.67795,1.07313
170.43688,1.06532
170.19581,1.05075
169.95474,1.03506
169.71367,1.02414
169.47260,1.01911
169.23153,1.01710
168.99046,1.01466
168.74939,1.01034
168.50832,1.00512
168.26725,1.00107
168.02618,0.99970
167.78511,1.00051
167.54404,1.00123
167.30297,1.00057
167.06190,0.99921
166.82083,0.99746
166.57975,0.99491
166.33868,0.99296
166.09761,0.99499
165.85654,1.00343
165.61547,1.01708
165.37440,1.03170
165.13333,1.04394
164.89226,1.05419
164.65119,1.06508
164.41012,1.07816
164.16905,1.09312
163.92798,1.10892
163.68691,1.12428
163.44584,1.13757
163.20477,1.14775
162.96370,1.15615
162.72263,1.16641
162.48156,1.18123
162.24048,1.19936
161.99941,1.21619
161.75834,1.22695
161.51727,1.22954
161.27620,1.22577
161.03513,1.22085
160.79406,1.22048
160.55299,1.22636
160.31192,1.23382
160.07085,1.23509
159.82978,1.22680
159.58871,1.21330
159.34764,1.20136
159.10657,1.19328
158.86550,1.18533
158.62443,1.17384
158.38336,1.16039
158.14229,1.14866
157.90121,1.14029
157.66014,1.13537
157.41907,1.13385
157.17800,1.13494
156.93693,1.13561
156.69586,1.13134
156.45479,1.12000
156.21372,1.10438
155.97265,1.08859
155.73158,1.07442
155.49051,1.06324
155.24944,1.05728
155.00837,1.05469
154.76730,1.04700
154.52623,1.02784
154.28516,1.00081
154.04409,0.97447
153.80302,0.95356
153.56194,0.93727
153.32087,0.92239
153.07980,0.90622
152.83873,0.88729
152.59766,0.86533
152.35659,0.84152
152.11552,0.81804
151.87445,0.79654
151.63338,0.77741
151.39231,0.76019
151.15124,0.74405
150.91017,0.72788
150.66910,0.71076
150.42803,0.69279
150.18696,0.67530
149.94589,0.65975
149.70482,0.64651
149.46375,0.63475
149.22267,0.62328
148.98160,0.61155
148.74053,0.60021
148.49946,0.59060
148.25839,0.58376
148.01732,0.57960
147.77625,0.57683
147.53518,0.57408
147.29411,0.57136
147.05304,0.57000
146.81197,0.57097
146.57090,0.57352
146.32983,0.57582
146.08876,0.57651
145.84769,0.57622
145.60662,0.57770
145.36555,0.58383
145.12448,0.59454
144.88340,0.60602
144.64233,0.61380
144.40126,0.61702
144.16019,0.61874
143.91912,0.62175
143.67805,0.62514
143.43698,0.62528
143.19591,0.62003
142.95484,0.61112
142.71377,0.60139
142.47270,0.59155
142.23163,0.58049
141.99056,0.56788
141.74949,0.55524
141.50842,0.54450
141.26735,0.53621
141.02628,0.52983
140.78521,0.52523
140.54413,0.52321
140.30306,0.52417
140.06199,0.52685
139.82092,0.52927
139.57985,0.53121
139.33878,0.53467
139.09771,0.54105
138.85664,0.54946
138.61557,0.55842
138.37450,0.56798
138.13343,0.57890
137.89236,0.59133
137.65129,0.60531
137.41022,0.62154
137.16915,0.64052
136.92808,0.66153
136.68701,0.68339
136.44594,0.70636
136.20486,0.73197
135.96379,0.76092
135.72272,0.79247
135.48165,0.82621
135.24058,0.86256
134.99951,0.90058
134.75844,0.93755
134.51737,0.97218
134.27630,1.00571
134.03523,1.03915
133.79416,1.07295
133.55309,1.10919
133.31202,1.14946
133.07095,1.19025
132.82988,1.22373
132.58881,1.24486
132.34774,1.25435
132.10667,1.25609
131.86559,1.25475
131.62452,1.25158
131.38345,1.24257
131.14238,1.22360
130.90131,1.19518
130.66024,1.16050
130.41917,1.12290
130.17810,1.08414
129.93703,1.04345
129.69596,1.00030
129.45489,0.95574
129.21382,0.91076
128.97275,0.86628
128.73168,0.82409
128.49061,0.78617
128.24954,0.75327
128.00847,0.72417
127.76740,0.69658
127.52632,0.66924
127.28525,0.64281
127.04418,0.61825
126.80311,0.59559
126.56204,0.57486
126.32097,0.55681
126.07990,0.54152
125.83883,0.52778
125.59776,0.51445
125.35669,0.50149
125.11562,0.48943
124.87455,0.47842
124.63348,0.46831
124.39241,0.45921
124.15134,0.45135
123.91027,0.44472
123.66920,0.43917
123.42812,0.43479
123.18705,0.43144
122.94598,0.42840
122.70491,0.42532
122.46384,0.42327
122.22277,0.42375
121.98170,0.42649
121.74063,0.42946
121.49956,0.43201
121.25849,0.43625
121.01742,0.44425
120.77635,0.45542
120.53528,0.46773
120.29421,0.48033
120.05314,0.49388
119.81207,0.50930
119.57100,0.52716
119.32993,0.54779
119.08885,0.57198
118.84778,0.60080
118.60671,0.63415
118.36564,0.66975
118.12457,0.70461
117.88350,0.73686
117.64243,0.76578
117.40136,0.79110
117.16029,0.81308
116.91922,0.83198
116.67815,0.84591
116.43708,0.85040
116.19601,0.84273
115.95494,0.82593
115.71387,0.80592
115.47280,0.78598
115.23173,0.76583
114.99066,0.74450
114.74958,0.72277
114.50851,0.70284
114.26744,0.68667
114.02637,0.67539
113.78530,0.66935
113.54423,0.66765
113.30316,0.66870
113.06209,0.67280
112.82102,0.68244
112.57995,0.69829
112.33888,0.71645
112.09781,0.73188
111.85674,0.74338
111.61567,0.75271
111.37460,0.76030
111.13353,0.76506
110.89246,0.76692
110.65139,0.76644
110.41031,0.76276
110.16924,0.75526
109.92817,0.74615
109.68710,0.73768
109.44603,0.72805
109.20496,0.71288
108.96389,0.68979
108.72282,0.66023
108.48175,0.62794
108.24068,0.59692
107.99961,0.56975
107.75854,0.54665
107.51747,0.52606
107.27640,0.50665
107.03533,0.48872
106.79426,0.47330
106.55319,0.46055
106.31212,0.44944
106.07104,0.43784
105.82997,0.42335
105.58890,0.40561
105.34783,0.38762
105.10676,0.37318
104.86569,0.36371
104.62462,0.35836
104.38355,0.35546
104.14248,0.35250
103.90141,0.34629
103.66034,0.33538
103.41927,0.32194
103.17820,0.31011
102.93713,0.30276
102.69606,0.29988
102.45499,0.29942
102.21392,0.29902
101.97285,0.29699
101.73177,0.29232
101.49070,0.28475
101.24963,0.27577
101.00856,0.26864
100.76749,0.26616
100.52642,0.26787
100.28535,0.26981
100.04428,0.26796
99.80321,0.26195
99.56214,0.25485
99.32107,0.24995
99.08000,0.24831
98.83893,0.24875
98.59786,0.24929
98.35679,0.24885
98.11572,0.24776
97.87465,0.24732
97.63358,0.24905
97.39250,0.25355
97.15143,0.25919
96.91036,0.26266
96.66929,0.26296
96.42822,0.26379
96.18715,0.27001
95.94608,0.28244
95.70501,0.29663
95.46394,0.30705
95.22287,0.31324
94.98180,0.31942
94.74073,0.32797
94.49966,0.33558
94.25859,0.33729
94.01752,0.33443
93.77645,0.33304
93.53538,0.33491
93.29431,0.33631
93.05323,0.33485
92.81216,0.33350
92.57109,0.33608
92.33002,0.34124
92.08895,0.34438
91.84788,0.34529
91.60681,0.34922
91.36574,0.35953
91.12467,0.37450
90.88360,0.39293
90.64253,0.41846
90.40146,0.45308
90.16039,0.49210
89.91932,0.53289
89.67825,0.58140
89.43718,0.63917
89.19611,0.69332
88.95504,0.73225
88.71396,0.75842
88.47289,0.76970
88.23182,0.75421
87.99075,0.71254
87.74968,0.65792
87.50861,0.60053
87.26754,0.54571
87.02647,0.49706
86.78540,0.45545
86.54433,0.42002
86.30326,0.38985
86.06219,0.36336
85.82112,0.33876
85.58005,0.31562
85.33898,0.29435
85.09791,0.27542
84.85684,0.25963
84.61577,0.24706
84.37469,0.23651
84.13362,0.22727
83.89255,0.21961
83.65148,0.21325
83.41041,0.20748
83.16934,0.20223
82.92827,0.19757
82.68720,0.19347
82.44613,0.19008
82.20506,0.18707
81.96399,0.18372
81.72292,0.18049
81.48185,0.17865
81.24078,0.17824
80.99971,0.17791
80.75864,0.17663
80.51757,0.17472
80.27650,0.17314
80.03542,0.17212
79.79435,0.17074
79.55328,0.16810
79.31221,0.16470
79.07114,0.16194
78.83007,0.16063
78.58900,0.16035
78.34793,0.15975
78.10686,0.15760
77.86579,0.15410
77.62472,0.15073
77.38365,0.14862
77.14258,0.14753
76.90151,0.14691
76.66044,0.14666
76.41937,0.14674
76.17830,0.14696
75.93723,0.14712
75.69615,0.14656
75.45508,0.14425
75.21401,0.14039
74.97294,0.13696
74.73187,0.13571
74.49080,0.13645
74.24973,0.13769
74.00866,0.13861
73.76759,0.13977
73.52652,0.14203
73.28545,0.14522
73.04438,0.14836
72.80331,0.15053
72.56224,0.15150
72.32117,0.15199
72.08010,0.15364
71.83903,0.15755
71.59796,0.16262
71.35688,0.16619
71.11581,0.16682
70.87474,0.16593
70.63367,0.16663
70.39260,0.17205
70.15153,0.18471
69.91046,0.20550
69.66939,0.23168
69.42832,0.25681
69.18725,0.27328
68.94618,0.27560
68.70511,0.26297
68.46404,0.24015
68.22297,0.21470
67.98190,0.19214
67.74083,0.17419
67.49976,0.16066
67.25869,0.15127
67.01761,0.14535
66.77654,0.14133
66.53547,0.13752
66.29440,0.13340
66.05333,0.12975
65.81226,0.12805
65.57119,0.12972
65.33012,0.13564
65.08905,0.14582
64.84798,0.15910
64.60691,0.17358
64.36584,0.18732
64.12477,0.19844
63.88370,0.20469
63.64263,0.20410
63.40156,0.19692
63.16049,0.18608
62.91942,0.17493
62.67834,0.16492
62.43727,0.15585
62.19620,0.14752
61.95513,0.14008
61.71406,0.13313
61.47299,0.12598
61.23192,0.11894
60.99085,0.11367
60.74978,0.11194
60.50871,0.11428
60.26764,0.11973
60.02657,0.12689
59.78550,0.13500
59.54443,0.14366
59.30336,0.15207
59.06229,0.15888
58.82122,0.16279
58.58015,0.16317
58.33907,0.16053
58.09800,0.15599
57.85693,0.15009
57.61586,0.14280
57.37479,0.13431
57.13372,0.12557
56.89265,0.11814
56.65158,0.11355
56.41051,0.11286
56.16944,0.11684
55.92837,0.12570
55.68730,0.13829
55.44623,0.15237
55.20516,0.16544
54.96409,0.17470
54.72302,0.17649
54.48195,0.16775
54.24088,0.14996
53.99980,0.13016
53.75873,0.11575
53.51766,0.11022
53.27659,0.11447
53.03552,0.12915
52.79445,0.15272
52.55338,0.17661
52.31231,0.18589
52.07124,0.17204
51.83017,0.14336
51.58910,0.11582
51.34803,0.10159
51.10696,0.10691
50.86589,0.13188
50.62482,0.16657
50.38375,0.18861
50.14268,0.18029
49.90161,0.15234
49.66053,0.12861
49.41946,0.12566
49.17839,0.14851
48.93732,0.18189
48.69625,0.18668
48.45518,0.15267
48.21411,0.12212
47.97304,0.12438
47.73197,0.15738
47.49090,0.18553
47.24983,0.16674
47.00876,0.12887
46.76769,0.11619
46.52662,0.13263
46.28555,0.14910
46.04448,0.13928
45.80341,0.12496
45.56234,0.13147
45.32126,0.14552
45.08019,0.14351
44.83912,0.13808
44.59805,0.14805
44.35698,0.16044
44.11591,0.15800
43.87484,0.15413
43.63377,0.15812
43.39270,0.15830
43.15163,0.15508
42.91056,0.16256
42.66949,0.17681
42.42842,0.17945
42.18735,0.16867
41.94628,0.15859
41.70521,0.15796
41.46414,0.16390
41.22307,0.16857
40.98199,0.16990
40.74092,0.17167
40.49985,0.17426
40.25878,0.17609
40.01771,0.18073
39.77664,0.19139
39.53557,0.20343
39.29450,0.20999
39.05343,0.20944
38.81236,0.20587
38.57129,0.20595
38.33022,0.21300
38.08915,0.22542
37.84808,0.24025
37.60701,0.25150
37.36594,0.25019
37.12487,0.23651
36.88380,0.22190
36.64272,0.21526
36.40165,0.21892
36.16058,0.23242
35.91951,0.25100
35.67844,0.26427
35.43737,0.26274
35.19630,0.24869
34.95523,0.23623
34.71416,0.23620
34.47309,0.24565
34.23202,0.25374
33.99095,0.25369
33.74988,0.24593
33.50881,0.23434
33.26774,0.22446
33.02667,0.22402
32.78560,0.23993
32.54453,0.26639
32.30345,0.28321
32.06238,0.27876
31.82131,0.26282
31.58024,0.24852
31.33917,0.23778
31.09810,0.22681
30.85703,0.21443
30.61596,0.20051
30.37489,0.18422
30.13382,0.16689
29.89275,0.15293
29.65168,0.14725
29.41061,0.14980
29.16954,0.15432
28.92847,0.15386
28.68740,0.14551
28.44633,0.13107
28.20526,0.11836
27.96418,0.11670
27.72311,0.12325
27.48204,0.12378
27.24097,0.10914
26.99990,0.08395
26.75883,0.05876
26.51776,0.03735
26.27669,0.01769
26.03562,0.00340
25.79455,0.00140
25.55348,0.00842
25.31241,0.01271
25.07134,0.00806
24.83027,-0.00281
24.58920,-0.01736
24.34813,-0.03570
24.10706,-0.05837
23.86599,-0.07939
23.62491,-0.08523
23.38384,-0.07262
23.14277,-0.05480
22.90170,-0.04489
22.66063,-0.04660
22.41956,-0.05826
22.17849,-0.07717
21.93742,-0.09910
21.69635,-0.11822
21.45528,-0.13236
21.21421,-0.14373
20.97314,-0.15110
20.73207,-0.14968
20.49100,-0.14031
20.24993,-0.12865
20.00886,-0.11907
19.76779,-0.11850
19.52672,-0.13659
19.28564,-0.17121
19.04457,-0.20129
18.80350,-0.20929
18.56243,-0.20505
18.32136,-0.20721
18.08029,-0.21446
17.83922,-0.21285
17.59815,-0.20320
17.35708,-0.20121
17.11601,-0.21430
16.87494,-0.23338
16.63387,-0.24505
16.39280,-0.24474
16.15173,-0.23990
15.91066,-0.24140
15.66959,-0.25211
15.42852,-0.26552
15.18745,-0.27432
14.94637,-0.27746
14.70530,-0.27895
14.46423,-0.28182
14.22316,-0.28694
13.98209,-0.28939
13.74102,-0.28346
13.49995,-0.27605
13.25888,-0.27019
13.01781,-0.26421
12.77674,-0.26316
12.53567,-0.26685
12.29460,-0.26277
12.05353,-0.24563
11.81246,-0.22951
11.57139,-0.23078
11.33032,-0.24784
11.08925,-0.26709
10.84818,-0.28478
10.60710,-0.30029
10.36603,-0.30679
10.12496,-0.30461
9.88389,-0.28812
9.64282,-0.26720
9.40175,-0.25862
9.16068,-0.25742
8.91961,-0.25693
8.67854,-0.25248
8.43747,-0.24379
8.19640,-0.24238
7.95533,-0.25124
7.71426,-0.26547
7.47319,-0.27842
7.23212,-0.27835
6.99105,-0.27128
6.74998,-0.27415
6.50891,-0.28641
6.26783,-0.29396
6.02676,-0.29227
5.78569,-0.28675
5.54462,-0.28377
5.30355,-0.28774
5.06248,-0.29679
4.82141,-0.30277
4.58034,-0.30608
4.33927,-0.30742
4.09820,-0.30054
3.85713,-0.28305
3.61606,-0.26741
3.37499,-0.26307
3.13392,-0.26896
2.89285,-0.27910
2.65178,-0.27613
2.41071,-0.26156
2.16964,-0.25919
1.92856,-0.27243
1.68749,-0.28476
1.44642,-0.29748
1.20535,-0.29877
0.96428,-0.27898
0.72321,-0.28789
0.48214,-0.38128
0.24107,-0.42825
-0.00000,-0.33010
