399.69498,1.57824
399.45391,1.59141
399.21284,1.58347
398.97177,1.55867
398.73070,1.53166
398.48963,1.51432
398.24856,1.50686
398.00749,1.49958
397.76642,1.48641
397.52535,1.47486
397.28428,1.47476
397.04321,1.48580
396.80214,1.50223
396.56107,1.51975
396.32000,1.53225
396.07892,1.53258
395.83785,1.52340
395.59678,1.51834
395.35571,1.52616
395.11464,1.54066
394.87357,1.55082
394.63250,1.55345
394.39143,1.54789
394.15036,1.53050
393.90929,1.50563
393.66822,1.48957
393.42715,1.49404
393.18608,1.51346
392.94501,1.53119
392.70394,1.53561
392.46287,1.53039
392.22180,1.52968
391.98073,1.54345
391.73965,1.56675
391.49858,1.58469
391.25751,1.58758
391.01644,1.57580
390.77537,1.55484
390.53430,1.53411
390.29323,1.52403
390.05216,1.52595
389.81109,1.53018
389.57002,1.52882
389.32895,1.52392
389.08788,1.52216
388.84681,1.52507
388.60574,1.52572
388.36467,1.51844
388.12360,1.50903
387.88253,1.50587
387.64146,1.50544
387.40038,1.49856
387.15931,1.48643
386.91824,1.47735
386.67717,1.47361
386.43610,1.46770
386.19503,1.45374
385.95396,1.43772
385.71289,1.42653
385.47182,1.41819
385.23075,1.40830
384.98968,1.39592
384.74861,1.38238
384.50754,1.37208
384.26647,1.36951
384.02540,1.37541
383.78433,1.38258
383.54326,1.37593
383.30219,1.35351
383.06111,1.33384
382.82004,1.33172
382.57897,1.33958
382.33790,1.33807
382.09683,1.32422
381.85576,1.31232
381.61469,1.30835
381.37362,1.30602
381.13255,1.30259
380.89148,1.30166
380.65041,1.30209
380.40934,1.29806
380.16827,1.29022
379.92720,1.28713
379.68613,1.29386
379.44506,1.30793
379.20399,1.32723
378.96292,1.35169
378.72184,1.37519
378.48077,1.38547
378.23970,1.37683
377.99863,1.35417
377.75756,1.32584
377.51649,1.30268
377.27542,1.29761
377.03435,1.31264
376.79328,1.33557
376.55221,1.35357
376.31114,1.36493
376.07007,1.37831
375.82900,1.39735
375.58793,1.41232
375.34686,1.41429
375.10579,1.41003
374.86472,1.40805
374.62365,1.40392
374.38257,1.39545
374.14150,1.39439
373.90043,1.40964
373.65936,1.43167
373.41829,1.44220
373.17722,1.43380
372.93615,1.41210
372.69508,1.38729
372.45401,1.36980
372.21294,1.36513
371.97187,1.36832
371.73080,1.36840
371.48973,1.35992
371.24866,1.34635
371.00759,1.33664
370.76652,1.33795
370.52545,1.34762
370.28437,1.35467
370.04330,1.34925
369.80223,1.33166
369.56116,1.31339
369.32009,1.30459
369.07902,1.30327
368.83795,1.30084
368.59688,1.29425
368.35581,1.28780
368.11474,1.28470
367.87367,1.28233
367.63260,1.27603
367.39153,1.26566
367.15046,1.25622
366.90939,1.25148
366.66832,1.25004
366.42725,1.24881
366.18618,1.24723
365.94510,1.24518
365.70403,1.23980
365.46296,1.22927
365.22189,1.21795
364.98082,1.21296
364.73975,1.21622
364.49868,1.22288
364.25761,1.22728
364.01654,1.22821
363.77547,1.22742
363.53440,1.22664
363.29333,1.22638
363.05226,1.22565
362.81119,1.22268
362.57012,1.21689
362.32905,1.21091
362.08798,1.20814
361.84691,1.20988
361.60583,1.21636
361.36476,1.22663
361.12369,1.23659
360.88262,1.24091
360.64155,1.23733
360.40048,1.22805
360.15941,1.21825
359.91834,1.21148
359.67727,1.20643
359.43620,1.19945
359.19513,1.19163
358.95406,1.18962
358.71299,1.19723
358.47192,1.20969
358.23085,1.21680
357.98978,1.21218
357.74871,1.19997
357.50764,1.19070
357.26656,1.18994
357.02549,1.19314
356.78442,1.19280
356.54335,1.18780
356.30228,1.18343
356.06121,1.18478
355.82014,1.19136
355.57907,1.19819
355.33800,1.20179
355.09693,1.20331
354.85586,1.20455
354.61479,1.20449
354.37372,1.20381
354.13265,1.20704
353.89158,1.21583
353.65051,1.22456
353.40944,1.22651
353.16837,1.22131
352.92729,1.21277
352.68622,1.20347
352.44515,1.19490
352.20408,1.18942
351.96301,1.18966
351.72194,1.19707
351.48087,1.21101
351.23980,1.22667
350.99873,1.23530
350.75766,1.23209
350.51659,1.22224
350.27552,1.21544
350.03445,1.21740
349.79338,1.22701
349.55231,1.23898
349.31124,1.24836
349.07017,1.25182
348.82910,1.24731
348.58802,1.23556
348.34695,1.22142
348.10588,1.21148
347.86481,1.20964
347.62374,1.21557
347.38267,1.22513
347.14160,1.23264
346.90053,1.23534
346.65946,1.23549
346.41839,1.23662
346.17732,1.23893
345.93625,1.24192
345.69518,1.24864
345.45411,1.26284
345.21304,1.28214
344.97197,1.29631
344.73090,1.29583
344.48983,1.28397
344.24875,1.27436
344.00768,1.27452
343.76661,1.27962
343.52554,1.28457
343.28447,1.29345
343.04340,1.31155
342.80233,1.33509
342.56126,1.35306
342.32019,1.35735
342.07912,1.35150
341.83805,1.34724
341.59698,1.35163
341.35591,1.36025
341.11484,1.36554
340.87377,1.36937
340.63270,1.37892
340.39163,1.39294
340.15056,1.40077
339.90948,1.39657
339.66841,1.38783
339.42734,1.38366
339.18627,1.38200
338.94520,1.37572
338.70413,1.36682
338.46306,1.36616
338.22199,1.38084
337.98092,1.40605
337.73985,1.42869
337.49878,1.43906
337.25771,1.43742
337.01664,1.43151
336.77557,1.43042
336.53450,1.43879
336.29343,1.45390
336.05236,1.46813
335.81129,1.47297
335.57021,1.46102
335.32914,1.43317
335.08807,1.40446
334.84700,1.39127
334.60593,1.39586
334.36486,1.40790
334.12379,1.41484
333.88272,1.41090
333.64165,1.39873
333.40058,1.38212
333.15951,1.36507
332.91844,1.35223
332.67737,1.34498
332.43630,1.34323
332.19523,1.34652
331.95416,1.35299
331.71309,1.36028
331.47202,1.36505
331.23094,1.36243
330.98987,1.34947
330.74880,1.32910
330.50773,1.30660
330.26666,1.28603
330.02559,1.27202
329.78452,1.26763
329.54345,1.27094
329.30238,1.27814
329.06131,1.28751
328.82024,1.29562
328.57917,1.29744
328.33810,1.29189
328.09703,1.28236
327.85596,1.27403
327.61489,1.26983
327.37382,1.26883
327.13275,1.26974
326.89167,1.27418
326.65060,1.28299
326.40953,1.29085
326.16846,1.29156
325.92739,1.28799
325.68632,1.28775
325.44525,1.29185
325.20418,1.29522
324.96311,1.29691
324.72204,1.30314
324.48097,1.31790
324.23990,1.33398
323.99883,1.33887
323.75776,1.32913
323.51669,1.31385
323.27562,1.30501
323.03455,1.30764
322.79348,1.31753
322.55240,1.32924
322.31133,1.34445
322.07026,1.36370
321.82919,1.37548
321.58812,1.36982
321.34705,1.35516
321.10598,1.34796
320.86491,1.35384
320.62384,1.36396
320.38277,1.36462
320.14170,1.35186
319.90063,1.33593
319.65956,1.32642
319.41849,1.32117
319.17742,1.31593
318.93635,1.31516
318.69528,1.32459
318.45421,1.33830
318.21313,1.34467
317.97206,1.34522
317.73099,1.35273
317.48992,1.36735
317.24885,1.37274
317.00778,1.36112
316.76671,1.34488
316.52564,1.33638
316.28457,1.33342
316.04350,1.32879
315.80243,1.32279
315.56136,1.31982
315.32029,1.32124
315.07922,1.32746
314.83815,1.33790
314.59708,1.34839
314.35601,1.35614
314.11494,1.36321
313.87386,1.37195
313.63279,1.38022
313.39172,1.38351
313.15065,1.38074
312.90958,1.37571
312.66851,1.37447
312.42744,1.38052
312.18637,1.38828
311.94530,1.38728
311.70423,1.37908
311.46316,1.37595
311.22209,1.38028
310.98102,1.38215
310.73995,1.37661
310.49888,1.36974
310.25781,1.36813
310.01674,1.37377
309.77567,1.38769
309.53459,1.40791
309.29352,1.42587
309.05245,1.43482
308.81138,1.43808
308.57031,1.44020
308.32924,1.44101
308.08817,1.44235
307.84710,1.44710
307.60603,1.45427
307.36496,1.45858
307.12389,1.45400
306.88282,1.43790
306.64175,1.41391
306.40068,1.39249
306.15961,1.38411
305.91854,1.39026
305.67747,1.40168
305.43640,1.40499
305.19532,1.39464
304.95425,1.37910
304.71318,1.37133
304.47211,1.37534
304.23104,1.38400
303.98997,1.38854
303.74890,1.38855
303.50783,1.38882
303.26676,1.39012
303.02569,1.38891
302.78462,1.38274
302.54355,1.37220
302.30248,1.36027
302.06141,1.35044
301.82034,1.34199
301.57927,1.33021
301.33820,1.31546
301.09713,1.30528
300.85605,1.30286
300.61498,1.30166
300.37391,1.29488
300.13284,1.28461
299.89177,1.27831
299.65070,1.27960
299.40963,1.28403
299.16856,1.28339
298.92749,1.27447
298.68642,1.26177
298.44535,1.25088
298.20428,1.24298
297.96321,1.23715
297.72214,1.23359
297.48107,1.23157
297.24000,1.22861
296.99893,1.22476
296.75786,1.22379
296.51678,1.22684
296.27571,1.22861
296.03464,1.22294
295.79357,1.20965
295.55250,1.19375
295.31143,1.18128
295.07036,1.17643
294.82929,1.17914
294.58822,1.18376
294.34715,1.18353
294.10608,1.17721
293.86501,1.16942
293.62394,1.16522
293.38287,1.16589
293.14180,1.16894
292.90073,1.17072
292.65966,1.16953
292.41859,1.16601
292.17751,1.16080
291.93644,1.15477
291.69537,1.15082
291.45430,1.15129
291.21323,1.15437
290.97216,1.15582
290.73109,1.15324
290.49002,1.14752
290.24895,1.14121
290.00788,1.13646
289.76681,1.13407
289.52574,1.13344
289.28467,1.13228
289.04360,1.12877
288.80253,1.12400
288.56146,1.12050
288.32039,1.11898
288.07932,1.11870
287.83824,1.11947
287.59717,1.12050
287.35610,1.11939
287.11503,1.11623
286.87396,1.11433
286.63289,1.11458
286.39182,1.11309
286.15075,1.10737
285.90968,1.10091
285.66861,1.09851
285.42754,1.09987
285.18647,1.10023
284.94540,1.09630
284.70433,1.09032
284.46326,1.08701
284.22219,1.08781
283.98112,1.08998
283.74005,1.09073
283.49897,1.09036
283.25790,1.09107
283.01683,1.09395
282.77576,1.09784
282.53469,1.10044
282.29362,1.09956
282.05255,1.09464
281.81148,1.08841
281.57041,1.08574
281.32934,1.08912
281.08827,1.09601
280.84720,1.10156
280.60613,1.10338
280.36506,1.10232
280.12399,1.09971
279.88292,1.09618
279.64185,1.09274
279.40078,1.09152
279.15970,1.09435
278.91863,1.10051
278.67756,1.10641
278.43649,1.10816
278.19542,1.10527
277.95435,1.10094
277.71328,1.09852
277.47221,1.09915
277.23114,1.10203
276.99007,1.10554
276.74900,1.10834
276.50793,1.10995
276.26686,1.10968
276.02579,1.10605
275.78472,1.09967
275.54365,1.09521
275.30258,1.09737
275.06151,1.10619
274.82043,1.11699
274.57936,1.12355
274.33829,1.12193
274.09722,1.11399
273.85615,1.10719
273.61508,1.10767
273.37401,1.11427
273.13294,1.12146
272.89187,1.12617
272.65080,1.12905
272.40973,1.13127
272.16866,1.13381
271.92759,1.13788
271.68652,1.14285
271.44545,1.14590
271.20438,1.14596
270.96331,1.14600
270.72224,1.14955
270.48116,1.15628
270.24009,1.16231
269.99902,1.16483
269.75795,1.16557
269.51688,1.16797
269.27581,1.17219
269.03474,1.17570
268.79367,1.17780
268.55260,1.18010
268.31153,1.18384
268.07046,1.18973
267.82939,1.19838
267.58832,1.20833
267.34725,1.21628
267.10618,1.22193
266.86511,1.22883
266.62404,1.23811
266.38297,1.24597
266.14189,1.25009
265.90082,1.25407
265.65975,1.26312
265.41868,1.27800
265.17761,1.29411
264.93654,1.30564
264.69547,1.31185
264.45440,1.31786
264.21333,1.32740
263.97226,1.33856
263.73119,1.34876
263.49012,1.36082
263.24905,1.38070
263.00798,1.40925
262.76691,1.43807
262.52584,1.45768
262.28477,1.46783
262.04370,1.47706
261.80262,1.49341
261.56155,1.51587
261.32048,1.53905
261.07941,1.56396
260.83834,1.59426
260.59727,1.62395
260.35620,1.64267
260.11513,1.65354
259.87406,1.66933
259.63299,1.69622
259.39192,1.73359
259.15085,1.78137
258.90978,1.83428
258.66871,1.86878
258.42764,1.86794
258.18657,1.85314
257.94550,1.84128
257.70443,1.82656
257.46335,1.81054
257.22228,1.80764
256.98121,1.81367
256.74014,1.80432
256.49907,1.77524
256.25800,1.74722
256.01693,1.73466
255.77586,1.73508
255.53479,1.73472
255.29372,1.72276
255.05265,1.70411
254.81158,1.68740
254.57051,1.66957
254.32944,1.64656
254.08837,1.62709
253.84730,1.62375
253.60623,1.63483
253.36516,1.64140
253.12408,1.62875
252.88301,1.60562
252.64194,1.59086
252.40087,1.58952
252.15980,1.59084
251.91873,1.58552
251.67766,1.57693
251.43659,1.57222
251.19552,1.57201
250.95445,1.57129
250.71338,1.56427
250.47231,1.55043
250.23124,1.53757
249.99017,1.53467
249.74910,1.54091
249.50803,1.54623
249.26696,1.54420
249.02589,1.53949
248.78481,1.53824
248.54374,1.53786
248.30267,1.53365
248.06160,1.53023
247.82053,1.53877
247.57946,1.56392
247.33839,1.59648
247.09732,1.61899
246.85625,1.62094
246.61518,1.60679
246.37411,1.59099
246.13304,1.58972
245.89197,1.61017
245.65090,1.64478
245.40983,1.67896
245.16876,1.70451
244.92769,1.72120
244.68661,1.73253
244.44554,1.74496
244.20447,1.76516
243.96340,1.79576
243.72233,1.83587
243.48126,1.88245
243.24019,1.92826
242.99912,1.96892
242.75805,2.00480
242.51698,1.97065
242.27591,1.85359
242.03484,1.75213
241.79377,1.66506
241.55270,1.58349
241.31163,1.50439
241.07056,1.42699
240.82949,1.35652
240.58842,1.29975
240.34734,1.25723
240.10627,1.22130
239.86520,1.18350
239.62413,1.14411
239.38306,1.10998
239.14199,1.08398
238.90092,1.06224
238.65985,1.04042
238.41878,1.01785
238.17771,0.99535
237.93664,0.97306
237.69557,0.95168
237.45450,0.93325
237.21343,0.91946
236.97236,0.90986
236.73129,0.90212
236.49022,0.89422
236.24915,0.88592
236.00807,0.87764
235.76700,0.86863
235.52593,0.85802
235.28486,0.84702
235.04379,0.83791
234.80272,0.83148
234.56165,0.82676
234.32058,0.82272
234.07951,0.81892
233.83844,0.81531
233.59737,0.81203
233.35630,0.80871
233.11523,0.80442
232.87416,0.79939
232.63309,0.79551
232.39202,0.79399
232.15095,0.79434
231.90988,0.79596
231.66880,0.79881
231.42773,0.80199
231.18666,0.80380
230.94559,0.80333
230.70452,0.80095
230.46345,0.79774
230.22238,0.79482
229.98131,0.79244
229.74024,0.78986
229.49917,0.78673
229.25810,0.78368
229.01703,0.78181
228.77596,0.78214
228.53489,0.78489
228.29382,0.78860
228.05275,0.79074
227.81168,0.79020
227.57061,0.78795
227.32953,0.78494
227.08846,0.78170
226.84739,0.77999
226.60632,0.78163
226.36525,0.78502
226.12418,0.78616
225.88311,0.78416
225.64204,0.78232
225.40097,0.78314
225.15990,0.78566
224.91883,0.78810
224.67776,0.79025
224.43669,0.79277
224.19562,0.79558
223.95455,0.79758
223.71348,0.79820
223.47241,0.79866
223.23134,0.80082
222.99026,0.80543
222.74919,0.81226
222.50812,0.82074
222.26705,0.82994
222.02598,0.83881
221.78491,0.84654
221.54384,0.85240
221.30277,0.85665
221.06170,0.86150
220.82063,0.86891
220.57956,0.87842
220.33849,0.88831
220.09742,0.89810
219.85635,0.90885
219.61528,0.92167
219.37421,0.93644
219.13314,0.95132
218.89207,0.96374
218.65099,0.97296
218.40992,0.98105
218.16885,0.99062
217.92778,1.00253
217.68671,1.01659
217.44564,1.03334
217.20457,1.05373
216.96350,1.07728
216.72243,1.10103
216.48136,1.12028
216.24029,1.13193
215.99922,1.13867
215.75815,1.14818
215.51708,1.16655
215.27601,1.19360
215.03494,1.22383
214.79387,1.25021
214.55280,1.26800
214.31172,1.27665
214.07065,1.27937
213.82958,1.28167
213.58851,1.28967
213.34744,1.30746
213.10637,1.33229
212.86530,1.35218
212.62423,1.35526
212.38316,1.34510
212.14209,1.33762
211.90102,1.34404
211.65995,1.36396
211.41888,1.38862
211.17781,1.40615
210.93674,1.40874
210.69567,1.39830
210.45460,1.38298
210.21353,1.37191
209.97245,1.37314
209.73138,1.38745
209.49031,1.40401
209.24924,1.40855
209.00817,1.39724
208.76710,1.37917
208.52603,1.36698
208.28496,1.36639
208.04389,1.37209
207.80282,1.37248
207.56175,1.36064
207.32068,1.34060
207.07961,1.32087
206.83854,1.30791
206.59747,1.30376
206.35640,1.30283
206.11533,1.29412
205.87426,1.27270
205.63318,1.24607
205.39211,1.22466
205.15104,1.21099
204.90997,1.19925
204.66890,1.18293
204.42783,1.16235
204.18676,1.14324
203.94569,1.12825
203.70462,1.11392
203.46355,1.09743
203.22248,1.08154
202.98141,1.06902
202.74034,1.05547
202.49927,1.03412
202.25820,1.00734
202.01713,0.98412
201.77606,0.96825
201.53499,0.95562
201.29391,0.94043
201.05284,0.92145
200.81177,0.90231
200.57070,0.88676
200.32963,0.87502
200.08856,0.86453
199.84749,0.85321
199.60642,0.84080
199.36535,0.82740
199.12428,0.81266
198.88321,0.79741
198.64214,0.78410
198.40107,0.77421
198.16000,0.76630
197.91893,0.75799
197.67786,0.74873
197.43679,0.73929
197.19572,0.72995
196.95464,0.72070
196.71357,0.71186
196.47250,0.70348
196.23143,0.69511
195.99036,0.68666
195.74929,0.67838
195.50822,0.67020
195.26715,0.66219
195.02608,0.65495
194.78501,0.64864
194.54394,0.64248
194.30287,0.63583
194.06180,0.62915
193.82073,0.62323
193.57966,0.61821
193.33859,0.61364
193.09752,0.60942
192.85645,0.60574
192.61537,0.60240
192.37430,0.59852
192.13323,0.59327
191.89216,0.58727
191.65109,0.58240
191.41002,0.57974
191.16895,0.57798
190.92788,0.57465
190.68681,0.56947
190.44574,0.56498
190.20467,0.56325
189.96360,0.56315
189.72253,0.56201
189.48146,0.55894
189.24039,0.55547
188.99932,0.55366
188.75825,0.55431
188.51718,0.55644
188.27610,0.55790
188.03503,0.55724
187.79396,0.55478
187.55289,0.55143
187.31182,0.54768
187.07075,0.54422
186.82968,0.54202
186.58861,0.54125
186.34754,0.54143
186.10647,0.54246
185.86540,0.54430
185.62433,0.54606
185.38326,0.54660
185.14219,0.54615
184.90112,0.54629
184.66005,0.54782
184.41898,0.54947
184.17791,0.54986
183.93683,0.55007
183.69576,0.55227
183.45469,0.55634
183.21362,0.56027
182.97255,0.56350
182.73148,0.56712
182.49041,0.57108
182.24934,0.57390
182.00827,0.57497
181.76720,0.57478
181.52613,0.57374
181.28506,0.57287
181.04399,0.57402
180.80292,0.57743
180.56185,0.58087
180.32078,0.58295
180.07971,0.58497
179.83864,0.58866
179.59756,0.59402
179.35649,0.59999
179.11542,0.60576
178.87435,0.61166
178.63328,0.61890
178.39221,0.62821
178.15114,0.63920
177.91007,0.65153
177.66900,0.66523
177.42793,0.67968
177.18686,0.69392
176.94579,0.70793
176.70472,0.72278
176.46365,0.73944
176.22258,0.75737
175.98151,0.77493
175.74044,0.79237
175.49937,0.81303
175.25829,0.83890
175.01722,0.86686
174.77615,0.89184
174.53508,0.91270
174.29401,0.93295
174.05294,0.95599
173.81187,0.98077
173.57080,1.00277
173.32973,1.01996
173.08866,1.03456
172.84759,1.04812
172.60652,1.05984
172.36545,1.06994
172.12438,1.07897
171.88331,1.08480
171.64224,1.08558
171.40117,1.08344
171.16010,1.08127
170.91902,1.07918
170.67795,1.07520
170.43688,1.06718
170.19581,1.05448
169.95474,1.03953
169.71367,1.02635
169.47260,1.01746
169.23153,1.01313
168.99046,1.01238
168.74939,1.01283
168.50832,1.01145
168.26725,1.00751
168.02618,1.00313
167.78511,0.99963
167.54404,0.99619
167.30297,0.99306
167.06190,0.99234
166.82083,0.99497
166.57975,0.99993
166.33868,1.00622
166.09761,1.01356
165.85654,1.02160
165.61547,1.03012
165.37440,1.03950
165.13333,1.04880
164.89226,1.05535
164.65119,1.05868
164.41012,1.06302
164.16905,1.07333
163.92798,1.09084
163.68691,1.11369
163.44584,1.13916
163.20477,1.16287
162.96370,1.18037
162.72263,1.19110
162.48156,1.19733
162.24048,1.20202
161.99941,1.20811
161.75834,1.21646
161.51727,1.22444
161.27620,1.22899
161.03513,1.22981
160.79406,1.22736
160.55299,1.22057
160.31192,1.20995
160.07085,1.20012
159.82978,1.19605
159.58871,1.19771
159.34764,1.19898
159.10657,1.19206
158.86550,1.17473
158.62443,1.15336
158.38336,1.13731
158.14229,1.13212
157.90121,1.13837
157.66014,1.15122
157.41907,1.15952
157.17800,1.15272
156.93693,1.13264
156.69586,1.11198
156.45479,1.10102
156.21372,1.09969
155.97265,1.10058
155.73158,1.09650
155.49051,1.08438
155.24944,1.06484
155.00837,1.04173
154.76730,1.02066
154.52623,1.00499
154.28516,0.99310
154.04409,0.98079
153.80302,0.96566
153.56194,0.94796
153.32087,0.92861
153.07980,0.90827
152.83873,0.88705
152.59766,0.86447
152.35659,0.84063
152.11552,0.81718
151.87445,0.79624
151.63338,0.77830
151.39231,0.76183
151.15124,0.74525
150.91017,0.72837
150.66910,0.71118
150.42803,0.69282
150.18696,0.67305
149.94589,0.65346
149.70482,0.63633
149.46375,0.62285
149.22267,0.61287
148.98160,0.60550
148.74053,0.59942
148.49946,0.59290
148.25839,0.58465
148.01732,0.57531
147.77625,0.56747
147.53518,0.56332
147.29411,0.56260
147.05304,0.56313
146.81197,0.56336
146.57090,0.56406
146.32983,0.56725
146.08876,0.57347
145.84769,0.58066
145.60662,0.58632
145.36555,0.59057
145.12448,0.59594
144.88340,0.60371
144.64233,0.61170
144.40126,0.61686
144.16019,0.61903
143.91912,0.62028
143.67805,0.62125
143.43698,0.62048
143.19591,0.61669
142.95484,0.60966
142.71377,0.59990
142.47270,0.58881
142.23163,0.57763
141.99056,0.56622
141.74949,0.55434
141.50842,0.54348
141.26735,0.53547
141.02628,0.53020
140.78521,0.52624
140.54413,0.52324
140.30306,0.52236
140.06199,0.52426
139.82092,0.52788
139.57985,0.53174
139.33878,0.53542
139.09771,0.53922
138.85664,0.54353
138.61557,0.54944
138.37450,0.55836
138.13343,0.57043
137.89236,0.58454
137.65129,0.60012
137.41022,0.61772
137.16915,0.63777
136.92808,0.65991
136.68701,0.68346
136.44594,0.70821
136.20486,0.73399
135.96379,0.76083
135.72272,0.79002
135.48165,0.82312
135.24058,0.85911
134.99951,0.89505
134.75844,0.93021
134.51737,0.96579
134.27630,1.00078
134.03523,1.03279
133.79416,1.06227
133.55309,1.09262
133.31202,1.12727
133.07095,1.16645
132.82988,1.20373
132.58881,1.22904
132.34774,1.24146
132.10667,1.25090
131.86559,1.26128
131.62452,1.26219
131.38345,1.24444
131.14238,1.21505
130.90131,1.18626
130.66024,1.16028
130.41917,1.13201
130.17810,1.09816
129.93703,1.05828
129.69596,1.01250
129.45489,0.96298
129.21382,0.91406
128.97275,0.86853
128.73168,0.82621
128.49061,0.78625
128.24954,0.74899
128.00847,0.71533
127.76740,0.68567
127.52632,0.65959
127.28525,0.63593
127.04418,0.61317
126.80311,0.59063
126.56204,0.56930
126.32097,0.55069
126.07990,0.53492
125.83883,0.52094
125.59776,0.50802
125.35669,0.49638
125.11562,0.48628
124.87455,0.47705
124.63348,0.46716
124.39241,0.45568
124.15134,0.44350
123.91027,0.43274
123.66920,0.42487
123.42812,0.42001
123.18705,0.41760
122.94598,0.41720
122.70491,0.41867
122.46384,0.42171
122.22277,0.42509
121.98170,0.42708
121.74063,0.42743
121.49956,0.42823
121.25849,0.43184
121.01742,0.43877
120.77635,0.44820
120.53528,0.45966
120.29421,0.47320
120.05314,0.48837
119.81207,0.50452
119.57100,0.52229
119.32993,0.54373
119.08885,0.57034
118.84778,0.60147
118.60671,0.63536
118.36564,0.67095
118.12457,0.70793
117.88350,0.74524
117.64243,0.77994
117.40136,0.80759
117.16029,0.82520
116.91922,0.83384
116.67815,0.83593
116.43708,0.83102
116.19601,0.81780
115.95494,0.79912
115.71387,0.78009
115.47280,0.76235
115.23173,0.74445
114.99066,0.72656
114.74958,0.71128
114.50851,0.70009
114.26744,0.69224
114.02637,0.68712
113.78530,0.68511
113.54423,0.68586
113.30316,0.68776
113.06209,0.68949
112.82102,0.69080
112.57995,0.69157
112.33888,0.69177
112.09781,0.69270
111.85674,0.69734
111.61567,0.70807
111.37460,0.72413
111.13353,0.74186
110.89246,0.75764
110.65139,0.76912
110.41031,0.77309
110.16924,0.76503
109.92817,0.74370
109.68710,0.71515
109.44603,0.68901
109.20496,0.67088
108.96389,0.65878
108.72282,0.64690
108.48175,0.63182
108.24068,0.61348
107.99961,0.59163
107.75854,0.56508
107.51747,0.53480
107.27640,0.50499
107.03533,0.48061
106.79426,0.46386
106.55319,0.45264
106.31212,0.44199
106.07104,0.42735
105.82997,0.40800
105.58890,0.38807
105.34783,0.37297
105.10676,0.36485
104.86569,0.36158
104.62462,0.35861
104.38355,0.35177
104.14248,0.34036
103.90141,0.32789
103.66034,0.31887
103.41927,0.31502
103.17820,0.31434
102.93713,0.31282
102.69606,0.30734
102.45499,0.29835
102.21392,0.28943
101.97285,0.28382
101.73177,0.28155
101.49070,0.28008
101.24963,0.27715
101.00856,0.27286
100.76749,0.26882
100.52642,0.26581
100.28535,0.26310
100.04428,0.25985
99.80321,0.25619
99.56214,0.25270
99.32107,0.24983
99.08000,0.24801
98.83893,0.24756
98.59786,0.24749
98.35679,0.24556
98.11572,0.24150
97.87465,0.23881
97.63358,0.24075
97.39250,0.24579
97.15143,0.24931
96.91036,0.24993
96.66929,0.25130
96.42822,0.25709
96.18715,0.26639
95.94608,0.27498
95.70501,0.28079
95.46394,0.28665
95.22287,0.29633
94.98180,0.30917
94.74073,0.31999
94.49966,0.32488
94.25859,0.32614
94.01752,0.32836
93.77645,0.33159
93.53538,0.33153
93.29431,0.32729
93.05323,0.32441
92.81216,0.32711
92.57109,0.33226
92.33002,0.33474
92.08895,0.33609
91.84788,0.34104
91.60681,0.34907
91.36574,0.35736
91.12467,0.36889
90.88360,0.38840
90.64253,0.41450
90.40146,0.44475
90.16039,0.48350
89.91932,0.53418
89.67825,0.59039
89.43718,0.64374
89.19611,0.69247
88.95504,0.73384
88.71396,0.76013
88.47289,0.76542
88.23182,0.74753
87.99075,0.70783
87.74968,0.65382
87.50861,0.59600
87.26754,0.54169
87.02647,0.49343
86.78540,0.45077
86.54433,0.41310
86.30326,0.38069
86.06219,0.35349
85.82112,0.33048
85.58005,0.31027
85.33898,0.29137
85.09791,0.27287
84.85684,0.25561
84.61577,0.24066
84.37469,0.22733
84.13362,0.21481
83.89255,0.20433
83.65148,0.19730
83.41041,0.19273
83.16934,0.18846
82.92827,0.18384
82.68720,0.17964
82.44613,0.17622
82.20506,0.17317
81.96399,0.17043
81.72292,0.16893
81.48185,0.16949
81.24078,0.17129
80.99971,0.17231
80.75864,0.17146
80.51757,0.16964
80.27650,0.16821
80.03542,0.16719
79.79435,0.16567
79.55328,0.16349
79.31221,0.16154
79.07114,0.16074
78.83007,0.16096
78.58900,0.16097
78.34793,0.15917
78.10686,0.15504
77.86579,0.14979
77.62472,0.14508
77.38365,0.14143
77.14258,0.13863
76.90151,0.13693
76.66044,0.13657
76.41937,0.13670
76.17830,0.13621
75.93723,0.13532
75.69615,0.13499
75.45508,0.13509
75.21401,0.13464
74.97294,0.13330
74.73187,0.13165
74.49080,0.13041
74.24973,0.13004
74.00866,0.13091
73.76759,0.13310
73.52652,0.13592
73.28545,0.13810
73.04438,0.13885
72.80331,0.13858
72.56224,0.13843
72.32117,0.13917
72.08010,0.14072
71.83903,0.14245
71.59796,0.14362
71.35688,0.14414
71.11581,0.14517
70.87474,0.14866
70.63367,0.15607
70.39260,0.16794
70.15153,0.18451
69.91046,0.20556
69.66939,0.22916
69.42832,0.25060
69.18725,0.26358
68.94618,0.26367
68.70511,0.25117
68.46404,0.23042
68.22297,0.20710
67.98190,0.18593
67.74083,0.16926
67.49976,0.15688
67.25869,0.14718
67.01761,0.13880
66.77654,0.13131
66.53547,0.12482
66.29440,0.11972
66.05333,0.11689
65.81226,0.11730
65.57119,0.12111
65.33012,0.12757
65.08905,0.13562
64.84798,0.14442
64.60691,0.15382
64.36584,0.16402
64.12477,0.17381
63.88370,0.17970
63.64263,0.17871
63.40156,0.17197
63.16049,0.16338
62.91942,0.15571
62.67834,0.14926
62.43727,0.14339
62.19620,0.13820
61.95513,0.13436
61.71406,0.13156
61.47299,0.12801
61.23192,0.12263
60.99085,0.11689
60.74978,0.11345
60.50871,0.11319
60.26764,0.11446
60.02657,0.11495
59.78550,0.11349
59.54443,0.11057
59.30336,0.10780
59.06229,0.10688
58.82122,0.10862
58.58015,0.11281
58.33907,0.11876
58.09800,0.12594
57.85693,0.13464
57.61586,0.14510
57.37479,0.15455
57.13372,0.15678
56.89265,0.14781
56.65158,0.13064
56.41051,0.11174
56.16944,0.09612
55.92837,0.08641
55.68730,0.08392
55.44623,0.08909
55.20516,0.10154
54.96409,0.12014
54.72302,0.14171
54.48195,0.15755
54.24088,0.15565
53.99980,0.13513
53.75873,0.10967
53.51766,0.09382
53.27659,0.09600
53.03552,0.11813
52.79445,0.15199
52.55338,0.17482
52.31231,0.16710
52.07124,0.13880
51.83017,0.11301
51.58910,0.10411
51.34803,0.11481
51.10696,0.13488
50.86589,0.14346
50.62482,0.13025
50.38375,0.11003
50.14268,0.10213
49.90161,0.11386
49.66053,0.13661
49.41946,0.14572
49.17839,0.12877
48.93732,0.10852
48.69625,0.10745
48.45518,0.12444
48.21411,0.13433
47.97304,0.11615
47.73197,0.09073
47.49090,0.08894
47.24983,0.11303
47.00876,0.12866
46.76769,0.10863
46.52662,0.08672
46.28555,0.09210
46.04448,0.10726
45.80341,0.10082
45.56234,0.08398
45.32126,0.08505
45.08019,0.10004
44.83912,0.10756
44.59805,0.10863
44.35698,0.11158
44.11591,0.10944
43.87484,0.10129
43.63377,0.10064
43.39270,0.11182
43.15163,0.12457
42.91056,0.12964
42.66949,0.12899
42.42842,0.12937
42.18735,0.13226
41.94628,0.13231
41.70521,0.12677
41.46414,0.12064
41.22307,0.11837
40.98199,0.11938
40.74092,0.12158
40.49985,0.12353
40.25878,0.12568
40.01771,0.12938
39.77664,0.13252
39.53557,0.13308
39.29450,0.13639
39.05343,0.14635
38.81236,0.15527
38.57129,0.15628
38.33022,0.15665
38.08915,0.16563
37.84808,0.17897
37.60701,0.18398
37.36594,0.17561
37.12487,0.16102
36.88380,0.14880
36.64272,0.14167
36.40165,0.14053
36.16058,0.14700
35.91951,0.15867
35.67844,0.16752
35.43737,0.16797
35.19630,0.16297
34.95523,0.15909
34.71416,0.16029
34.47309,0.16626
34.23202,0.17292
33.99095,0.17375
33.74988,0.16423
33.50881,0.14831
33.26774,0.13698
33.02667,0.13823
32.78560,0.14945
32.54453,0.15948
32.30345,0.16108
32.06238,0.16029
31.82131,0.16290
31.58024,0.16191
31.33917,0.14803
31.09810,0.12197
30.85703,0.09020
30.61596,0.05996
30.37489,0.04125
30.13382,0.04093
29.89275,0.05414
29.65168,0.07063
29.41061,0.08200
29.16954,0.07951
28.92847,0.05612
28.68740,0.01416
28.44633,-0.03077
28.20526,-0.06255
27.96418,-0.07716
27.72311,-0.07801
27.48204,-0.06945
27.24097,-0.05922
26.99990,-0.05775
26.75883,-0.06857
26.51776,-0.08617
26.27669,-0.10772
26.03562,-0.13626
25.79455,-0.16813
25.55348,-0.19047
25.31241,-0.19692
25.07134,-0.19591
24.83027,-0.19988
24.58920,-0.21538
24.34813,-0.24224
24.10706,-0.27411
23.86599,-0.29826
23.62491,-0.30120
23.38384,-0.28512
23.14277,-0.26795
22.90170,-0.26218
22.66063,-0.26606
22.41956,-0.27595
22.17849,-0.29398
21.93742,-0.31530
21.69635,-0.32691
21.45528,-0.32736
21.21421,-0.33282
20.97314,-0.35782
20.73207,-0.39533
20.49100,-0.41722
20.24993,-0.40315
20.00886,-0.36715
19.76779,-0.33142
19.52672,-0.30052
19.28564,-0.27785
19.04457,-0.28041
18.80350,-0.32445
18.56243,-0.39849
18.32136,-0.45535
18.08029,-0.46551
17.83922,-0.44994
17.59815,-0.43237
17.35708,-0.41596
17.11601,-0.41780
16.87494,-0.43857
16.63387,-0.46000
16.39280,-0.47053
16.15173,-0.47080
15.91066,-0.45375
15.66959,-0.43643
15.42852,-0.42918
15.18745,-0.38321
14.94637,-0.37261
14.70530,-0.41235
14.46423,-0.45797
14.22316,-0.47828
13.98209,-0.49131
13.74102,-0.47799
13.49995,-0.43150
13.25888,-0.40027
13.01781,-0.39399
12.77674,-0.40605
12.53567,-0.42187
12.29460,-0.42651
12.05353,-0.41759
11.81246,-0.41113
11.57139,-0.41870
11.33032,-0.41472
11.08925,-0.40384
10.84818,-0.40066
10.60710,-0.39760
10.36603,-0.38705
10.12496,-0.39065
9.88389,-0.40815
9.64282,-0.42081
9.40175,-0.41479
9.16068,-0.40388
8.91961,-0.41711
8.67854,-0.46624
8.43747,-0.51942
8.19640,-0.51043
7.95533,-0.48339
7.71426,-0.48259
7.47319,-0.49631
7.23212,-0.48908
6.99105,-0.47109
6.74998,-0.45609
6.50891,-0.45338
6.26783,-0.46929
6.02676,-0.47337
5.78569,-0.46587
5.54462,-0.46011
5.30355,-0.44945
5.06248,-0.43276
4.82141,-0.41560
4.58034,-0.41668
4.33927,-0.44436
4.09820,-0.46312
3.85713,-0.44491
3.61606,-0.42323
3.37499,-0.39737
3.13392,-0.37985
2.89285,-0.38755
2.65178,-0.41047
2.41071,-0.41182
2.16964,-0.39963
1.92856,-0.40121
1.68749,-0.41865
1.44642,-0.43084
1.20535,-0.41923
0.96428,-0.41893
0.72321,-0.43620
0.48214,-0.44968
0.24107,-0.40717
-0.00000,-0.07839
