399.69498,1.85664
399.45391,1.87396
399.21284,1.86862
398.97177,1.84558
398.73070,1.82847
398.48963,1.82343
398.24856,1.81808
398.00749,1.80454
397.76642,1.79438
397.52535,1.81702
397.28428,1.89529
397.04321,2.00051
396.80214,2.05197
396.56107,2.02740
396.32000,1.97506
396.07892,1.94761
395.83785,1.96563
395.59678,2.00633
395.35571,2.02508
395.11464,2.01248
394.87357,1.99391
394.63250,1.97484
394.39143,1.96128
394.15036,1.97966
393.90929,2.02659
393.66822,2.06224
393.42715,2.07349
393.18608,2.03973
392.94501,1.97665
392.70394,1.92929
392.46287,1.92531
392.22180,1.97963
391.98073,2.09009
391.73965,2.21962
391.49858,2.30216
391.25751,2.30191
391.01644,2.32930
390.77537,2.33707
390.53430,2.21087
390.29323,2.11029
390.05216,2.07765
389.81109,2.08726
389.57002,2.10759
389.32895,2.15475
389.08788,2.15662
388.84681,2.17111
388.60574,2.35911
388.36467,2.60972
388.12360,2.49890
387.88253,2.42914
387.64146,2.46114
387.40038,2.50147
387.15931,2.46231
386.91824,2.34856
386.67717,2.32217
386.43610,2.35227
386.19503,2.38712
385.95396,2.34308
385.71289,2.24336
385.47182,2.17266
385.23075,2.09713
384.98968,2.06117
384.74861,2.13938
384.50754,2.31828
384.26647,2.48643
384.02540,2.35330
383.78433,2.42158
383.54326,2.69464
383.30219,2.47143
383.06111,2.23081
382.82004,2.18238
382.57897,2.27317
382.33790,2.33670
382.09683,2.38878
381.85576,2.28665
381.61469,2.08789
381.37362,2.01458
381.13255,2.07385
380.89148,2.19190
380.65041,2.25995
380.40934,2.24732
380.16827,2.40208
379.92720,2.56631
379.68613,2.45968
379.44506,2.29375
379.20399,2.08862
378.96292,1.98075
378.72184,1.99904
378.48077,2.04392
378.23970,2.01878
377.99863,2.04561
377.75756,2.14026
377.51649,2.17990
377.27542,2.14341
377.03435,2.13986
376.79328,2.26414
376.55221,2.52028
376.31114,2.57768
376.07007,2.21742
375.82900,2.03540
375.58793,2.03984
375.34686,2.14453
375.10579,2.19601
374.86472,2.09992
374.62365,1.97535
374.38257,1.89555
374.14150,1.86580
373.90043,1.86358
373.65936,1.87315
373.41829,1.87621
373.17722,1.84535
372.93615,1.81979
372.69508,1.83418
372.45401,1.85418
372.21294,1.84539
371.97187,1.80903
371.73080,1.76311
371.48973,1.72598
371.24866,1.69656
371.00759,1.66961
370.76652,1.65288
370.52545,1.64913
370.28437,1.65541
370.04330,1.65158
369.80223,1.61593
369.56116,1.56467
369.32009,1.52939
369.07902,1.52623
368.83795,1.54515
368.59688,1.55342
368.35581,1.53041
368.11474,1.49566
367.87367,1.47674
367.63260,1.47287
367.39153,1.46439
367.15046,1.44562
366.90939,1.43165
366.66832,1.43314
366.42725,1.44062
366.18618,1.43729
365.94510,1.42167
365.70403,1.40784
365.46296,1.40713
365.22189,1.41753
364.98082,1.42734
364.73975,1.42551
364.49868,1.41074
364.25761,1.39263
364.01654,1.38429
363.77547,1.39164
363.53440,1.40775
363.29333,1.41991
363.05226,1.42165
362.81119,1.41450
362.57012,1.40384
362.32905,1.39769
362.08798,1.40405
361.84691,1.42168
361.60583,1.43374
361.36476,1.42358
361.12369,1.39692
360.88262,1.37398
360.64155,1.36615
360.40048,1.36788
360.15941,1.36852
359.91834,1.36774
359.67727,1.37456
359.43620,1.39252
359.19513,1.41047
358.95406,1.41248
358.71299,1.39490
358.47192,1.36744
358.23085,1.34242
357.98978,1.32945
357.74871,1.33464
357.50764,1.35675
357.26656,1.38537
357.02549,1.40801
356.78442,1.41998
356.54335,1.42242
356.30228,1.41544
356.06121,1.40137
355.82014,1.38763
355.57907,1.37968
355.33800,1.37578
355.09693,1.37297
354.85586,1.37203
354.61479,1.37308
354.37372,1.37462
354.13265,1.37842
353.89158,1.38826
353.65051,1.40110
353.40944,1.40640
353.16837,1.39902
352.92729,1.38731
352.68622,1.38337
352.44515,1.39030
352.20408,1.40103
351.96301,1.40976
351.72194,1.41867
351.48087,1.42861
351.23980,1.43134
350.99873,1.42062
350.75766,1.40534
350.51659,1.39834
350.27552,1.40014
350.03445,1.40341
349.79338,1.40499
349.55231,1.40641
349.31124,1.40741
349.07017,1.40519
348.82910,1.39947
348.58802,1.39683
348.34695,1.40167
348.10588,1.40696
347.86481,1.40750
347.62374,1.41084
347.38267,1.42700
347.14160,1.45180
346.90053,1.46934
346.65946,1.47417
346.41839,1.47879
346.17732,1.49287
345.93625,1.50904
345.69518,1.51557
345.45411,1.51523
345.21304,1.51822
344.97197,1.52556
344.73090,1.53126
344.48983,1.53454
344.24875,1.54099
344.00768,1.55169
343.76661,1.56221
343.52554,1.57378
343.28447,1.59332
343.04340,1.61724
342.80233,1.62759
342.56126,1.61742
342.32019,1.60776
342.07912,1.61973
341.83805,1.64122
341.59698,1.64234
341.35591,1.62114
341.11484,1.60415
340.87377,1.60836
340.63270,1.62771
340.39163,1.64944
340.15056,1.67139
339.90948,1.69218
339.66841,1.69884
339.42734,1.68424
339.18627,1.67221
338.94520,1.69362
338.70413,1.74466
338.46306,1.78347
338.22199,1.77748
337.98092,1.74433
337.73985,1.72370
337.49878,1.74466
337.25771,1.81222
337.01664,1.89660
336.77557,1.95004
336.53450,1.96303
336.29343,1.95965
336.05236,1.95238
335.81129,1.94192
335.57021,1.92182
335.32914,1.88321
335.08807,1.83102
334.84700,1.78830
334.60593,1.77640
334.36486,1.78913
334.12379,1.79946
333.88272,1.81259
333.64165,1.86943
333.40058,1.95766
333.15951,1.97825
332.91844,1.90141
332.67737,1.82156
332.43630,1.78829
332.19523,1.78915
331.95416,1.79398
331.71309,1.77945
331.47202,1.74380
331.23094,1.69002
330.98987,1.62917
330.74880,1.58543
330.50773,1.56817
330.26666,1.57500
330.02559,1.60293
329.78452,1.64574
329.54345,1.68709
329.30238,1.71203
329.06131,1.73152
328.82024,1.75706
328.57917,1.77190
328.33810,1.76020
328.09703,1.73493
327.85596,1.70733
327.61489,1.67911
327.37382,1.65234
327.13275,1.63413
326.89167,1.64116
326.65060,1.68235
326.40953,1.74348
326.16846,1.79704
325.92739,1.83614
325.68632,1.85243
325.44525,1.82196
325.20418,1.77353
324.96311,1.74884
324.72204,1.75821
324.48097,1.79026
324.23990,1.82111
323.99883,1.83220
323.75776,1.84441
323.51669,1.87265
323.27562,1.88742
323.03455,1.86750
322.79348,1.83795
322.55240,1.82730
322.31133,1.84472
322.07026,1.87672
321.82919,1.89802
321.58812,1.92722
321.34705,1.97586
321.10598,1.98535
320.86491,1.95721
320.62384,1.95028
320.38277,1.98882
320.14170,2.02671
319.90063,1.99906
319.65956,1.92642
319.41849,1.91003
319.17742,1.97698
318.93635,2.04775
318.69528,2.04608
318.45421,1.99331
318.21313,1.96607
317.97206,2.01749
317.73099,2.05892
317.48992,2.06187
317.24885,2.09676
317.00778,2.02049
316.76671,1.90897
316.52564,1.85929
316.28457,1.85698
316.04350,1.87189
315.80243,1.90084
315.56136,1.95871
315.32029,2.05984
315.07922,2.16884
314.83815,2.23312
314.59708,2.30174
314.35601,2.36158
314.11494,2.30711
313.87386,2.23395
313.63279,2.28166
313.39172,2.40345
313.15065,2.62737
312.90958,2.56538
312.66851,2.39983
312.42744,2.41969
312.18637,2.40071
311.94530,2.21925
311.70423,2.08989
311.46316,2.03335
311.22209,1.99095
310.98102,1.99413
310.73995,2.06883
310.49888,2.23113
310.25781,2.38604
310.01674,2.28815
309.77567,2.22725
309.53459,2.28762
309.29352,2.40351
309.05245,2.43935
308.81138,2.37114
308.57031,2.32774
308.32924,2.26965
308.08817,2.24750
307.84710,2.28675
307.60603,2.21029
307.36496,2.08096
307.12389,1.97512
306.88282,1.90428
306.64175,1.86264
306.40068,1.84050
306.15961,1.83902
305.91854,1.85028
305.67747,1.84080
305.43640,1.78308
305.19532,1.70413
304.95425,1.64720
304.71318,1.62363
304.47211,1.61845
304.23104,1.60814
303.98997,1.58526
303.74890,1.56300
303.50783,1.54830
303.26676,1.53504
303.02569,1.51582
302.78462,1.48771
302.54355,1.45121
302.30248,1.41194
302.06141,1.37897
301.82034,1.35706
301.57927,1.34578
301.33820,1.34364
301.09713,1.34655
300.85605,1.34584
300.61498,1.33546
300.37391,1.31910
300.13284,1.30477
299.89177,1.29473
299.65070,1.28608
299.40963,1.27807
299.16856,1.27336
298.92749,1.27202
298.68642,1.26837
298.44535,1.25826
298.20428,1.24644
297.96321,1.24130
297.72214,1.24280
297.48107,1.24191
297.24000,1.23129
296.99893,1.21133
296.75786,1.18828
296.51678,1.17173
296.27571,1.16868
296.03464,1.17575
295.79357,1.18011
295.55250,1.17188
295.31143,1.15481
295.07036,1.14185
294.82929,1.14170
294.58822,1.15128
294.34715,1.15922
294.10608,1.15667
293.86501,1.14520
293.62394,1.13210
293.38287,1.12266
293.14180,1.11732
292.90073,1.11311
292.65966,1.10795
292.41859,1.10274
292.17751,1.09905
291.93644,1.09693
291.69537,1.09596
291.45430,1.09606
291.21323,1.09662
290.97216,1.09644
290.73109,1.09434
290.49002,1.08974
290.24895,1.08334
290.00788,1.07718
289.76681,1.07349
289.52574,1.07307
289.28467,1.07463
289.04360,1.07497
288.80253,1.07113
288.56146,1.06430
288.32039,1.05975
288.07932,1.06022
287.83824,1.06193
287.59717,1.06026
287.35610,1.05631
287.11503,1.05366
286.87396,1.05270
286.63289,1.05217
286.39182,1.05147
286.15075,1.04900
285.90968,1.04271
285.66861,1.03389
285.42754,1.02708
285.18647,1.02479
284.94540,1.02577
284.70433,1.02805
284.46326,1.03049
284.22219,1.03173
283.98112,1.03045
283.74005,1.02743
283.49897,1.02521
283.25790,1.02497
283.01683,1.02560
282.77576,1.02600
282.53469,1.02620
282.29362,1.02574
282.05255,1.02364
281.81148,1.01997
281.57041,1.01564
281.32934,1.01102
281.08827,1.00680
280.84720,1.00516
280.60613,1.00813
280.36506,1.01494
280.12399,1.02143
279.88292,1.02304
279.64185,1.01880
279.40078,1.01182
279.15970,1.00605
278.91863,1.00359
278.67756,1.00417
278.43649,1.00578
278.19542,1.00651
277.95435,1.00623
277.71328,1.00592
277.47221,1.00599
277.23114,1.00634
276.99007,1.00707
276.74900,1.00841
276.50793,1.01046
276.26686,1.01308
276.02579,1.01604
275.78472,1.01951
275.54365,1.02320
275.30258,1.02447
275.06151,1.02058
274.82043,1.01346
274.57936,1.00871
274.33829,1.00964
274.09722,1.01465
273.85615,1.01985
273.61508,1.02330
273.37401,1.02552
273.13294,1.02663
272.89187,1.02579
272.65080,1.02376
272.40973,1.02282
272.16866,1.02368
271.92759,1.02539
271.68652,1.02729
271.44545,1.02965
271.20438,1.03368
270.96331,1.03977
270.72224,1.04488
270.48116,1.04487
270.24009,1.04061
269.99902,1.03744
269.75795,1.03857
269.51688,1.04342
269.27581,1.05026
269.03474,1.05643
268.79367,1.05909
268.55260,1.05884
268.31153,1.05970
268.07046,1.06445
267.82939,1.07214
267.58832,1.07980
267.34725,1.08499
267.10618,1.08807
266.86511,1.09163
266.62404,1.09644
266.38297,1.10057
266.14189,1.10341
265.90082,1.10727
265.65975,1.11420
265.41868,1.12400
265.17761,1.13525
264.93654,1.14575
264.69547,1.15315
264.45440,1.15665
264.21333,1.15677
263.97226,1.15398
263.73119,1.14970
263.49012,1.14734
263.24905,1.15116
263.00798,1.16476
262.76691,1.18856
262.52584,1.21727
262.28477,1.24210
262.04370,1.25776
261.80262,1.26567
261.56155,1.27129
261.32048,1.28047
261.07941,1.29448
260.83834,1.30710
260.59727,1.31283
260.35620,1.31704
260.11513,1.33063
259.87406,1.35773
259.63299,1.39237
259.39192,1.42441
259.15085,1.44771
258.90978,1.46353
258.66871,1.47613
258.42764,1.48808
258.18657,1.50153
257.94550,1.51969
257.70443,1.54500
257.46335,1.57897
257.22228,1.62268
256.98121,1.67142
256.74014,1.71497
256.49907,1.75021
256.25800,1.78524
256.01693,1.82765
255.77586,1.86201
255.53479,1.85736
255.29372,1.82826
255.05265,1.82762
254.81158,1.88324
254.57051,1.98159
254.32944,2.07705
254.08837,2.13149
253.84730,2.14042
253.60623,2.11867
253.36516,2.11585
253.12408,2.17572
252.88301,2.28254
252.64194,2.36228
252.40087,2.37984
252.15980,2.42471
251.91873,2.54618
251.67766,2.51764
251.43659,2.43325
251.19552,2.44318
250.95445,2.48600
250.71338,2.51665
250.47231,2.55373
250.23124,2.54643
249.99017,2.50670
249.74910,2.48327
249.50803,2.50274
249.26696,2.68153
249.02589,2.90414
248.78481,2.63599
248.54374,2.42361
248.30267,2.36054
248.06160,2.34696
247.82053,2.33071
247.57946,2.34748
247.33839,2.43271
247.09732,2.56975
246.85625,2.59180
246.61518,2.51695
246.37411,2.43753
246.13304,2.36597
245.89197,2.29709
245.65090,2.24545
245.40983,2.19658
245.16876,2.11958
244.92769,2.00913
244.68661,1.89679
244.44554,1.81112
244.20447,1.75614
243.96340,1.71815
243.72233,1.68116
243.48126,1.63491
243.24019,1.57333
242.99912,1.50509
242.75805,1.44347
242.51698,1.38985
242.27591,1.33927
242.03484,1.29091
241.79377,1.24670
241.55270,1.20472
241.31163,1.16148
241.07056,1.11918
240.82949,1.08373
240.58842,1.05706
240.34734,1.03512
240.10627,1.01261
239.86520,0.98772
239.62413,0.96260
239.38306,0.93972
239.14199,0.91830
238.90092,0.89582
238.65985,0.87280
238.41878,0.85315
238.17771,0.83928
237.93664,0.82915
237.69557,0.81853
237.45450,0.80555
237.21343,0.79200
236.97236,0.78001
236.73129,0.76893
236.49022,0.75737
236.24915,0.74714
236.00807,0.74139
235.76700,0.73965
235.52593,0.73814
235.28486,0.73452
235.04379,0.72954
234.80272,0.72448
234.56165,0.71959
234.32058,0.71494
234.07951,0.71129
233.83844,0.70903
233.59737,0.70710
233.35630,0.70438
233.11523,0.70126
232.87416,0.69861
232.63309,0.69658
232.39202,0.69502
232.15095,0.69352
231.90988,0.69063
231.66880,0.68537
231.42773,0.67946
231.18666,0.67628
230.94559,0.67734
230.70452,0.68014
230.46345,0.68066
230.22238,0.67827
229.98131,0.67607
229.74024,0.67591
229.49917,0.67628
229.25810,0.67545
229.01703,0.67349
228.77596,0.67100
228.53489,0.66849
228.29382,0.66656
228.05275,0.66555
227.81168,0.66535
227.57061,0.66592
227.32953,0.66753
227.08846,0.67041
226.84739,0.67418
226.60632,0.67786
226.36525,0.68010
226.12418,0.67971
225.88311,0.67675
225.64204,0.67300
225.40097,0.67038
225.15990,0.66946
224.91883,0.67046
224.67776,0.67381
224.43669,0.67851
224.19562,0.68206
223.95455,0.68318
223.71348,0.68356
223.47241,0.68608
223.23134,0.69200
222.99026,0.70019
222.74919,0.70830
222.50812,0.71418
222.26705,0.71704
222.02598,0.71839
221.78491,0.72104
221.54384,0.72632
221.30277,0.73315
221.06170,0.74042
220.82063,0.74841
220.57956,0.75673
220.33849,0.76328
220.09742,0.76709
219.85635,0.77039
219.61528,0.77609
219.37421,0.78457
219.13314,0.79487
218.89207,0.80756
218.65099,0.82340
218.40992,0.84003
218.16885,0.85353
217.92778,0.86274
217.68671,0.86980
217.44564,0.87767
217.20457,0.88857
216.96350,0.90301
216.72243,0.91912
216.48136,0.93351
216.24029,0.94382
215.99922,0.95071
215.75815,0.95721
215.51708,0.96581
215.27601,0.97653
215.03494,0.98749
214.79387,0.99715
214.55280,1.00587
214.31172,1.01525
214.07065,1.02564
213.82958,1.03474
213.58851,1.03983
213.34744,1.04156
213.10637,1.04416
212.86530,1.05204
212.62423,1.06558
212.38316,1.08019
212.14209,1.09119
211.90102,1.09864
211.65995,1.10463
211.41888,1.10824
211.17781,1.10677
210.93674,1.10048
210.69567,1.09370
210.45460,1.09134
210.21353,1.09502
209.97245,1.10162
209.73138,1.10489
209.49031,1.10054
209.24924,1.09099
209.00817,1.08208
208.76710,1.07574
208.52603,1.06952
208.28496,1.06226
208.04389,1.05590
207.80282,1.05223
207.56175,1.05003
207.32068,1.04605
207.07961,1.03852
206.83854,1.02938
206.59747,1.02211
206.35640,1.01768
206.11533,1.01367
205.87426,1.00745
205.63318,0.99931
205.39211,0.99162
205.15104,0.98482
204.90997,0.97603
204.66890,0.96347
204.42783,0.94907
204.18676,0.93423
203.94569,0.91787
203.70462,0.90099
203.46355,0.88743
203.22248,0.87828
202.98141,0.87009
202.74034,0.85939
202.49927,0.84598
202.25820,0.83175
202.01713,0.81863
201.77606,0.80748
201.53499,0.79751
201.29391,0.78691
201.05284,0.77471
200.81177,0.76158
200.57070,0.74886
200.32963,0.73735
200.08856,0.72680
199.84749,0.71643
199.60642,0.70599
199.36535,0.69598
199.12428,0.68683
198.88321,0.67858
198.64214,0.67098
198.40107,0.66327
198.16000,0.65457
197.91893,0.64496
197.67786,0.63560
197.43679,0.62747
197.19572,0.62038
196.95464,0.61335
196.71357,0.60588
196.47250,0.59852
196.23143,0.59205
195.99036,0.58621
195.74929,0.58025
195.50822,0.57446
195.26715,0.56983
195.02608,0.56610
194.78501,0.56144
194.54394,0.55455
194.30287,0.54649
194.06180,0.53971
193.82073,0.53559
193.57966,0.53311
193.33859,0.52998
193.09752,0.52498
192.85645,0.51902
192.61537,0.51381
192.37430,0.51002
192.13323,0.50712
191.89216,0.50451
191.65109,0.50199
191.41002,0.49938
191.16895,0.49651
190.92788,0.49349
190.68681,0.49078
190.44574,0.48899
190.20467,0.48845
189.96360,0.48868
189.72253,0.48824
189.48146,0.48573
189.24039,0.48101
188.99932,0.47563
188.75825,0.47179
188.51718,0.47081
188.27610,0.47201
188.03503,0.47328
187.79396,0.47294
187.55289,0.47091
187.31182,0.46815
187.07075,0.46592
186.82968,0.46536
186.58861,0.46680
186.34754,0.46898
186.10647,0.47009
185.86540,0.46975
185.62433,0.46899
185.38326,0.46861
185.14219,0.46876
184.90112,0.46946
184.66005,0.47062
184.41898,0.47201
184.17791,0.47386
183.93683,0.47657
183.69576,0.47968
183.45469,0.48215
183.21362,0.48380
182.97255,0.48548
182.73148,0.48800
182.49041,0.49097
182.24934,0.49299
182.00827,0.49318
181.76720,0.49239
181.52613,0.49214
181.28506,0.49271
181.04399,0.49332
180.80292,0.49361
180.56185,0.49408
180.32078,0.49551
180.07971,0.49851
179.83864,0.50320
179.59756,0.50889
179.35649,0.51441
179.11542,0.51915
178.87435,0.52410
178.63328,0.53107
178.39221,0.54029
178.15114,0.54999
177.91007,0.55903
177.66900,0.56814
177.42793,0.57794
177.18686,0.58785
176.94579,0.59804
176.70472,0.61008
176.46365,0.62483
176.22258,0.64109
175.98151,0.65692
175.74044,0.67142
175.49937,0.68534
175.25829,0.70039
175.01722,0.71778
174.77615,0.73682
174.53508,0.75575
174.29401,0.77392
174.05294,0.79256
173.81187,0.81272
173.57080,0.83322
173.32973,0.85112
173.08866,0.86392
172.84759,0.87102
172.60652,0.87419
172.36545,0.87662
172.12438,0.88028
171.88331,0.88379
171.64224,0.88440
171.40117,0.88140
171.16010,0.87667
170.91902,0.87194
170.67795,0.86724
170.43688,0.86201
170.19581,0.85667
169.95474,0.85227
169.71367,0.84866
169.47260,0.84444
169.23153,0.83912
168.99046,0.83398
168.74939,0.83000
168.50832,0.82628
168.26725,0.82141
168.02618,0.81574
167.78511,0.81126
167.54404,0.80945
167.30297,0.80978
167.06190,0.81088
166.82083,0.81247
166.57975,0.81532
166.33868,0.81993
166.09761,0.82554
165.85654,0.83049
165.61547,0.83402
165.37440,0.83785
165.13333,0.84479
164.89226,0.85549
164.65119,0.86742
164.41012,0.87782
164.16905,0.88666
163.92798,0.89583
163.68691,0.90591
163.44584,0.91485
163.20477,0.92058
162.96370,0.92426
162.72263,0.92967
162.48156,0.93877
162.24048,0.94888
161.99941,0.95551
161.75834,0.95758
161.51727,0.95766
161.27620,0.95737
161.03513,0.95636
160.79406,0.95539
160.55299,0.95619
160.31192,0.95811
160.07085,0.95827
159.82978,0.95525
159.58871,0.95041
159.34764,0.94550
159.10657,0.94023
158.86550,0.93255
158.62443,0.92161
158.38336,0.91001
158.14229,0.90214
157.90121,0.90013
157.66014,0.90172
157.41907,0.90289
157.17800,0.90159
156.93693,0.89835
156.69586,0.89388
156.45479,0.88775
156.21372,0.87979
155.97265,0.87138
155.73158,0.86431
155.49051,0.85882
155.24944,0.85339
155.00837,0.84624
154.76730,0.83687
154.52623,0.82601
154.28516,0.81441
154.04409,0.80193
153.80302,0.78765
153.56194,0.77099
153.32087,0.75280
153.07980,0.73511
152.83873,0.71935
152.59766,0.70497
152.35659,0.69024
152.11552,0.67427
151.87445,0.65782
151.63338,0.64210
151.39231,0.62749
151.15124,0.61352
150.91017,0.59975
150.66910,0.58626
150.42803,0.57301
150.18696,0.55906
149.94589,0.54407
149.70482,0.52982
149.46375,0.51857
149.22267,0.51043
148.98160,0.50368
148.74053,0.49739
148.49946,0.49233
148.25839,0.48921
148.01732,0.48707
147.77625,0.48418
147.53518,0.48022
147.29411,0.47669
147.05304,0.47481
146.81197,0.47442
146.57090,0.47501
146.32983,0.47632
146.08876,0.47787
145.84769,0.47939
145.60662,0.48186
145.36555,0.48673
145.12448,0.49395
144.88340,0.50187
144.64233,0.50907
144.40126,0.51532
144.16019,0.52069
143.91912,0.52428
143.67805,0.52473
143.43698,0.52178
143.19591,0.51634
142.95484,0.50910
142.71377,0.50029
142.47270,0.49037
142.23163,0.48027
141.99056,0.47085
141.74949,0.46252
141.50842,0.45525
141.26735,0.44886
141.02628,0.44333
140.78521,0.43902
140.54413,0.43663
140.30306,0.43689
140.06199,0.43969
139.82092,0.44363
139.57985,0.44724
139.33878,0.45064
139.09771,0.45490
138.85664,0.46018
138.61557,0.46579
138.37450,0.47223
138.13343,0.48125
137.89236,0.49343
137.65129,0.50713
137.41022,0.52082
137.16915,0.53522
136.92808,0.55199
136.68701,0.57123
136.44594,0.59145
136.20486,0.61121
135.96379,0.63024
135.72272,0.64960
135.48165,0.67084
135.24058,0.69447
134.99951,0.71996
134.75844,0.74715
134.51737,0.77612
134.27630,0.80570
134.03523,0.83288
133.79416,0.85522
133.55309,0.87340
133.31202,0.88987
133.07095,0.90575
132.82988,0.92079
132.58881,0.93403
132.34774,0.94331
132.10667,0.94707
131.86559,0.94736
131.62452,0.94679
131.38345,0.94244
131.14238,0.92858
130.90131,0.90604
130.66024,0.88240
130.41917,0.86306
130.17810,0.84576
129.93703,0.82353
129.69596,0.79227
129.45489,0.75504
129.21382,0.71856
128.97275,0.68698
128.73168,0.65976
128.49061,0.63411
128.24954,0.60834
128.00847,0.58297
127.76740,0.55926
127.52632,0.53756
127.28525,0.51692
127.04418,0.49649
126.80311,0.47691
126.56204,0.45965
126.32097,0.44515
126.07990,0.43258
125.83883,0.42104
125.59776,0.40994
125.35669,0.39904
125.11562,0.38891
124.87455,0.38084
124.63348,0.37498
124.39241,0.36943
124.15134,0.36240
123.91027,0.35455
123.66920,0.34798
123.42812,0.34353
123.18705,0.34039
122.94598,0.33781
122.70491,0.33609
122.46384,0.33574
122.22277,0.33669
121.98170,0.33841
121.74063,0.34060
121.49956,0.34354
121.25849,0.34774
121.01742,0.35352
120.77635,0.36112
120.53528,0.37047
120.29421,0.38062
120.05314,0.39026
119.81207,0.40001
119.57100,0.41294
119.32993,0.43149
119.08885,0.45463
118.84778,0.47917
118.60671,0.50340
118.36564,0.52827
118.12457,0.55483
117.88350,0.58188
117.64243,0.60649
117.40136,0.62592
117.16029,0.63849
116.91922,0.64388
116.67815,0.64333
116.43708,0.63898
116.19601,0.63224
115.95494,0.62339
115.71387,0.61255
115.47280,0.60009
115.23173,0.58637
114.99066,0.57256
114.74958,0.56061
114.50851,0.55131
114.26744,0.54362
114.02637,0.53677
113.78530,0.53099
113.54423,0.52633
113.30316,0.52279
113.06209,0.52165
112.82102,0.52493
112.57995,0.53300
112.33888,0.54362
112.09781,0.55346
111.85674,0.56046
111.61567,0.56472
111.37460,0.56753
111.13353,0.57030
110.89246,0.57423
110.65139,0.57912
110.41031,0.58246
110.16924,0.58100
109.92817,0.57331
109.68710,0.56011
109.44603,0.54320
109.20496,0.52480
108.96389,0.50650
108.72282,0.48823
108.48175,0.46941
108.24068,0.45089
107.99961,0.43410
107.75854,0.41874
107.51747,0.40316
107.27640,0.38717
107.03533,0.37267
106.79426,0.36122
106.55319,0.35208
106.31212,0.34289
106.07104,0.33196
105.82997,0.31982
105.58890,0.30876
105.34783,0.30058
105.10676,0.29446
104.86569,0.28787
104.62462,0.27960
104.38355,0.27092
104.14248,0.26339
103.90141,0.25704
103.66034,0.25136
103.41927,0.24648
103.17820,0.24238
102.93713,0.23830
102.69606,0.23368
102.45499,0.22889
102.21392,0.22445
101.97285,0.22029
101.73177,0.21618
101.49070,0.21260
101.24963,0.21033
101.00856,0.20924
100.76749,0.20784
100.52642,0.20495
100.28535,0.20136
100.04428,0.19889
99.80321,0.19801
99.56214,0.19749
99.32107,0.19623
99.08000,0.19435
98.83893,0.19242
98.59786,0.19074
98.35679,0.18964
98.11572,0.18951
97.87465,0.19033
97.63358,0.19172
97.39250,0.19351
97.15143,0.19579
96.91036,0.19847
96.66929,0.20135
96.42822,0.20482
96.18715,0.20982
95.94608,0.21680
95.70501,0.22490
95.46394,0.23274
95.22287,0.23953
94.98180,0.24515
94.74073,0.24953
94.49966,0.25268
94.25859,0.25524
94.01752,0.25822
93.77645,0.26156
93.53538,0.26372
93.29431,0.26360
93.05323,0.26234
92.81216,0.26188
92.57109,0.26255
92.33002,0.26347
92.08895,0.26481
91.84788,0.26796
91.60681,0.27394
91.36574,0.28256
91.12467,0.29347
90.88360,0.30752
90.64253,0.32666
90.40146,0.35245
90.16039,0.38496
89.91932,0.42265
89.67825,0.46264
89.43718,0.50160
89.19611,0.53705
88.95504,0.56648
88.71396,0.58475
88.47289,0.58568
88.23182,0.56835
87.99075,0.53857
87.74968,0.50293
87.50861,0.46468
87.26754,0.42532
87.02647,0.38690
86.78540,0.35176
86.54433,0.32159
86.30326,0.29739
86.06219,0.27902
85.82112,0.26435
85.58005,0.24994
85.33898,0.23382
85.09791,0.21711
84.85684,0.20187
84.61577,0.18884
84.37469,0.17799
84.13362,0.16967
83.89255,0.16405
83.65148,0.16025
83.41041,0.15686
83.16934,0.15279
82.92827,0.14768
82.68720,0.14218
82.44613,0.13738
82.20506,0.13341
81.96399,0.12948
81.72292,0.12530
81.48185,0.12201
81.24078,0.12088
80.99971,0.12143
80.75864,0.12191
80.51757,0.12138
80.27650,0.12020
80.03542,0.11870
79.79435,0.11683
79.55328,0.11505
79.31221,0.11415
79.07114,0.11423
78.83007,0.11430
78.58900,0.11318
78.34793,0.11072
78.10686,0.10803
77.86579,0.10619
77.62472,0.10516
77.38365,0.10467
77.14258,0.10494
76.90151,0.10576
76.66044,0.10608
76.41937,0.10548
76.17830,0.10467
75.93723,0.10379
75.69615,0.10177
75.45508,0.09820
75.21401,0.09429
74.97294,0.09132
74.73187,0.08961
74.49080,0.08915
74.24973,0.09005
74.00866,0.09208
73.76759,0.09445
73.52652,0.09632
73.28545,0.09754
73.04438,0.09879
72.80331,0.10056
72.56224,0.10170
72.32117,0.10043
72.08010,0.09732
71.83903,0.09559
71.59796,0.09732
71.35688,0.10114
71.11581,0.10477
70.87474,0.10823
70.63367,0.11314
70.39260,0.12012
70.15153,0.12864
69.91046,0.13856
69.66939,0.15018
69.42832,0.16252
69.18725,0.17245
68.94618,0.17635
68.70511,0.17270
68.46404,0.16313
68.22297,0.15088
67.98190,0.13849
67.74083,0.12708
67.49976,0.11737
67.25869,0.11024
67.01761,0.10581
66.77654,0.10283
66.53547,0.09969
66.29440,0.09581
66.05333,0.09191
65.81226,0.08934
65.57119,0.08905
65.33012,0.09100
65.08905,0.09465
64.84798,0.09942
64.60691,0.10459
64.36584,0.10953
64.12477,0.11400
63.88370,0.11726
63.64263,0.11762
63.40156,0.11438
63.16049,0.10930
62.91942,0.10476
62.67834,0.10128
62.43727,0.09784
62.19620,0.09394
61.95513,0.09040
61.71406,0.08822
61.47299,0.08723
61.23192,0.08620
60.99085,0.08445
60.74978,0.08251
60.50871,0.08101
60.26764,0.07998
60.02657,0.07920
59.78550,0.07835
59.54443,0.07689
59.30336,0.07468
59.06229,0.07265
58.82122,0.07184
58.58015,0.07202
58.33907,0.07205
58.09800,0.07138
57.85693,0.07061
57.61586,0.07091
57.37479,0.07245
57.13372,0.07338
56.89265,0.07173
56.65158,0.06834
56.41051,0.06599
56.16944,0.06603
55.92837,0.06787
55.68730,0.07074
55.44623,0.07386
55.20516,0.07558
54.96409,0.07467
54.72302,0.07221
54.48195,0.07053
54.24088,0.07032
53.99980,0.07046
53.75873,0.07058
53.51766,0.07183
53.27659,0.07510
53.03552,0.07976
52.79445,0.08401
52.55338,0.08581
52.31231,0.08425
52.07124,0.08050
51.83017,0.07694
51.58910,0.07486
51.34803,0.07387
51.10696,0.07318
50.86589,0.07224
50.62482,0.07043
50.38375,0.06711
50.14268,0.06265
49.90161,0.05861
49.66053,0.05587
49.41946,0.05367
49.17839,0.05126
48.93732,0.04956
48.69625,0.04987
48.45518,0.05151
48.21411,0.05214
47.97304,0.05058
47.73197,0.04857
47.49090,0.04822
47.24983,0.04810
47.00876,0.04503
46.76769,0.03965
46.52662,0.03623
46.28555,0.03706
46.04448,0.03999
45.80341,0.04165
45.56234,0.04072
45.32126,0.03815
45.08019,0.03614
44.83912,0.03665
44.59805,0.03985
44.35698,0.04459
44.11591,0.04978
43.87484,0.05373
43.63377,0.05368
43.39270,0.04796
43.15163,0.03875
42.91056,0.03127
42.66949,0.02894
42.42842,0.03028
42.18735,0.03202
41.94628,0.03361
41.70521,0.03602
41.46414,0.03796
41.22307,0.03777
40.98199,0.03762
40.74092,0.04042
40.49985,0.04290
40.25878,0.03909
40.01771,0.03124
39.77664,0.02934
39.53557,0.03788
39.29450,0.05111
39.05343,0.06242
38.81236,0.06993
38.57129,0.07388
38.33022,0.07552
38.08915,0.07701
37.84808,0.07903
37.60701,0.07951
37.36594,0.07664
37.12487,0.07242
36.88380,0.07190
36.64272,0.07674
36.40165,0.08067
36.16058,0.07611
35.91951,0.06483
35.67844,0.05638
35.43737,0.05639
35.19630,0.06081
34.95523,0.06123
34.71416,0.05558
34.47309,0.05138
34.23202,0.05527
33.99095,0.06376
33.74988,0.06984
33.50881,0.07627
33.26774,0.09050
33.02667,0.11072
32.78560,0.13055
32.54453,0.14652
32.30345,0.15488
32.06238,0.15018
31.82131,0.13067
31.58024,0.10242
31.33917,0.07643
31.09810,0.06347
30.85703,0.06678
30.61596,0.07927
30.37489,0.09243
30.13382,0.10267
29.89275,0.10679
29.65168,0.10390
29.41061,0.10290
29.16954,0.11603
28.92847,0.14046
28.68740,0.15533
28.44633,0.14950
28.20526,0.13642
27.96418,0.12953
27.72311,0.12856
27.48204,0.13324
27.24097,0.14713
26.99990,0.16496
26.75883,0.17386
26.51776,0.16477
26.27669,0.14386
26.03562,0.13920
25.79455,0.17069
25.55348,0.20871
25.31241,0.21243
25.07134,0.19018
24.83027,0.17797
24.58920,0.18372
24.34813,0.18783
24.10706,0.18448
23.86599,0.19019
23.62491,0.21259
23.38384,0.23804
23.14277,0.25746
22.90170,0.27893
22.66063,0.30453
22.41956,0.31892
22.17849,0.31489
21.93742,0.30998
21.69635,0.31966
21.45528,0.33635
21.21421,0.34287
20.97314,0.33334
20.73207,0.31905
20.49100,0.31011
20.24993,0.31486
20.00886,0.35068
19.76779,0.41923
19.52672,0.47457
19.28564,0.47852
19.04457,0.46250
18.80350,0.47458
18.56243,0.52423
18.32136,0.57593
18.08029,0.58029
17.83922,0.54943
17.59815,0.55529
17.35708,0.63783
17.11601,0.73306
16.87494,0.72519
16.63387,0.65206
16.39280,0.60642
16.15173,0.58896
15.91066,0.56783
15.66959,0.55691
15.42852,0.56410
15.18745,0.56761
14.94637,0.61297
14.70530,0.65909
14.46423,0.62160
14.22316,0.67978
13.98209,0.95193
13.74102,1.05923
13.49995,0.91093
13.25888,0.79574
13.01781,0.77209
12.77674,0.75437
12.53567,0.77747
12.29460,0.90541
12.05353,1.05488
11.81246,1.03772
11.57139,0.94210
11.33032,0.92346
11.08925,1.05306
10.84818,1.15693
10.60710,0.91495
10.36603,0.85767
10.12496,0.97550
9.88389,1.08107
9.64282,0.85213
9.40175,0.70374
9.16068,0.67350
8.91961,0.68133
8.67854,0.72246
8.43747,0.76424
8.19640,0.79918
7.95533,0.88865
7.71426,0.98073
7.47319,1.00043
7.23212,1.01465
6.99105,1.11621
6.74998,1.18443
6.50891,1.03189
6.26783,0.94277
6.02676,1.00187
5.78569,1.17844
5.54462,1.17130
5.30355,1.24151
5.06248,1.32138
4.82141,1.08002
4.58034,0.94965
4.33927,0.91186
4.09820,0.87376
3.85713,0.84419
3.61606,0.78611
3.37499,0.71113
3.13392,0.73966
2.89285,0.98736
2.65178,1.18322
2.41071,0.95052
2.16964,0.88744
1.92856,0.95285
1.68749,1.01541
1.44642,0.97933
1.20535,0.95872
0.96428,1.01319
0.72321,1.10082
0.48214,1.20756
0.24107,1.26146
-0.00000,0.42321
