399.69498,1.43243
399.45391,1.43754
399.21284,1.44216
398.97177,1.44944
398.73070,1.46019
398.48963,1.47021
398.24856,1.47447
398.00749,1.47151
397.76642,1.46286
397.52535,1.45278
397.28428,1.44675
397.04321,1.44422
396.80214,1.43858
396.56107,1.42942
396.32000,1.42592
396.07892,1.43453
395.83785,1.44884
395.59678,1.45725
395.35571,1.45737
395.11464,1.45285
394.87357,1.44440
394.63250,1.43340
394.39143,1.42538
394.15036,1.42611
393.90929,1.43587
393.66822,1.44828
393.42715,1.45646
393.18608,1.46122
392.94501,1.46926
392.70394,1.48025
392.46287,1.48348
392.22180,1.47231
391.98073,1.45361
391.73965,1.43984
391.49858,1.43754
391.25751,1.44376
391.01644,1.45268
390.77537,1.45912
390.53430,1.45653
390.29323,1.44706
390.05216,1.44414
389.81109,1.45432
389.57002,1.47000
389.32895,1.47841
389.08788,1.47431
388.84681,1.46415
388.60574,1.45830
388.36467,1.46150
388.12360,1.46779
387.88253,1.46321
387.64146,1.44050
387.40038,1.41032
387.15931,1.39163
386.91824,1.39252
386.67717,1.40121
386.43610,1.39822
386.19503,1.37933
385.95396,1.35664
385.71289,1.34154
385.47182,1.33750
385.23075,1.34171
384.98968,1.34607
384.74861,1.34274
384.50754,1.33395
384.26647,1.32960
384.02540,1.33291
383.78433,1.33576
383.54326,1.33073
383.30219,1.32229
383.06111,1.31733
382.82004,1.31289
382.57897,1.30253
382.33790,1.28831
382.09683,1.28056
381.85576,1.28883
381.61469,1.30959
381.37362,1.32461
381.13255,1.31958
380.89148,1.29913
380.65041,1.28030
380.40934,1.27362
380.16827,1.27795
379.92720,1.28403
379.68613,1.28079
379.44506,1.26756
379.20399,1.25706
378.96292,1.26051
378.72184,1.27425
378.48077,1.28631
378.23970,1.29005
377.99863,1.28861
377.75756,1.28913
377.51649,1.29377
377.27542,1.29919
377.03435,1.30480
376.79328,1.31123
376.55221,1.31759
376.31114,1.32311
376.07007,1.32795
375.82900,1.33434
375.58793,1.34235
375.34686,1.34702
375.10579,1.34652
374.86472,1.34665
374.62365,1.34981
374.38257,1.35021
374.14150,1.34664
373.90043,1.34527
373.65936,1.34554
373.41829,1.34072
373.17722,1.33200
372.93615,1.32608
372.69508,1.32411
372.45401,1.32171
372.21294,1.31471
371.97187,1.30238
371.73080,1.28737
371.48973,1.27226
371.24866,1.25638
371.00759,1.23951
370.76652,1.22626
370.52545,1.22094
370.28437,1.22281
370.04330,1.22866
369.80223,1.23417
369.56116,1.23326
369.32009,1.22233
369.07902,1.20458
368.83795,1.18677
368.59688,1.17430
368.35581,1.16968
368.11474,1.17130
367.87367,1.17377
367.63260,1.17239
367.39153,1.16794
367.15046,1.16436
366.90939,1.16236
366.66832,1.16002
366.42725,1.15772
366.18618,1.15663
365.94510,1.15526
365.70403,1.15260
365.46296,1.15082
365.22189,1.15135
364.98082,1.15210
364.73975,1.14974
364.49868,1.14299
364.25761,1.13349
364.01654,1.12469
363.77547,1.11874
363.53440,1.11494
363.29333,1.11258
363.05226,1.11234
362.81119,1.11363
362.57012,1.11443
362.32905,1.11368
362.08798,1.11134
361.84691,1.10794
361.60583,1.10540
361.36476,1.10557
361.12369,1.10724
360.88262,1.10723
360.64155,1.10438
360.40048,1.09995
360.15941,1.09494
359.91834,1.08971
359.67727,1.08592
359.43620,1.08555
359.19513,1.08759
358.95406,1.08859
358.71299,1.08737
358.47192,1.08680
358.23085,1.09042
357.98978,1.09915
357.74871,1.10925
357.50764,1.11281
357.26656,1.10554
357.02549,1.09354
356.78442,1.08628
356.54335,1.08613
356.30228,1.08965
356.06121,1.09420
355.82014,1.09826
355.57907,1.09917
355.33800,1.09570
355.09693,1.09141
354.85586,1.09124
354.61479,1.09552
354.37372,1.10035
354.13265,1.10326
353.89158,1.10485
353.65051,1.10587
353.40944,1.10631
353.16837,1.10655
352.92729,1.10693
352.68622,1.10659
352.44515,1.10428
352.20408,1.09954
351.96301,1.09341
351.72194,1.08816
351.48087,1.08622
351.23980,1.08926
350.99873,1.09759
350.75766,1.10864
350.51659,1.11772
350.27552,1.12229
350.03445,1.12350
349.79338,1.12260
349.55231,1.11964
349.31124,1.11615
349.07017,1.11501
348.82910,1.11735
348.58802,1.12221
348.34695,1.12799
348.10588,1.13272
347.86481,1.13419
347.62374,1.13204
347.38267,1.12892
347.14160,1.12813
346.90053,1.13060
346.65946,1.13388
346.41839,1.13530
346.17732,1.13724
345.93625,1.14502
345.69518,1.15797
345.45411,1.16818
345.21304,1.17083
344.97197,1.16951
344.73090,1.16811
344.48983,1.16628
344.24875,1.16438
344.00768,1.16464
343.76661,1.16800
343.52554,1.17510
343.28447,1.18712
343.04340,1.20272
342.80233,1.21767
342.56126,1.22817
342.32019,1.23191
342.07912,1.22969
341.83805,1.22775
341.59698,1.23243
341.35591,1.24229
341.11484,1.25116
340.87377,1.25736
340.63270,1.26323
340.39163,1.26860
340.15056,1.27178
339.90948,1.27463
339.66841,1.27977
339.42734,1.28559
339.18627,1.29023
338.94520,1.29765
338.70413,1.31207
338.46306,1.32947
338.22199,1.34407
337.98092,1.35726
337.73985,1.37125
337.49878,1.37956
337.25771,1.37264
337.01664,1.35278
336.77557,1.33479
336.53450,1.33104
336.29343,1.34173
336.05236,1.35648
335.81129,1.36423
335.57021,1.36322
335.32914,1.35830
335.08807,1.35269
334.84700,1.34634
334.60593,1.34019
334.36486,1.33675
334.12379,1.33403
333.88272,1.32530
333.64165,1.30903
333.40058,1.29173
333.15951,1.28005
332.91844,1.27765
332.67737,1.28443
332.43630,1.29508
332.19523,1.30302
331.95416,1.30557
331.71309,1.30258
331.47202,1.29294
331.23094,1.27689
330.98987,1.25965
330.74880,1.24715
330.50773,1.24025
330.26666,1.23659
330.02559,1.23455
329.78452,1.23247
329.54345,1.22827
329.30238,1.22401
329.06131,1.22468
328.82024,1.22914
328.57917,1.22887
328.33810,1.22033
328.09703,1.21234
327.85596,1.21637
327.61489,1.23147
327.37382,1.24147
327.13275,1.23264
326.89167,1.21236
326.65060,1.19909
326.40953,1.19984
326.16846,1.20502
325.92739,1.20387
325.68632,1.20002
325.44525,1.20583
325.20418,1.22487
324.96311,1.24582
324.72204,1.25447
324.48097,1.25009
324.23990,1.24370
323.99883,1.24352
323.75776,1.24759
323.51669,1.24915
323.27562,1.24700
323.03455,1.24533
322.79348,1.24521
322.55240,1.24188
322.31133,1.23463
322.07026,1.23221
321.82919,1.24166
321.58812,1.25912
321.34705,1.27287
321.10598,1.27333
320.86491,1.26245
320.62384,1.25230
320.38277,1.25146
320.14170,1.25565
319.90063,1.25544
319.65956,1.25255
319.41849,1.25762
319.17742,1.26986
318.93635,1.27331
318.69528,1.26127
318.45421,1.24496
318.21313,1.23528
317.97206,1.23413
317.73099,1.24027
317.48992,1.25371
317.24885,1.27082
317.00778,1.28273
316.76671,1.28751
316.52564,1.29337
316.28457,1.30232
316.04350,1.30481
315.80243,1.29569
315.56136,1.28340
315.32029,1.27779
315.07922,1.27989
314.83815,1.28550
314.59708,1.29207
314.35601,1.30025
314.11494,1.30971
313.87386,1.31424
313.63279,1.30730
313.39172,1.29629
313.15065,1.29622
312.90958,1.30815
312.66851,1.31904
312.42744,1.32196
312.18637,1.32279
311.94530,1.32541
311.70423,1.32645
311.46316,1.32586
311.22209,1.32779
310.98102,1.33315
310.73995,1.33798
310.49888,1.33837
310.25781,1.33538
310.01674,1.33484
309.77567,1.34215
309.53459,1.35611
309.29352,1.36932
309.05245,1.37458
308.81138,1.37229
308.57031,1.36950
308.32924,1.36931
308.08817,1.36682
307.84710,1.35910
307.60603,1.35386
307.36496,1.36113
307.12389,1.38027
306.88282,1.39703
306.64175,1.39500
306.40068,1.37413
306.15961,1.35093
305.91854,1.33897
305.67747,1.33898
305.43640,1.34401
305.19532,1.34520
304.95425,1.33736
304.71318,1.32519
304.47211,1.31979
304.23104,1.32546
303.98997,1.33421
303.74890,1.33538
303.50783,1.32842
303.26676,1.32031
303.02569,1.31417
302.78462,1.30802
302.54355,1.30174
302.30248,1.29769
302.06141,1.29586
301.82034,1.29301
301.57927,1.28493
301.33820,1.27067
301.09713,1.25435
300.85605,1.24039
300.61498,1.22932
300.37391,1.22059
300.13284,1.21513
299.89177,1.21123
299.65070,1.20391
299.40963,1.19295
299.16856,1.18412
298.92749,1.18157
298.68642,1.18451
298.44535,1.18920
298.20428,1.18990
297.96321,1.18111
297.72214,1.16449
297.48107,1.14964
297.24000,1.14498
296.99893,1.15037
296.75786,1.15863
296.51678,1.16309
296.27571,1.16167
296.03464,1.15395
295.79357,1.14024
295.55250,1.12473
295.31143,1.11336
295.07036,1.10799
294.82929,1.10637
294.58822,1.10588
294.34715,1.10404
294.10608,1.09831
293.86501,1.08938
293.62394,1.08212
293.38287,1.08043
293.14180,1.08301
292.90073,1.08490
292.65966,1.08153
292.41859,1.07193
292.17751,1.05978
291.93644,1.05149
291.69537,1.05155
291.45430,1.05838
291.21323,1.06517
290.97216,1.06628
290.73109,1.06214
290.49002,1.05698
290.24895,1.05321
290.00788,1.04979
289.76681,1.04467
289.52574,1.03773
289.28467,1.03141
289.04360,1.02781
288.80253,1.02648
288.56146,1.02619
288.32039,1.02699
288.07932,1.02866
287.83824,1.02858
287.59717,1.02471
287.35610,1.02016
287.11503,1.02054
286.87396,1.02612
286.63289,1.03033
286.39182,1.02792
286.15075,1.02112
285.90968,1.01479
285.66861,1.01055
285.42754,1.00797
285.18647,1.00723
284.94540,1.00826
284.70433,1.00969
284.46326,1.01041
284.22219,1.01071
283.98112,1.01096
283.74005,1.01023
283.49897,1.00797
283.25790,1.00612
283.01683,1.00692
282.77576,1.00902
282.53469,1.00883
282.29362,1.00544
282.05255,1.00138
281.81148,0.99912
281.57041,0.99931
281.32934,1.00167
281.08827,1.00583
280.84720,1.01071
280.60613,1.01367
280.36506,1.01224
280.12399,1.00748
279.88292,1.00360
279.64185,1.00318
279.40078,1.00505
279.15970,1.00694
278.91863,1.00814
278.67756,1.00916
278.43649,1.01050
278.19542,1.01220
277.95435,1.01380
277.71328,1.01472
277.47221,1.01458
277.23114,1.01353
276.99007,1.01215
276.74900,1.01134
276.50793,1.01219
276.26686,1.01480
276.02579,1.01724
275.78472,1.01723
275.54365,1.01513
275.30258,1.01346
275.06151,1.01392
274.82043,1.01620
274.57936,1.01931
274.33829,1.02267
274.09722,1.02605
273.85615,1.02962
273.61508,1.03351
273.37401,1.03689
273.13294,1.03843
272.89187,1.03833
272.65080,1.03866
272.40973,1.04088
272.16866,1.04445
271.92759,1.04894
271.68652,1.05513
271.44545,1.06259
271.20438,1.06863
270.96331,1.07156
270.72224,1.07338
270.48116,1.07752
270.24009,1.08411
269.99902,1.09027
269.75795,1.09399
269.51688,1.09525
269.27581,1.09488
269.03474,1.09446
268.79367,1.09632
268.55260,1.10209
268.31153,1.11117
268.07046,1.12147
267.82939,1.13061
267.58832,1.13677
267.34725,1.14002
267.10618,1.14286
266.86511,1.14793
266.62404,1.15559
266.38297,1.16434
266.14189,1.17258
265.90082,1.17934
265.65975,1.18477
265.41868,1.19105
265.17761,1.20109
264.93654,1.21462
264.69547,1.22674
264.45440,1.23228
264.21333,1.23137
263.97226,1.23003
263.73119,1.23531
263.49012,1.25028
263.24905,1.27298
263.00798,1.29889
262.76691,1.32422
262.52584,1.34732
262.28477,1.36831
262.04370,1.38710
261.80262,1.40357
261.56155,1.42007
261.32048,1.44013
261.07941,1.46480
260.83834,1.49217
260.59727,1.51970
260.35620,1.54376
260.11513,1.56010
259.87406,1.57018
259.63299,1.58172
259.39192,1.60337
259.15085,1.63968
258.90978,1.68737
258.66871,1.73691
258.42764,1.77878
258.18657,1.80262
257.94550,1.79990
257.70443,1.78718
257.46335,1.78151
257.22228,1.78327
256.98121,1.78687
256.74014,1.78615
256.49907,1.77269
256.25800,1.74253
256.01693,1.70545
255.77586,1.67864
255.53479,1.66615
255.29372,1.65626
255.05265,1.63852
254.81158,1.61475
254.57051,1.59143
254.32944,1.57137
254.08837,1.55630
253.84730,1.54982
253.60623,1.55266
253.36516,1.55919
253.12408,1.56304
252.88301,1.56156
252.64194,1.55476
252.40087,1.54395
252.15980,1.53074
251.91873,1.51717
251.67766,1.50773
251.43659,1.50616
251.19552,1.50751
250.95445,1.50149
250.71338,1.48848
250.47231,1.47958
250.23124,1.47973
249.99017,1.48397
249.74910,1.48851
249.50803,1.49541
249.26696,1.50391
249.02589,1.50721
248.78481,1.50185
248.54374,1.49391
248.30267,1.49263
248.06160,1.49955
247.82053,1.50517
247.57946,1.49932
247.33839,1.48430
247.09732,1.47189
246.85625,1.47148
246.61518,1.48522
246.37411,1.50930
246.13304,1.53626
245.89197,1.55814
245.65090,1.57076
245.40983,1.57787
245.16876,1.58851
244.92769,1.60654
244.68661,1.62751
244.44554,1.65036
244.20447,1.68223
243.96340,1.72609
243.72233,1.77494
243.48126,1.82086
243.24019,1.86525
242.99912,1.90974
242.75805,1.92871
242.51698,1.88045
242.27591,1.78067
242.03484,1.68004
241.79377,1.59754
241.55270,1.53167
241.31163,1.47110
241.07056,1.40369
240.82949,1.32995
240.58842,1.26139
240.34734,1.20630
240.10627,1.16317
239.86520,1.12597
239.62413,1.09106
239.38306,1.05819
239.14199,1.02792
238.90092,1.00029
238.65985,0.97571
238.41878,0.95467
238.17771,0.93655
237.93664,0.91989
237.69557,0.90362
237.45450,0.88760
237.21343,0.87256
236.97236,0.85973
236.73129,0.84977
236.49022,0.84146
236.24915,0.83260
236.00807,0.82254
235.76700,0.81261
235.52593,0.80399
235.28486,0.79670
235.04379,0.79035
234.80272,0.78442
234.56165,0.77824
234.32058,0.77195
234.07951,0.76670
233.83844,0.76300
233.59737,0.75977
233.35630,0.75588
233.11523,0.75221
232.87416,0.75071
232.63309,0.75120
232.39202,0.75039
232.15095,0.74614
231.90988,0.74150
231.66880,0.74123
231.42773,0.74510
231.18666,0.74799
230.94559,0.74663
230.70452,0.74304
230.46345,0.74061
230.22238,0.73988
229.98131,0.73917
229.74024,0.73737
229.49917,0.73525
229.25810,0.73411
229.01703,0.73386
228.77596,0.73340
228.53489,0.73313
228.29382,0.73500
228.05275,0.73902
227.81168,0.74156
227.57061,0.73925
227.32953,0.73381
227.08846,0.72994
226.84739,0.72947
226.60632,0.73030
226.36525,0.73064
226.12418,0.73149
225.88311,0.73381
225.64204,0.73618
225.40097,0.73726
225.15990,0.73794
224.91883,0.73940
224.67776,0.74142
224.43669,0.74334
224.19562,0.74524
223.95455,0.74773
223.71348,0.75150
223.47241,0.75691
223.23134,0.76344
222.99026,0.76988
222.74919,0.77532
222.50812,0.77984
222.26705,0.78430
222.02598,0.78949
221.78491,0.79555
221.54384,0.80200
221.30277,0.80854
221.06170,0.81553
220.82063,0.82286
220.57956,0.82929
220.33849,0.83431
220.09742,0.83984
219.85635,0.84819
219.61528,0.85936
219.37421,0.87232
219.13314,0.88687
218.89207,0.90234
218.65099,0.91694
218.40992,0.93034
218.16885,0.94428
217.92778,0.95959
217.68671,0.97529
217.44564,0.99027
217.20457,1.00408
216.96350,1.01660
216.72243,1.02807
216.48136,1.03918
216.24029,1.05223
215.99922,1.07079
215.75815,1.09527
215.51708,1.12043
215.27601,1.14067
215.03494,1.15616
214.79387,1.17075
214.55280,1.18626
214.31172,1.20191
214.07065,1.21574
213.82958,1.22509
213.58851,1.22930
213.34744,1.23204
213.10637,1.23734
212.86530,1.24465
212.62423,1.25126
212.38316,1.25694
212.14209,1.26297
211.90102,1.27009
211.65995,1.27907
211.41888,1.28979
211.17781,1.29982
210.93674,1.30699
210.69567,1.31167
210.45460,1.31494
210.21353,1.31853
209.97245,1.32650
209.73138,1.34089
209.49031,1.35487
209.24924,1.35613
209.00817,1.34060
208.76710,1.31642
208.52603,1.29326
208.28496,1.27624
208.04389,1.26809
207.80282,1.26887
207.56175,1.27391
207.32068,1.27595
207.07961,1.26993
206.83854,1.25611
206.59747,1.23909
206.35640,1.22258
206.11533,1.20551
205.87426,1.18625
205.63318,1.16849
205.39211,1.15709
205.15104,1.15050
204.90997,1.14192
204.66890,1.12624
204.42783,1.10366
204.18676,1.07831
203.94569,1.05537
203.70462,1.03867
203.46355,1.02896
203.22248,1.02337
202.98141,1.01636
202.74034,1.00292
202.49927,0.98280
202.25820,0.96073
202.01713,0.94147
201.77606,0.92638
201.53499,0.91356
201.29391,0.89979
201.05284,0.88334
200.81177,0.86514
200.57070,0.84716
200.32963,0.83110
200.08856,0.81812
199.84749,0.80792
199.60642,0.79793
199.36535,0.78550
199.12428,0.77093
198.88321,0.75701
198.64214,0.74626
198.40107,0.73906
198.16000,0.73340
197.91893,0.72606
197.67786,0.71494
197.43679,0.70151
197.19572,0.68996
196.95464,0.68292
196.71357,0.67784
196.47250,0.66964
196.23143,0.65710
195.99036,0.64426
195.74929,0.63520
195.50822,0.63010
195.26715,0.62651
195.02608,0.62248
194.78501,0.61751
194.54394,0.61146
194.30287,0.60454
194.06180,0.59765
193.82073,0.59146
193.57966,0.58561
193.33859,0.57988
193.09752,0.57517
192.85645,0.57219
192.61537,0.56965
192.37430,0.56570
192.13323,0.56075
191.89216,0.55685
191.65109,0.55452
191.41002,0.55228
191.16895,0.54931
190.92788,0.54643
190.68681,0.54436
190.44574,0.54250
190.20467,0.53985
189.96360,0.53646
189.72253,0.53360
189.48146,0.53219
189.24039,0.53154
188.99932,0.53020
188.75825,0.52790
188.51718,0.52563
188.27610,0.52418
188.03503,0.52352
187.79396,0.52284
187.55289,0.52107
187.31182,0.51818
187.07075,0.51579
186.82968,0.51552
186.58861,0.51694
186.34754,0.51795
186.10647,0.51739
185.86540,0.51632
185.62433,0.51640
185.38326,0.51790
185.14219,0.51994
184.90112,0.52223
184.66005,0.52559
184.41898,0.53043
184.17791,0.53553
183.93683,0.53898
183.69576,0.54011
183.45469,0.53989
183.21362,0.53934
182.97255,0.53866
182.73148,0.53820
182.49041,0.53940
182.24934,0.54286
182.00827,0.54638
181.76720,0.54738
181.52613,0.54662
181.28506,0.54653
181.04399,0.54739
180.80292,0.54832
180.56185,0.55019
180.32078,0.55396
180.07971,0.55834
179.83864,0.56170
179.59756,0.56498
179.35649,0.57035
179.11542,0.57818
178.87435,0.58707
178.63328,0.59614
178.39221,0.60571
178.15114,0.61616
177.91007,0.62741
177.66900,0.63909
177.42793,0.65071
177.18686,0.66227
176.94579,0.67470
176.70472,0.68870
176.46365,0.70420
176.22258,0.72168
175.98151,0.74203
175.74044,0.76437
175.49937,0.78713
175.25829,0.81104
175.01722,0.83689
174.77615,0.86224
174.53508,0.88520
174.29401,0.90800
174.05294,0.93230
173.81187,0.95484
173.57080,0.97174
173.32973,0.98381
173.08866,0.99492
172.84759,1.00788
172.60652,1.02248
172.36545,1.03564
172.12438,1.04377
171.88331,1.04586
171.64224,1.04424
171.40117,1.04217
171.16010,1.04077
170.91902,1.03812
170.67795,1.03192
170.43688,1.02217
170.19581,1.01048
169.95474,0.99873
169.71367,0.98935
169.47260,0.98397
169.23153,0.98039
168.99046,0.97447
168.74939,0.96638
168.50832,0.96060
168.26725,0.95872
168.02618,0.95776
167.78511,0.95576
167.54404,0.95391
167.30297,0.95272
167.06190,0.95072
166.82083,0.94727
166.57975,0.94414
166.33868,0.94473
166.09761,0.95160
165.85654,0.96371
165.61547,0.97684
165.37440,0.98798
165.13333,0.99842
164.89226,1.01097
164.65119,1.02665
164.41012,1.04460
164.16905,1.06312
163.92798,1.08021
163.68691,1.09362
163.44584,1.10216
163.20477,1.10784
162.96370,1.11434
162.72263,1.12263
162.48156,1.13104
162.24048,1.13900
161.99941,1.14845
161.75834,1.16086
161.51727,1.17362
161.27620,1.18196
161.03513,1.18476
160.79406,1.18528
160.55299,1.18518
160.31192,1.18199
160.07085,1.17365
159.82978,1.16184
159.58871,1.14996
159.34764,1.14023
159.10657,1.13239
158.86550,1.12546
158.62443,1.12040
158.38336,1.11841
158.14229,1.11742
157.90121,1.11283
157.66014,1.10189
157.41907,1.08661
157.17800,1.07234
156.93693,1.06361
156.69586,1.06155
156.45479,1.06536
156.21372,1.07279
155.97265,1.07727
155.73158,1.07026
155.49051,1.05035
155.24944,1.02513
155.00837,1.00236
154.76730,0.98469
154.52623,0.97179
154.28516,0.96202
154.04409,0.95188
153.80302,0.93741
153.56194,0.91739
153.32087,0.89415
153.07980,0.87074
152.83873,0.84832
152.59766,0.82694
152.35659,0.80711
152.11552,0.78901
151.87445,0.77151
151.63338,0.75300
151.39231,0.73292
151.15124,0.71292
150.91017,0.69585
150.66910,0.68264
150.42803,0.67092
150.18696,0.65748
149.94589,0.64122
149.70482,0.62341
149.46375,0.60674
149.22267,0.59384
148.98160,0.58536
148.74053,0.57948
148.49946,0.57383
148.25839,0.56757
148.01732,0.56149
147.77625,0.55685
147.53518,0.55439
147.29411,0.55349
147.05304,0.55255
146.81197,0.55084
146.57090,0.54954
146.32983,0.55038
146.08876,0.55347
145.84769,0.55734
145.60662,0.56117
145.36555,0.56597
145.12448,0.57298
144.88340,0.58168
144.64233,0.59008
144.40126,0.59648
144.16019,0.60075
143.91912,0.60392
143.67805,0.60650
143.43698,0.60742
143.19591,0.60473
142.95484,0.59755
142.71377,0.58695
142.47270,0.57499
142.23163,0.56349
141.99056,0.55335
141.74949,0.54434
141.50842,0.53572
141.26735,0.52763
141.02628,0.52122
140.78521,0.51680
140.54413,0.51333
140.30306,0.51035
140.06199,0.50921
139.82092,0.51102
139.57985,0.51506
139.33878,0.51999
139.09771,0.52560
138.85664,0.53257
138.61557,0.54143
138.37450,0.55207
138.13343,0.56416
137.89236,0.57735
137.65129,0.59100
137.41022,0.60473
137.16915,0.61993
136.92808,0.63968
136.68701,0.66503
136.44594,0.69254
136.20486,0.71782
135.96379,0.74120
135.72272,0.76714
135.48165,0.79851
135.24058,0.83380
134.99951,0.87063
134.75844,0.90917
134.51737,0.94963
134.27630,0.98995
134.03523,1.02894
133.79416,1.06818
133.55309,1.10775
133.31202,1.14387
133.07095,1.17231
132.82988,1.19038
132.58881,1.19743
132.34774,1.19778
132.10667,1.19777
131.86559,1.19827
131.62452,1.19558
131.38345,1.18693
131.14238,1.17061
130.90131,1.14606
130.66024,1.11599
130.41917,1.08323
130.17810,1.04755
129.93703,1.00879
129.69596,0.96854
129.45489,0.92798
129.21382,0.88763
128.97275,0.84853
128.73168,0.81128
128.49061,0.77556
128.24954,0.74147
128.00847,0.70994
127.76740,0.68151
127.52632,0.65552
127.28525,0.63041
127.04418,0.60556
126.80311,0.58229
126.56204,0.56216
126.32097,0.54464
126.07990,0.52834
125.83883,0.51342
125.59776,0.50069
125.35669,0.48960
125.11562,0.47863
124.87455,0.46729
124.63348,0.45626
124.39241,0.44629
124.15134,0.43808
123.91027,0.43255
123.66920,0.42989
123.42812,0.42882
123.18705,0.42759
122.94598,0.42573
122.70491,0.42413
122.46384,0.42397
122.22277,0.42556
121.98170,0.42784
121.74063,0.42951
121.49956,0.43098
121.25849,0.43397
121.01742,0.43909
120.77635,0.44552
120.53528,0.45291
120.29421,0.46220
120.05314,0.47455
119.81207,0.49052
119.57100,0.51013
119.32993,0.53331
119.08885,0.56058
118.84778,0.59252
118.60671,0.62824
118.36564,0.66509
118.12457,0.70069
117.88350,0.73466
117.64243,0.76766
117.40136,0.79833
117.16029,0.82190
116.91922,0.83372
116.67815,0.83390
116.43708,0.82580
116.19601,0.81151
115.95494,0.79186
115.71387,0.76937
115.47280,0.74758
115.23173,0.72835
114.99066,0.71148
114.74958,0.69600
114.50851,0.68123
114.26744,0.66829
114.02637,0.66002
113.78530,0.65828
113.54423,0.66193
113.30316,0.66865
113.06209,0.67778
112.82102,0.68946
112.57995,0.70215
112.33888,0.71358
112.09781,0.72369
111.85674,0.73422
111.61567,0.74540
111.37460,0.75490
111.13353,0.76086
110.89246,0.76419
110.65139,0.76548
110.41031,0.76230
110.16924,0.75244
109.92817,0.73829
109.68710,0.72447
109.44603,0.71185
109.20496,0.69675
108.96389,0.67697
108.72282,0.65525
108.48175,0.63462
108.24068,0.61375
107.99961,0.58945
107.75854,0.56128
107.51747,0.53172
107.27640,0.50379
107.03533,0.48032
106.79426,0.46325
106.55319,0.45183
106.31212,0.44284
106.07104,0.43355
105.82997,0.42356
105.58890,0.41363
105.34783,0.40371
105.10676,0.39279
104.86569,0.38021
104.62462,0.36655
104.38355,0.35339
104.14248,0.34256
103.90141,0.33556
103.66034,0.33255
103.41927,0.33133
103.17820,0.32833
102.93713,0.32174
102.69606,0.31272
102.45499,0.30360
102.21392,0.29618
101.97285,0.29181
101.73177,0.29119
101.49070,0.29319
101.24963,0.29444
101.00856,0.29156
100.76749,0.28390
100.52642,0.27414
100.28535,0.26655
100.04428,0.26395
99.80321,0.26536
99.56214,0.26642
99.32107,0.26340
99.08000,0.25714
98.83893,0.25210
98.59786,0.25174
98.35679,0.25539
98.11572,0.25908
97.87465,0.25976
97.63358,0.25876
97.39250,0.25982
97.15143,0.26474
96.91036,0.27173
96.66929,0.27751
96.42822,0.28113
96.18715,0.28513
95.94608,0.29228
95.70501,0.30234
95.46394,0.31236
95.22287,0.31994
94.98180,0.32594
94.74073,0.33298
94.49966,0.34133
94.25859,0.34776
94.01752,0.34924
93.77645,0.34669
93.53538,0.34380
93.29431,0.34318
93.05323,0.34379
92.81216,0.34277
92.57109,0.34069
92.33002,0.34192
92.08895,0.34745
91.84788,0.35241
91.60681,0.35476
91.36574,0.36074
91.12467,0.37609
90.88360,0.39752
90.64253,0.41888
90.40146,0.44405
90.16039,0.48240
89.91932,0.53325
89.67825,0.58554
89.43718,0.63435
89.19611,0.68342
88.95504,0.72920
88.71396,0.75997
88.47289,0.76810
88.23182,0.75018
87.99075,0.70737
87.74968,0.65109
87.50861,0.59382
87.26754,0.54106
87.02647,0.49520
86.78540,0.45707
86.54433,0.42444
86.30326,0.39503
86.06219,0.36882
85.82112,0.34558
85.58005,0.32422
85.33898,0.30520
85.09791,0.28942
84.85684,0.27552
84.61577,0.26133
84.37469,0.24719
84.13362,0.23570
83.89255,0.22846
83.65148,0.22369
83.41041,0.21810
83.16934,0.21089
82.92827,0.20426
82.68720,0.19974
82.44613,0.19648
82.20506,0.19337
81.96399,0.19053
81.72292,0.18837
81.48185,0.18681
81.24078,0.18594
80.99971,0.18597
80.75864,0.18632
80.51757,0.18592
80.27650,0.18439
80.03542,0.18212
79.79435,0.17938
79.55328,0.17673
79.31221,0.17544
79.07114,0.17640
78.83007,0.17884
78.58900,0.18092
78.34793,0.18101
78.10686,0.17835
77.86579,0.17347
77.62472,0.16823
77.38365,0.16467
77.14258,0.16342
76.90151,0.16353
76.66044,0.16383
76.41937,0.16419
76.17830,0.16476
75.93723,0.16465
75.69615,0.16230
75.45508,0.15768
75.21401,0.15311
74.97294,0.15151
74.73187,0.15363
74.49080,0.15712
74.24973,0.15883
74.00866,0.15853
73.76759,0.15910
73.52652,0.16244
73.28545,0.16678
73.04438,0.16877
72.80331,0.16726
72.56224,0.16390
72.32117,0.16108
72.08010,0.16047
71.83903,0.16307
71.59796,0.16929
71.35688,0.17804
71.11581,0.18641
70.87474,0.19158
70.63367,0.19363
70.39260,0.19577
70.15153,0.20182
69.91046,0.21388
69.66939,0.23104
69.42832,0.24921
69.18725,0.26324
68.94618,0.27027
68.70511,0.27014
68.46404,0.26263
68.22297,0.24750
67.98190,0.22693
67.74083,0.20525
67.49976,0.18615
67.25869,0.17139
67.01761,0.16101
66.77654,0.15389
66.53547,0.14856
66.29440,0.14437
66.05333,0.14178
65.81226,0.14159
65.57119,0.14414
65.33012,0.14927
65.08905,0.15670
64.84798,0.16628
64.60691,0.17738
64.36584,0.18807
64.12477,0.19558
63.88370,0.19799
63.64263,0.19550
63.40156,0.19002
63.16049,0.18354
62.91942,0.17686
62.67834,0.17003
62.43727,0.16355
62.19620,0.15868
61.95513,0.15604
61.71406,0.15485
61.47299,0.15413
61.23192,0.15356
60.99085,0.15248
60.74978,0.14998
60.50871,0.14724
60.26764,0.14781
60.02657,0.15354
59.78550,0.16135
59.54443,0.16604
59.30336,0.16620
59.06229,0.16476
58.82122,0.16385
58.58015,0.16247
58.33907,0.15938
58.09800,0.15472
57.85693,0.14856
57.61586,0.14092
57.37479,0.13357
57.13372,0.12893
56.89265,0.12725
56.65158,0.12689
56.41051,0.12767
56.16944,0.13152
55.92837,0.13951
55.68730,0.15060
55.44623,0.16371
55.20516,0.17862
54.96409,0.19343
54.72302,0.20338
54.48195,0.20412
54.24088,0.19412
53.99980,0.17557
53.75873,0.15461
53.51766,0.13808
53.27659,0.12999
53.03552,0.13195
52.79445,0.14538
52.55338,0.17127
52.31231,0.20593
52.07124,0.23342
51.83017,0.22939
51.58910,0.19241
51.34803,0.14831
51.10696,0.11828
50.86589,0.11109
50.62482,0.12964
50.38375,0.16929
50.14268,0.20369
49.90161,0.19432
49.66053,0.15333
49.41946,0.12314
49.17839,0.12328
48.93732,0.15087
48.69625,0.18218
48.45518,0.18386
48.21411,0.15958
47.97304,0.14408
47.73197,0.15744
47.49090,0.19101
47.24983,0.20544
47.00876,0.18005
46.76769,0.15520
46.52662,0.16200
46.28555,0.18363
46.04448,0.17904
45.80341,0.15391
45.56234,0.14752
45.32126,0.16505
45.08019,0.17081
44.83912,0.15118
44.59805,0.14305
44.35698,0.15856
44.11591,0.17195
43.87484,0.17071
43.63377,0.17327
43.39270,0.18316
43.15163,0.18590
42.91056,0.17860
42.66949,0.16979
42.42842,0.16584
42.18735,0.16962
41.94628,0.17699
41.70521,0.17962
41.46414,0.17760
41.22307,0.17677
40.98199,0.17829
40.74092,0.18386
40.49985,0.19816
40.25878,0.21755
40.01771,0.22843
39.77664,0.22429
39.53557,0.21424
39.29450,0.21080
39.05343,0.21785
38.81236,0.23110
38.57129,0.24528
38.33022,0.25723
38.08915,0.26324
37.84808,0.26072
37.60701,0.25305
37.36594,0.24630
37.12487,0.24171
36.88380,0.23695
36.64272,0.23457
36.40165,0.24073
36.16058,0.25209
35.91951,0.25686
35.67844,0.25086
35.43737,0.24025
35.19630,0.22974
34.95523,0.22008
34.71416,0.21329
34.47309,0.21158
34.23202,0.21440
33.99095,0.21872
33.74988,0.21905
33.50881,0.21088
33.26774,0.20011
33.02667,0.20039
32.78560,0.21649
32.54453,0.23805
32.30345,0.24630
32.06238,0.23069
31.82131,0.20080
31.58024,0.17159
31.33917,0.14605
31.09810,0.11963
30.85703,0.09619
30.61596,0.08763
30.37489,0.09542
30.13382,0.10177
29.89275,0.08920
29.65168,0.06077
29.41061,0.03256
29.16954,0.01331
28.92847,-0.00079
28.68740,-0.01382
28.44633,-0.02094
28.20526,-0.01676
27.96418,-0.00789
27.72311,-0.00857
27.48204,-0.02296
27.24097,-0.04331
26.99990,-0.06066
26.75883,-0.07174
26.51776,-0.08237
26.27669,-0.10125
26.03562,-0.12600
25.79455,-0.14582
25.55348,-0.15866
25.31241,-0.17270
25.07134,-0.19155
24.83027,-0.21015
24.58920,-0.22299
24.34813,-0.22844
24.10706,-0.22680
23.86599,-0.21917
23.62491,-0.21031
23.38384,-0.20915
23.14277,-0.22165
22.90170,-0.24553
22.66063,-0.27449
22.41956,-0.30090
22.17849,-0.31752
21.93742,-0.32613
21.69635,-0.33695
21.45528,-0.35418
21.21421,-0.36994
20.97314,-0.37568
20.73207,-0.37486
20.49100,-0.37847
20.24993,-0.39176
20.00886,-0.40743
19.76779,-0.41299
19.52672,-0.40454
19.28564,-0.39134
19.04457,-0.38396
18.80350,-0.38164
18.56243,-0.37262
18.32136,-0.35950
18.08029,-0.36099
17.83922,-0.38486
17.59815,-0.42418
17.35708,-0.46038
17.11601,-0.47783
16.87494,-0.48608
16.63387,-0.48605
16.39280,-0.47544
16.15173,-0.46268
15.91066,-0.46186
15.66959,-0.47707
15.42852,-0.49476
15.18745,-0.50129
14.94637,-0.49681
14.70530,-0.48038
14.46423,-0.45812
14.22316,-0.44409
13.98209,-0.44403
13.74102,-0.45289
13.49995,-0.46289
13.25888,-0.46781
13.01781,-0.47211
12.77674,-0.48419
12.53567,-0.49895
12.29460,-0.50453
12.05353,-0.50254
11.81246,-0.49744
11.57139,-0.48313
11.33032,-0.46727
11.08925,-0.46469
10.84818,-0.47864
10.60710,-0.49892
10.36603,-0.50838
10.12496,-0.49962
9.88389,-0.47898
9.64282,-0.45195
9.40175,-0.42390
9.16068,-0.40153
8.91961,-0.39349
8.67854,-0.40602
8.43747,-0.43506
8.19640,-0.46138
7.95533,-0.46540
7.71426,-0.45199
7.47319,-0.44824
7.23212,-0.44635
6.99105,-0.43875
6.74998,-0.43399
6.50891,-0.43846
6.26783,-0.44345
6.02676,-0.43143
5.78569,-0.42088
5.54462,-0.41271
5.30355,-0.40350
5.06248,-0.41800
4.82141,-0.45554
4.58034,-0.47709
4.33927,-0.46490
4.09820,-0.43999
3.85713,-0.42141
3.61606,-0.41335
3.37499,-0.41567
3.13392,-0.42645
2.89285,-0.43808
2.65178,-0.45465
2.41071,-0.48047
2.16964,-0.50577
1.92856,-0.51167
1.68749,-0.49696
1.44642,-0.48802
1.20535,-0.47521
0.96428,-0.46126
0.72321,-0.45539
0.48214,-0.46302
0.24107,-0.44476
-0.00000,-0.16261
