399.69498,1.79681
399.45391,1.80180
399.21284,1.79029
398.97177,1.76179
398.73070,1.73802
398.48963,1.73620
398.24856,1.74724
398.00749,1.76487
397.76642,1.78547
397.52535,1.80083
397.28428,1.82028
397.04321,1.84567
396.80214,1.88271
396.56107,1.92224
396.32000,1.92474
396.07892,1.87291
395.83785,1.78177
395.59678,1.71606
395.35571,1.70246
395.11464,1.71316
394.87357,1.72521
394.63250,1.74015
394.39143,1.77016
394.15036,1.82382
393.90929,1.90211
393.66822,1.97816
393.42715,2.06025
393.18608,2.17010
392.94501,2.21456
392.70394,2.26084
392.46287,2.38522
392.22180,2.52671
391.98073,2.32558
391.73965,2.12284
391.49858,2.06278
391.25751,2.10646
391.01644,2.15083
390.77537,2.20415
390.53430,2.37825
390.29323,2.41346
390.05216,2.15704
389.81109,2.02695
389.57002,2.03066
389.32895,2.01356
389.08788,1.98399
388.84681,1.96525
388.60574,1.86230
388.36467,1.78122
388.12360,1.77028
387.88253,1.86261
387.64146,2.05533
387.40038,2.17064
387.15931,2.15900
386.91824,2.24229
386.67717,2.36583
386.43610,2.29075
386.19503,2.08566
385.95396,1.94683
385.71289,1.92450
385.47182,1.98370
385.23075,2.01800
384.98968,2.08986
384.74861,2.23965
384.50754,2.28093
384.26647,2.07781
384.02540,2.02405
383.78433,2.07847
383.54326,2.14746
383.30219,2.28525
383.06111,2.48158
382.82004,2.43106
382.57897,2.25014
382.33790,2.19253
382.09683,2.31834
381.85576,2.25287
381.61469,1.94349
381.37362,1.89895
381.13255,1.94270
380.89148,1.92506
380.65041,1.97803
380.40934,1.99978
380.16827,1.86794
379.92720,1.77642
379.68613,1.80409
379.44506,1.87843
379.20399,1.88702
378.96292,1.89561
378.72184,1.97960
378.48077,1.96048
378.23970,1.91469
377.99863,1.99530
377.75756,2.02631
377.51649,2.03723
377.27542,2.02353
377.03435,1.92593
376.79328,1.84006
376.55221,1.83804
376.31114,1.90015
376.07007,1.90431
375.82900,1.84250
375.58793,1.79742
375.34686,1.78613
375.10579,1.84735
374.86472,1.98532
374.62365,2.03084
374.38257,1.91583
374.14150,1.83676
373.90043,1.85937
373.65936,1.92219
373.41829,1.99652
373.17722,2.05295
372.93615,2.00655
372.69508,1.87982
372.45401,1.77699
372.21294,1.72998
371.97187,1.69943
371.73080,1.65220
371.48973,1.62407
371.24866,1.63759
371.00759,1.66241
370.76652,1.65994
370.52545,1.62369
370.28437,1.58434
370.04330,1.55649
369.80223,1.52704
369.56116,1.49729
369.32009,1.48441
369.07902,1.49774
368.83795,1.52436
368.59688,1.54043
368.35581,1.53946
368.11474,1.53375
367.87367,1.52474
367.63260,1.49844
367.39153,1.45186
367.15046,1.40197
366.90939,1.36977
366.66832,1.36604
366.42725,1.38630
366.18618,1.41200
365.94510,1.42460
365.70403,1.42519
365.46296,1.42440
365.22189,1.42505
364.98082,1.42509
364.73975,1.42436
364.49868,1.42582
364.25761,1.43256
364.01654,1.44135
363.77547,1.44374
363.53440,1.43467
363.29333,1.41576
363.05226,1.39837
362.81119,1.39669
362.57012,1.40638
362.32905,1.40499
362.08798,1.38480
361.84691,1.36587
361.60583,1.37076
361.36476,1.39846
361.12369,1.42305
360.88262,1.42353
360.64155,1.40518
360.40048,1.38187
360.15941,1.36282
359.91834,1.35427
359.67727,1.35736
359.43620,1.36743
359.19513,1.37894
358.95406,1.38736
358.71299,1.39209
358.47192,1.39808
358.23085,1.40356
357.98978,1.39806
357.74871,1.38018
357.50764,1.35913
357.26656,1.33882
357.02549,1.32189
356.78442,1.31936
356.54335,1.33617
356.30228,1.35597
356.06121,1.35891
355.82014,1.35066
355.57907,1.34631
355.33800,1.34775
355.09693,1.35339
354.85586,1.36584
354.61479,1.38312
354.37372,1.39635
354.13265,1.39520
353.89158,1.38011
353.65051,1.36686
353.40944,1.36926
353.16837,1.38589
352.92729,1.40529
352.68622,1.42072
352.44515,1.43109
352.20408,1.43247
351.96301,1.42407
351.72194,1.40964
351.48087,1.39061
351.23980,1.36699
350.99873,1.34053
350.75766,1.31902
350.51659,1.31370
350.27552,1.32868
350.03445,1.35677
349.79338,1.38415
349.55231,1.39987
349.31124,1.40339
349.07017,1.40253
348.82910,1.40441
348.58802,1.40853
348.34695,1.41087
348.10588,1.41513
347.86481,1.42865
347.62374,1.44346
347.38267,1.44241
347.14160,1.42617
346.90053,1.41078
346.65946,1.40752
346.41839,1.41717
346.17732,1.43486
345.93625,1.45415
345.69518,1.46647
345.45411,1.46116
345.21304,1.44096
344.97197,1.43111
344.73090,1.45349
344.48983,1.50536
344.24875,1.55962
344.00768,1.58396
343.76661,1.57675
343.52554,1.56157
343.28447,1.55174
343.04340,1.54757
342.80233,1.54926
342.56126,1.53996
342.32019,1.52611
342.07912,1.53311
341.83805,1.55970
341.59698,1.58604
341.35591,1.59854
341.11484,1.60677
340.87377,1.63081
340.63270,1.66927
340.39163,1.70818
340.15056,1.74044
339.90948,1.76741
339.66841,1.78997
339.42734,1.80278
339.18627,1.79067
338.94520,1.73884
338.70413,1.67143
338.46306,1.64154
338.22199,1.68165
337.98092,1.79583
337.73985,1.95201
337.49878,2.08367
337.25771,2.14676
337.01664,2.11981
336.77557,2.08102
336.53450,2.05553
336.29343,2.00350
336.05236,1.92528
335.81129,1.87236
335.57021,1.91287
335.32914,2.07112
335.08807,2.22568
334.84700,2.20016
334.60593,2.01115
334.36486,1.82382
334.12379,1.71601
333.88272,1.68678
333.64165,1.72389
333.40058,1.77115
333.15951,1.76476
332.91844,1.72784
332.67737,1.71103
332.43630,1.72081
332.19523,1.74310
331.95416,1.75986
331.71309,1.75976
331.47202,1.72914
331.23094,1.67059
330.98987,1.61135
330.74880,1.57088
330.50773,1.54734
330.26666,1.52807
330.02559,1.50486
329.78452,1.48437
329.54345,1.47261
329.30238,1.46083
329.06131,1.44884
328.82024,1.46806
328.57917,1.55543
328.33810,1.70350
328.09703,1.82431
327.85596,1.84544
327.61489,1.79434
327.37382,1.71337
327.13275,1.62245
326.89167,1.54726
326.65060,1.52401
326.40953,1.57437
326.16846,1.67132
325.92739,1.73822
325.68632,1.73348
325.44525,1.67712
325.20418,1.61910
324.96311,1.59071
324.72204,1.59104
324.48097,1.63082
324.23990,1.70088
323.99883,1.74466
323.75776,1.75384
323.51669,1.78259
323.27562,1.85522
323.03455,1.92329
322.79348,1.91013
322.55240,1.80979
322.31133,1.72347
322.07026,1.71996
321.82919,1.82493
321.58812,2.05661
321.34705,2.20422
321.10598,2.09040
320.86491,2.09358
320.62384,2.05002
320.38277,2.00487
320.14170,2.09465
319.90063,2.16819
319.65956,2.06483
319.41849,1.89547
319.17742,1.80868
318.93635,1.80716
318.69528,1.83669
318.45421,1.86193
318.21313,1.88225
317.97206,1.86271
317.73099,1.77841
317.48992,1.68390
317.24885,1.64153
317.00778,1.65109
316.76671,1.69908
316.52564,1.79335
316.28457,1.96432
316.04350,2.18091
315.80243,2.29935
315.56136,2.24448
315.32029,2.14016
315.07922,2.08519
314.83815,2.15657
314.59708,2.18144
314.35601,2.13293
314.11494,2.12952
313.87386,2.11436
313.63279,2.11673
313.39172,2.17333
313.15065,2.20577
312.90958,2.24663
312.66851,2.24384
312.42744,2.07734
312.18637,1.90023
311.94530,1.83505
311.70423,1.85094
311.46316,1.91229
311.22209,2.00606
310.98102,2.13119
310.73995,2.24817
310.49888,2.37323
310.25781,2.56816
310.01674,2.80410
309.77567,2.78700
309.53459,2.67344
309.29352,2.50752
309.05245,2.31927
308.81138,2.16910
308.57031,2.03678
308.32924,1.93991
308.08817,1.95157
307.84710,2.10760
307.60603,2.25969
307.36496,2.17278
307.12389,2.03300
306.88282,1.90303
306.64175,1.82432
306.40068,1.80062
306.15961,1.80673
305.91854,1.78698
305.67747,1.76089
305.43640,1.74078
305.19532,1.68554
304.95425,1.62317
304.71318,1.59561
304.47211,1.59675
304.23104,1.59802
303.98997,1.58615
303.74890,1.56451
303.50783,1.55183
303.26676,1.55069
303.02569,1.53155
302.78462,1.47510
302.54355,1.40203
302.30248,1.34444
302.06141,1.32472
301.82034,1.34530
301.57927,1.38463
301.33820,1.41082
301.09713,1.41132
300.85605,1.40090
300.61498,1.39051
300.37391,1.37316
300.13284,1.34408
299.89177,1.31914
299.65070,1.31766
299.40963,1.33753
299.16856,1.35529
298.92749,1.35125
298.68642,1.32700
298.44535,1.29509
298.20428,1.26785
297.96321,1.25348
297.72214,1.25013
297.48107,1.24602
297.24000,1.23479
296.99893,1.22543
296.75786,1.22631
296.51678,1.22798
296.27571,1.21531
296.03464,1.18993
295.79357,1.16685
295.55250,1.15789
295.31143,1.16357
295.07036,1.17458
294.82929,1.17759
294.58822,1.16478
294.34715,1.14109
294.10608,1.11868
293.86501,1.10617
293.62394,1.10501
293.38287,1.11130
293.14180,1.11827
292.90073,1.12002
292.65966,1.11634
292.41859,1.11366
292.17751,1.11854
291.93644,1.12975
291.69537,1.13846
291.45430,1.13795
291.21323,1.13110
290.97216,1.12379
290.73109,1.11512
290.49002,1.10124
290.24895,1.08694
290.00788,1.08249
289.76681,1.08873
289.52574,1.09447
289.28467,1.09260
289.04360,1.08960
288.80253,1.09184
288.56146,1.09555
288.32039,1.09484
288.07932,1.09040
287.83824,1.08517
287.59717,1.07731
287.35610,1.06481
287.11503,1.05270
286.87396,1.04831
286.63289,1.05232
286.39182,1.05901
286.15075,1.06309
285.90968,1.06265
285.66861,1.05820
285.42754,1.05152
285.18647,1.04386
284.94540,1.03615
284.70433,1.03188
284.46326,1.03380
284.22219,1.03741
283.98112,1.03600
283.74005,1.03157
283.49897,1.03117
283.25790,1.03403
283.01683,1.03247
282.77576,1.02430
282.53469,1.01601
282.29362,1.01430
282.05255,1.01790
281.81148,1.01922
281.57041,1.01380
281.32934,1.00573
281.08827,1.00224
280.84720,1.00436
280.60613,1.00634
280.36506,1.00480
280.12399,1.00476
279.88292,1.01259
279.64185,1.02492
279.40078,1.02985
279.15970,1.02141
278.91863,1.00882
278.67756,1.00524
278.43649,1.01108
278.19542,1.01582
277.95435,1.01453
277.71328,1.01389
277.47221,1.02112
277.23114,1.03443
276.99007,1.04495
276.74900,1.04534
276.50793,1.03683
276.26686,1.02796
276.02579,1.02590
275.78472,1.02946
275.54365,1.03172
275.30258,1.02962
275.06151,1.02779
274.82043,1.03068
274.57936,1.03483
274.33829,1.03380
274.09722,1.02908
273.85615,1.02809
273.61508,1.03198
273.37401,1.03439
273.13294,1.03276
272.89187,1.03213
272.65080,1.03542
272.40973,1.03860
272.16866,1.03828
271.92759,1.03778
271.68652,1.04087
271.44545,1.04478
271.20438,1.04503
270.96331,1.04385
270.72224,1.04749
270.48116,1.05668
270.24009,1.06443
269.99902,1.06443
269.75795,1.05772
269.51688,1.05026
269.27581,1.04775
269.03474,1.05168
268.79367,1.05836
268.55260,1.06329
268.31153,1.06587
268.07046,1.06766
267.82939,1.06915
267.58832,1.07160
267.34725,1.08031
267.10618,1.10075
266.86511,1.12795
266.62404,1.14368
266.38297,1.13639
266.14189,1.11938
265.90082,1.11386
265.65975,1.12428
265.41868,1.13963
265.17761,1.15112
264.93654,1.15965
264.69547,1.16912
264.45440,1.18140
264.21333,1.19513
263.97226,1.20407
263.73119,1.20301
263.49012,1.19845
263.24905,1.20339
263.00798,1.22084
262.76691,1.23972
262.52584,1.24730
262.28477,1.24374
262.04370,1.24185
261.80262,1.25304
261.56155,1.27780
261.32048,1.30936
261.07941,1.34060
260.83834,1.36845
260.59727,1.39031
260.35620,1.39815
260.11513,1.39002
259.87406,1.38141
259.63299,1.38829
259.39192,1.40851
259.15085,1.42909
258.90978,1.44525
258.66871,1.46217
258.42764,1.48780
258.18657,1.52809
257.94550,1.57833
257.70443,1.61761
257.46335,1.63173
257.22228,1.64132
256.98121,1.67620
256.74014,1.73128
256.49907,1.77245
256.25800,1.78985
256.01693,1.81284
255.77586,1.89273
255.53479,2.05092
255.29372,2.19801
255.05265,2.20031
254.81158,2.11354
254.57051,2.06281
254.32944,2.09533
254.08837,2.10453
253.84730,2.01747
253.60623,1.94360
253.36516,1.91467
253.12408,1.92547
252.88301,1.96864
252.64194,2.02369
252.40087,2.07478
252.15980,2.10980
251.91873,2.12920
251.67766,2.11835
251.43659,2.00448
251.19552,1.91333
250.95445,1.91717
250.71338,1.99612
250.47231,2.09900
250.23124,2.16147
249.99017,2.17907
249.74910,2.24161
249.50803,2.43712
249.26696,2.69427
249.02589,2.60704
248.78481,2.41541
248.54374,2.34191
248.30267,2.34890
248.06160,2.31941
247.82053,2.18011
247.57946,2.13596
247.33839,2.24903
247.09732,2.42852
246.85625,2.58567
246.61518,2.66305
246.37411,2.46620
246.13304,2.34398
245.89197,2.22978
245.65090,2.10074
245.40983,1.99507
245.16876,1.97491
244.92769,2.01343
244.68661,1.96288
244.44554,1.83987
244.20447,1.73461
243.96340,1.67610
243.72233,1.66550
243.48126,1.68699
243.24019,1.71542
242.99912,1.71929
242.75805,1.67911
242.51698,1.60992
242.27591,1.53149
242.03484,1.44371
241.79377,1.34743
241.55270,1.25727
241.31163,1.19121
241.07056,1.15118
240.82949,1.12037
240.58842,1.08222
240.34734,1.03886
240.10627,1.00522
239.86520,0.98880
239.62413,0.98335
239.38306,0.97690
239.14199,0.95963
238.90092,0.93106
238.65985,0.90090
238.41878,0.87860
238.17771,0.86425
237.93664,0.85083
237.69557,0.83426
237.45450,0.81796
237.21343,0.80637
236.97236,0.79836
236.73129,0.78955
236.49022,0.77897
236.24915,0.76950
236.00807,0.76283
235.76700,0.75635
235.52593,0.74663
235.28486,0.73469
235.04379,0.72485
234.80272,0.71930
234.56165,0.71673
234.32058,0.71444
234.07951,0.71015
233.83844,0.70391
233.59737,0.69899
233.35630,0.69836
233.11523,0.70071
232.87416,0.70225
232.63309,0.70136
232.39202,0.69837
232.15095,0.69361
231.90988,0.68834
231.66880,0.68432
231.42773,0.68170
231.18666,0.67937
230.94559,0.67674
230.70452,0.67466
230.46345,0.67530
230.22238,0.68035
229.98131,0.68815
229.74024,0.69331
229.49917,0.69117
229.25810,0.68269
229.01703,0.67408
228.77596,0.67092
228.53489,0.67301
228.29382,0.67627
228.05275,0.67848
227.81168,0.68073
227.57061,0.68435
227.32953,0.68891
227.08846,0.69305
226.84739,0.69580
226.60632,0.69755
226.36525,0.69930
226.12418,0.69993
225.88311,0.69708
225.64204,0.69166
225.40097,0.68761
225.15990,0.68709
224.91883,0.68940
224.67776,0.69326
224.43669,0.69727
224.19562,0.69921
223.95455,0.69865
223.71348,0.69867
223.47241,0.70181
223.23134,0.70628
222.99026,0.70935
222.74919,0.71228
222.50812,0.71793
222.26705,0.72530
222.02598,0.73071
221.78491,0.73380
221.54384,0.73813
221.30277,0.74604
221.06170,0.75615
220.82063,0.76646
220.57956,0.77674
220.33849,0.78634
220.09742,0.79313
219.85635,0.79729
219.61528,0.80235
219.37421,0.81025
219.13314,0.81922
218.89207,0.82840
218.65099,0.84022
218.40992,0.85535
218.16885,0.86990
217.92778,0.88060
217.68671,0.88889
217.44564,0.89773
217.20457,0.90883
216.96350,0.92296
216.72243,0.93913
216.48136,0.95345
216.24029,0.96211
215.99922,0.96641
215.75815,0.97261
215.51708,0.98585
215.27601,1.00620
215.03494,1.02929
214.79387,1.04989
214.55280,1.06516
214.31172,1.07487
214.07065,1.08057
213.82958,1.08562
213.58851,1.09359
213.34744,1.10515
213.10637,1.11646
212.86530,1.12176
212.62423,1.11971
212.38316,1.11549
212.14209,1.11455
211.90102,1.11768
211.65995,1.12290
211.41888,1.12853
211.17781,1.13478
210.93674,1.14155
210.69567,1.14506
210.45460,1.14008
210.21353,1.12687
209.97245,1.11224
209.73138,1.10352
209.49031,1.10360
209.24924,1.10939
209.00817,1.11471
208.76710,1.11673
208.52603,1.11852
208.28496,1.12248
208.04389,1.12521
207.80282,1.12216
207.56175,1.11123
207.32068,1.09317
207.07961,1.07402
206.83854,1.06125
206.59747,1.05562
206.35640,1.05282
206.11533,1.05043
205.87426,1.04670
205.63318,1.03795
205.39211,1.02399
205.15104,1.01074
204.90997,1.00165
204.66890,0.99288
204.42783,0.97995
204.18676,0.96383
203.94569,0.94873
203.70462,0.93638
203.46355,0.92517
203.22248,0.91375
202.98141,0.90280
202.74034,0.89262
202.49927,0.88077
202.25820,0.86428
202.01713,0.84406
201.77606,0.82489
201.53499,0.81056
201.29391,0.80045
201.05284,0.79105
200.81177,0.77975
200.57070,0.76739
200.32963,0.75728
200.08856,0.75087
199.84749,0.74445
199.60642,0.73313
199.36535,0.71811
199.12428,0.70549
198.88321,0.69795
198.64214,0.69192
198.40107,0.68296
198.16000,0.67088
197.91893,0.65871
197.67786,0.64874
197.43679,0.64053
197.19572,0.63208
196.95464,0.62215
196.71357,0.61152
196.47250,0.60205
196.23143,0.59462
195.99036,0.58864
195.74929,0.58276
195.50822,0.57587
195.26715,0.56829
195.02608,0.56199
194.78501,0.55853
194.54394,0.55703
194.30287,0.55491
194.06180,0.55070
193.82073,0.54522
193.57966,0.53998
193.33859,0.53556
193.09752,0.53164
192.85645,0.52761
192.61537,0.52316
192.37430,0.51901
192.13323,0.51625
191.89216,0.51476
191.65109,0.51295
191.41002,0.50974
191.16895,0.50533
190.92788,0.50046
190.68681,0.49620
190.44574,0.49383
190.20467,0.49352
189.96360,0.49371
189.72253,0.49282
189.48146,0.49057
189.24039,0.48740
188.99932,0.48382
188.75825,0.48067
188.51718,0.47885
188.27610,0.47851
188.03503,0.47890
187.79396,0.47879
187.55289,0.47730
187.31182,0.47480
187.07075,0.47263
186.82968,0.47172
186.58861,0.47199
186.34754,0.47321
186.10647,0.47512
185.86540,0.47661
185.62433,0.47686
185.38326,0.47700
185.14219,0.47839
184.90112,0.48044
184.66005,0.48190
184.41898,0.48272
184.17791,0.48333
183.93683,0.48394
183.69576,0.48488
183.45469,0.48626
183.21362,0.48758
182.97255,0.48868
182.73148,0.48948
182.49041,0.48893
182.24934,0.48655
182.00827,0.48420
181.76720,0.48421
181.52613,0.48668
181.28506,0.48997
181.04399,0.49282
180.80292,0.49506
180.56185,0.49715
180.32078,0.50035
180.07971,0.50635
179.83864,0.51563
179.59756,0.52597
179.35649,0.53346
179.11542,0.53701
178.87435,0.54016
178.63328,0.54620
178.39221,0.55357
178.15114,0.55910
177.91007,0.56379
177.66900,0.57143
177.42793,0.58317
177.18686,0.59670
176.94579,0.60969
176.70472,0.62170
176.46365,0.63378
176.22258,0.64750
175.98151,0.66421
175.74044,0.68434
175.49937,0.70663
175.25829,0.72825
175.01722,0.74743
174.77615,0.76545
174.53508,0.78411
174.29401,0.80264
174.05294,0.81921
173.81187,0.83365
173.57080,0.84702
173.32973,0.86050
173.08866,0.87469
172.84759,0.88844
172.60652,0.89967
172.36545,0.90762
172.12438,0.91177
171.88331,0.91063
171.64224,0.90517
171.40117,0.90003
171.16010,0.89840
170.91902,0.89865
170.67795,0.89760
170.43688,0.89464
170.19581,0.89069
169.95474,0.88493
169.71367,0.87621
169.47260,0.86690
169.23153,0.86204
168.99046,0.86308
168.74939,0.86490
168.50832,0.86093
168.26725,0.84986
168.02618,0.83624
167.78511,0.82608
167.54404,0.82286
167.30297,0.82595
167.06190,0.83126
166.82083,0.83411
166.57975,0.83379
166.33868,0.83476
166.09761,0.84141
165.85654,0.85289
165.61547,0.86508
165.37440,0.87661
165.13333,0.88945
164.89226,0.90352
164.65119,0.91490
164.41012,0.92129
164.16905,0.92567
163.92798,0.93245
163.68691,0.94293
163.44584,0.95559
163.20477,0.96842
162.96370,0.97996
162.72263,0.98953
162.48156,0.99697
162.24048,1.00260
161.99941,1.00784
161.75834,1.01527
161.51727,1.02507
161.27620,1.03205
161.03513,1.02923
160.79406,1.01597
160.55299,1.00125
160.31192,0.99491
160.07085,0.99697
159.82978,0.99923
159.58871,0.99483
159.34764,0.98298
159.10657,0.96738
158.86550,0.95470
158.62443,0.95057
158.38336,0.95431
158.14229,0.96041
157.90121,0.96451
157.66014,0.96486
157.41907,0.95981
157.17800,0.94931
156.93693,0.93633
156.69586,0.92372
156.45479,0.91316
156.21372,0.90583
155.97265,0.90164
155.73158,0.89893
155.49051,0.89571
155.24944,0.89049
155.00837,0.88322
154.76730,0.87573
154.52623,0.86877
154.28516,0.85926
154.04409,0.84364
153.80302,0.82353
153.56194,0.80458
153.32087,0.78991
153.07980,0.77708
152.83873,0.76169
152.59766,0.74219
152.35659,0.72043
152.11552,0.69918
151.87445,0.68026
151.63338,0.66400
151.39231,0.64908
151.15124,0.63393
150.91017,0.61878
150.66910,0.60509
150.42803,0.59282
150.18696,0.58040
149.94589,0.56764
149.70482,0.55652
149.46375,0.54851
149.22267,0.54242
148.98160,0.53542
148.74053,0.52606
148.49946,0.51560
148.25839,0.50624
148.01732,0.49868
147.77625,0.49221
147.53518,0.48721
147.29411,0.48559
147.05304,0.48783
146.81197,0.49109
146.57090,0.49187
146.32983,0.49013
146.08876,0.48900
145.84769,0.49106
145.60662,0.49622
145.36555,0.50342
145.12448,0.51249
144.88340,0.52272
144.64233,0.53069
144.40126,0.53310
144.16019,0.53144
143.91912,0.52999
143.67805,0.52996
143.43698,0.52926
143.19591,0.52685
142.95484,0.52365
142.71377,0.51972
142.47270,0.51330
142.23163,0.50316
141.99056,0.49124
141.74949,0.48125
141.50842,0.47479
141.26735,0.47018
141.02628,0.46522
140.78521,0.45945
140.54413,0.45362
140.30306,0.44880
140.06199,0.44625
139.82092,0.44664
139.57985,0.44984
139.33878,0.45553
139.09771,0.46334
138.85664,0.47216
138.61557,0.48080
138.37450,0.48909
138.13343,0.49769
137.89236,0.50702
137.65129,0.51728
137.41022,0.52927
137.16915,0.54444
136.92808,0.56333
136.68701,0.58397
136.44594,0.60341
136.20486,0.62182
135.96379,0.64363
135.72272,0.67227
135.48165,0.70523
135.24058,0.73766
134.99951,0.76886
134.75844,0.79947
134.51737,0.82580
134.27630,0.84547
134.03523,0.86418
133.79416,0.88863
133.55309,0.91707
133.31202,0.94154
133.07095,0.95647
132.82988,0.96235
132.58881,0.96378
132.34774,0.96601
132.10667,0.97153
131.86559,0.97887
131.62452,0.98446
131.38345,0.98464
131.14238,0.97643
130.90131,0.95896
130.66024,0.93439
130.41917,0.90577
130.17810,0.87542
129.93703,0.84583
129.69596,0.81868
129.45489,0.79221
129.21382,0.76314
128.97275,0.73217
128.73168,0.70282
128.49061,0.67535
128.24954,0.64654
128.00847,0.61525
127.76740,0.58437
127.52632,0.55719
127.28525,0.53412
127.04418,0.51347
126.80311,0.49407
126.56204,0.47589
126.32097,0.45939
126.07990,0.44566
125.83883,0.43555
125.59776,0.42755
125.35669,0.41857
125.11562,0.40786
124.87455,0.39760
124.63348,0.38929
124.39241,0.38210
124.15134,0.37418
123.91027,0.36458
123.66920,0.35476
123.42812,0.34807
123.18705,0.34633
122.94598,0.34738
122.70491,0.34783
122.46384,0.34703
122.22277,0.34627
121.98170,0.34605
121.74063,0.34644
121.49956,0.34834
121.25849,0.35248
121.01742,0.35824
120.77635,0.36447
120.53528,0.37129
120.29421,0.38045
120.05314,0.39386
119.81207,0.41156
119.57100,0.43130
119.32993,0.45105
119.08885,0.47140
118.84778,0.49444
118.60671,0.52088
118.36564,0.54930
118.12457,0.57809
117.88350,0.60593
117.64243,0.62990
117.40136,0.64652
117.16029,0.65703
116.91922,0.66700
116.67815,0.67796
116.43708,0.68333
116.19601,0.67540
115.95494,0.65448
115.71387,0.62910
115.47280,0.60863
115.23173,0.59707
114.99066,0.59191
114.74958,0.58712
114.50851,0.57802
114.26744,0.56466
114.02637,0.55094
113.78530,0.54115
113.54423,0.53749
113.30316,0.53982
113.06209,0.54601
112.82102,0.55291
112.57995,0.55851
112.33888,0.56238
112.09781,0.56520
111.85674,0.56949
111.61567,0.57746
111.37460,0.58724
111.13353,0.59499
110.89246,0.60034
110.65139,0.60485
110.41031,0.60650
110.16924,0.60103
109.92817,0.58833
109.68710,0.57301
109.44603,0.55857
109.20496,0.54374
108.96389,0.52612
108.72282,0.50697
108.48175,0.48869
108.24068,0.47035
107.99961,0.45051
107.75854,0.43102
107.51747,0.41384
107.27640,0.39791
107.03533,0.38174
106.79426,0.36618
106.55319,0.35297
106.31212,0.34287
106.07104,0.33533
105.82997,0.32826
105.58890,0.31916
105.34783,0.30779
105.10676,0.29683
104.86569,0.28891
104.62462,0.28374
104.38355,0.27864
104.14248,0.27146
103.90141,0.26234
103.66034,0.25305
103.41927,0.24567
103.17820,0.24117
102.93713,0.23847
102.69606,0.23506
102.45499,0.22963
102.21392,0.22372
101.97285,0.21958
101.73177,0.21708
101.49070,0.21422
101.24963,0.21034
101.00856,0.20705
100.76749,0.20530
100.52642,0.20340
100.28535,0.19955
100.04428,0.19476
99.80321,0.19096
99.56214,0.18849
99.32107,0.18714
99.08000,0.18738
98.83893,0.18876
98.59786,0.18931
98.35679,0.18770
98.11572,0.18484
97.87465,0.18307
97.63358,0.18456
97.39250,0.18958
97.15143,0.19588
96.91036,0.20107
96.66929,0.20525
96.42822,0.20963
96.18715,0.21423
95.94608,0.21889
95.70501,0.22504
95.46394,0.23371
95.22287,0.24322
94.98180,0.25071
94.74073,0.25509
94.49966,0.25718
94.25859,0.25843
94.01752,0.25999
93.77645,0.26113
93.53538,0.25934
93.29431,0.25494
93.05323,0.25274
92.81216,0.25574
92.57109,0.26055
92.33002,0.26276
92.08895,0.26374
91.84788,0.26781
91.60681,0.27607
91.36574,0.28659
91.12467,0.29840
90.88360,0.31280
90.64253,0.33171
90.40146,0.35638
90.16039,0.38768
89.91932,0.42565
89.67825,0.46822
89.43718,0.51129
89.19611,0.55100
88.95504,0.58446
88.71396,0.60710
88.47289,0.61229
88.23182,0.59614
87.99075,0.56199
87.74968,0.51834
87.50861,0.47265
87.26754,0.42852
87.02647,0.38717
86.78540,0.35002
86.54433,0.31964
86.30326,0.29745
86.06219,0.28077
85.82112,0.26423
85.58005,0.24511
85.33898,0.22602
85.09791,0.21091
84.85684,0.20004
84.61577,0.19054
84.37469,0.18034
84.13362,0.16985
83.89255,0.16018
83.65148,0.15165
83.41041,0.14396
83.16934,0.13722
82.92827,0.13207
82.68720,0.12885
82.44613,0.12700
82.20506,0.12539
81.96399,0.12330
81.72292,0.12120
81.48185,0.12009
81.24078,0.12004
80.99971,0.11992
80.75864,0.11868
80.51757,0.11603
80.27650,0.11224
80.03542,0.10818
79.79435,0.10501
79.55328,0.10288
79.31221,0.10074
79.07114,0.09791
78.83007,0.09558
78.58900,0.09591
78.34793,0.09913
78.10686,0.10227
77.86579,0.10229
77.62472,0.09964
77.38365,0.09704
77.14258,0.09545
76.90151,0.09362
76.66044,0.09083
76.41937,0.08775
76.17830,0.08522
75.93723,0.08319
75.69615,0.08080
75.45508,0.07782
75.21401,0.07571
74.97294,0.07574
74.73187,0.07700
74.49080,0.07778
74.24973,0.07788
74.00866,0.07790
73.76759,0.07810
73.52652,0.07855
73.28545,0.07905
73.04438,0.07942
72.80331,0.08012
72.56224,0.08157
72.32117,0.08322
72.08010,0.08473
71.83903,0.08717
71.59796,0.09138
71.35688,0.09638
71.11581,0.10073
70.87474,0.10419
70.63367,0.10784
70.39260,0.11377
70.15153,0.12380
69.91046,0.13732
69.66939,0.15122
69.42832,0.16226
69.18725,0.16887
68.94618,0.17088
68.70511,0.16829
68.46404,0.16079
68.22297,0.14878
67.98190,0.13472
67.74083,0.12170
67.49976,0.11084
67.25869,0.10144
67.01761,0.09322
66.77654,0.08672
66.53547,0.08189
66.29440,0.07807
66.05333,0.07538
65.81226,0.07466
65.57119,0.07607
65.33012,0.07848
65.08905,0.08071
64.84798,0.08353
64.60691,0.08895
64.36584,0.09711
64.12477,0.10444
63.88370,0.10684
63.64263,0.10444
63.40156,0.10069
63.16049,0.09714
62.91942,0.09224
62.67834,0.08542
62.43727,0.07907
62.19620,0.07542
61.95513,0.07365
61.71406,0.07131
61.47299,0.06758
61.23192,0.06397
60.99085,0.06209
60.74978,0.06181
60.50871,0.06198
60.26764,0.06205
60.02657,0.06250
59.78550,0.06428
59.54443,0.06808
59.30336,0.07311
59.06229,0.07648
58.82122,0.07500
58.58015,0.06874
58.33907,0.06174
58.09800,0.05819
57.85693,0.05851
57.61586,0.05962
57.37479,0.05875
57.13372,0.05632
56.89265,0.05406
56.65158,0.05216
56.41051,0.05064
56.16944,0.05090
55.92837,0.05327
55.68730,0.05547
55.44623,0.05536
55.20516,0.05364
54.96409,0.05285
54.72302,0.05450
54.48195,0.05712
54.24088,0.05747
53.99980,0.05476
53.75873,0.05189
53.51766,0.05113
53.27659,0.05151
53.03552,0.05235
52.79445,0.05524
52.55338,0.06098
52.31231,0.06752
52.07124,0.07139
51.83017,0.07029
51.58910,0.06524
51.34803,0.05948
51.10696,0.05509
50.86589,0.05256
50.62482,0.05252
50.38375,0.05507
50.14268,0.05856
49.90161,0.06086
49.66053,0.06104
49.41946,0.05916
49.17839,0.05612
48.93732,0.05290
48.69625,0.04923
48.45518,0.04432
48.21411,0.03820
47.97304,0.03142
47.73197,0.02442
47.49090,0.01779
47.24983,0.01237
47.00876,0.00819
46.76769,0.00374
46.52662,-0.00162
46.28555,-0.00501
46.04448,-0.00173
45.80341,0.00856
45.56234,0.01952
45.32126,0.02550
45.08019,0.02693
44.83912,0.02615
44.59805,0.02371
44.35698,0.02214
44.11591,0.02626
43.87484,0.03502
43.63377,0.03942
43.39270,0.03272
43.15163,0.01898
42.91056,0.01005
42.66949,0.01356
42.42842,0.02512
42.18735,0.03416
41.94628,0.03422
41.70521,0.02536
41.46414,0.01319
41.22307,0.00623
40.98199,0.00805
40.74092,0.01462
40.49985,0.02118
40.25878,0.02659
40.01771,0.03120
39.77664,0.03537
39.53557,0.03858
39.29450,0.03928
39.05343,0.03698
38.81236,0.03419
38.57129,0.03427
38.33022,0.03750
38.08915,0.04214
37.84808,0.04655
37.60701,0.04624
37.36594,0.03451
37.12487,0.01284
36.88380,-0.00381
36.64272,-0.00055
36.40165,0.02012
36.16058,0.04080
35.91951,0.04773
35.67844,0.04445
35.43737,0.04475
35.19630,0.05362
34.95523,0.06027
34.71416,0.05239
34.47309,0.03449
34.23202,0.01813
33.99095,0.00647
33.74988,0.00381
33.50881,0.01798
33.26774,0.04883
33.02667,0.08483
32.78560,0.11291
32.54453,0.12735
32.30345,0.12334
32.06238,0.10486
31.82131,0.09225
31.58024,0.09093
31.33917,0.08003
31.09810,0.05055
30.85703,0.02810
30.61596,0.03274
30.37489,0.05260
30.13382,0.06951
29.89275,0.07714
29.65168,0.07341
29.41061,0.05844
29.16954,0.04157
28.92847,0.03522
28.68740,0.03637
28.44633,0.03552
28.20526,0.04210
27.96418,0.06617
27.72311,0.09425
27.48204,0.09754
27.24097,0.06765
26.99990,0.03591
26.75883,0.03988
26.51776,0.08381
26.27669,0.14296
26.03562,0.18946
25.79455,0.21828
25.55348,0.24081
25.31241,0.26184
25.07134,0.28233
24.83027,0.31089
24.58920,0.34636
24.34813,0.35428
24.10706,0.30411
23.86599,0.23355
23.62491,0.20490
23.38384,0.23747
23.14277,0.29788
22.90170,0.33071
22.66063,0.32644
22.41956,0.31850
22.17849,0.32455
21.93742,0.31226
21.69635,0.29960
21.45528,0.32098
21.21421,0.36841
20.97314,0.37848
20.73207,0.34017
20.49100,0.31668
20.24993,0.30735
20.00886,0.31746
19.76779,0.36661
19.52672,0.43152
19.28564,0.46825
19.04457,0.52086
18.80350,0.71977
18.56243,0.95798
18.32136,0.80196
18.08029,0.74516
17.83922,0.65166
17.59815,0.58679
17.35708,0.55497
17.11601,0.54657
16.87494,0.55406
16.63387,0.58403
16.39280,0.71316
16.15173,0.95067
15.91066,1.03092
15.66959,0.92329
15.42852,0.83252
15.18745,0.69917
14.94637,0.61944
14.70530,0.59690
14.46423,0.54253
14.22316,0.50557
13.98209,0.55924
13.74102,0.62661
13.49995,0.71376
13.25888,0.78392
13.01781,0.67704
12.77674,0.57445
12.53567,0.55086
12.29460,0.59646
12.05353,0.66510
11.81246,0.77525
11.57139,0.91014
11.33032,0.78965
11.08925,0.72383
10.84818,0.80636
10.60710,0.78716
10.36603,0.68853
10.12496,0.59901
9.88389,0.55380
9.64282,0.56435
9.40175,0.57731
9.16068,0.56895
8.91961,0.59804
8.67854,0.70193
8.43747,0.77309
8.19640,0.83940
7.95533,1.09179
7.71426,1.11485
7.47319,0.95269
7.23212,0.76655
6.99105,0.63935
6.74998,0.62868
6.50891,0.61621
6.26783,0.59808
6.02676,0.68435
5.78569,0.75740
5.54462,0.69680
5.30355,0.79796
5.06248,0.85410
4.82141,0.69614
4.58034,0.62257
4.33927,0.64261
4.09820,0.70381
3.85713,0.69800
3.61606,0.65621
3.37499,0.71940
3.13392,0.87805
2.89285,1.01214
2.65178,0.91941
2.41071,0.77175
2.16964,0.76560
1.92856,0.85667
1.68749,0.96538
1.44642,1.12320
1.20535,0.91935
0.96428,0.76712
0.72321,0.64408
0.48214,0.59826
0.24107,0.57588
-0.00000,0.63315
