399.69498,1.65339
399.45391,1.64546
399.21284,1.63371
398.97177,1.62911
398.73070,1.64240
398.48963,1.67890
398.24856,1.73293
398.00749,1.78051
397.76642,1.78652
397.52535,1.74475
397.28428,1.69243
397.04321,1.63965
396.80214,1.58563
396.56107,1.56125
396.32000,1.59367
396.07892,1.66918
395.83785,1.73436
395.59678,1.76850
395.35571,1.83146
395.11464,1.96745
394.87357,2.12687
394.63250,2.16959
394.39143,2.05550
394.15036,1.90053
393.90929,1.81496
393.66822,1.81295
393.42715,1.85508
393.18608,1.87709
392.94501,1.82641
392.70394,1.73545
392.46287,1.68427
392.22180,1.70160
391.98073,1.75440
391.73965,1.78358
391.49858,1.78960
391.25751,1.83469
391.01644,1.98957
390.77537,2.22737
390.53430,2.23981
390.29323,2.15863
390.05216,2.14449
389.81109,2.10058
389.57002,2.09525
389.32895,2.29891
389.08788,2.36868
388.84681,2.12821
388.60574,2.09422
388.36467,2.24472
388.12360,2.13226
387.88253,1.94036
387.64146,1.92558
387.40038,2.03706
387.15931,2.14037
386.91824,2.23937
386.67717,2.32950
386.43610,2.23390
386.19503,2.21348
385.95396,2.43437
385.71289,2.35995
385.47182,2.04623
385.23075,1.97395
384.98968,2.07969
384.74861,2.17525
384.50754,1.95317
384.26647,1.78928
384.02540,1.80983
383.78433,1.97182
383.54326,2.05675
383.30219,1.99719
383.06111,1.88095
382.82004,1.79622
382.57897,1.80836
382.33790,1.95693
382.09683,2.18701
381.85576,2.07058
381.61469,1.91783
381.37362,1.92376
381.13255,1.95496
380.89148,1.98852
380.65041,2.07442
380.40934,2.13026
380.16827,2.01287
379.92720,1.94474
379.68613,1.94364
379.44506,1.94525
379.20399,1.97587
378.96292,2.03963
378.72184,2.17250
378.48077,2.45458
378.23970,2.27979
377.99863,2.03349
377.75756,1.98735
377.51649,2.04731
377.27542,2.15009
377.03435,2.15927
376.79328,1.98670
376.55221,1.91687
376.31114,1.97852
376.07007,2.16899
375.82900,2.43009
375.58793,2.22513
375.34686,2.03341
375.10579,2.02585
374.86472,2.16733
374.62365,2.04299
374.38257,1.96085
374.14150,2.00246
373.90043,2.09019
373.65936,2.16009
373.41829,2.27573
373.17722,2.15861
372.93615,1.92658
372.69508,1.81886
372.45401,1.78539
372.21294,1.76247
371.97187,1.72638
371.73080,1.67351
371.48973,1.60714
371.24866,1.54097
371.00759,1.49408
370.76652,1.47882
370.52545,1.49777
370.28437,1.53774
370.04330,1.56806
369.80223,1.56150
369.56116,1.52315
369.32009,1.48214
369.07902,1.45523
368.83795,1.43999
368.59688,1.43124
368.35581,1.42238
368.11474,1.40671
367.87367,1.38632
367.63260,1.37248
367.39153,1.37408
367.15046,1.37889
366.90939,1.36238
366.66832,1.32775
366.42725,1.30486
366.18618,1.30668
365.94510,1.32038
365.70403,1.33243
365.46296,1.34056
365.22189,1.34046
364.98082,1.32581
364.73975,1.30542
364.49868,1.29511
364.25761,1.29555
364.01654,1.29354
363.77547,1.28147
363.53440,1.26562
363.29333,1.25585
363.05226,1.25796
362.81119,1.27272
362.57012,1.29339
362.32905,1.30608
362.08798,1.29979
361.84691,1.28100
361.60583,1.26771
361.36476,1.26374
361.12369,1.25563
360.88262,1.23798
360.64155,1.22278
360.40048,1.21803
360.15941,1.21683
359.91834,1.21205
359.67727,1.20755
359.43620,1.20995
359.19513,1.21624
358.95406,1.21414
358.71299,1.19814
358.47192,1.18003
358.23085,1.17660
357.98978,1.19488
357.74871,1.22609
357.50764,1.24655
357.26656,1.24030
357.02549,1.22237
356.78442,1.21892
356.54335,1.23616
356.30228,1.25891
356.06121,1.27028
355.82014,1.26608
355.57907,1.25602
355.33800,1.25407
355.09693,1.26386
354.85586,1.27251
354.61479,1.26523
354.37372,1.24711
354.13265,1.23594
353.89158,1.23751
353.65051,1.24437
353.40944,1.24879
353.16837,1.24764
352.92729,1.24374
352.68622,1.24530
352.44515,1.25844
352.20408,1.27849
351.96301,1.28869
351.72194,1.27677
351.48087,1.25196
351.23980,1.22978
350.99873,1.21583
350.75766,1.21009
350.51659,1.21308
350.27552,1.22271
350.03445,1.23189
349.79338,1.23456
349.55231,1.22993
349.31124,1.22310
349.07017,1.22314
348.82910,1.23280
348.58802,1.24351
348.34695,1.24599
348.10588,1.24430
347.86481,1.25156
347.62374,1.27221
347.38267,1.29448
347.14160,1.30390
346.90053,1.30101
346.65946,1.29489
346.41839,1.29182
346.17732,1.29828
345.93625,1.31423
345.69518,1.32448
345.45411,1.31936
345.21304,1.30801
344.97197,1.30774
344.73090,1.32763
344.48983,1.35974
344.24875,1.38669
344.00768,1.39593
343.76661,1.38982
343.52554,1.38216
343.28447,1.38452
343.04340,1.40124
342.80233,1.42931
342.56126,1.45575
342.32019,1.46905
342.07912,1.47543
341.83805,1.48585
341.59698,1.50059
341.35591,1.51326
341.11484,1.52083
340.87377,1.52529
340.63270,1.53058
340.39163,1.54168
340.15056,1.55522
339.90948,1.55067
339.66841,1.51573
339.42734,1.47219
339.18627,1.44746
338.94520,1.44726
338.70413,1.46893
338.46306,1.51881
338.22199,1.60092
337.98092,1.69816
337.73985,1.77654
337.49878,1.81353
337.25771,1.80722
337.01664,1.79324
336.77557,1.80116
336.53450,1.83088
336.29343,1.86996
336.05236,1.89167
335.81129,1.88145
335.57021,1.85254
335.32914,1.83655
335.08807,1.84564
334.84700,1.86548
334.60593,1.88484
334.36486,1.89696
334.12379,1.88197
333.88272,1.83668
333.64165,1.78243
333.40058,1.71809
333.15951,1.64482
332.91844,1.59539
332.67737,1.58308
332.43630,1.58538
332.19523,1.58204
331.95416,1.58319
331.71309,1.59844
331.47202,1.61113
331.23094,1.60796
330.98987,1.60965
330.74880,1.63294
330.50773,1.64890
330.26666,1.61980
330.02559,1.56761
329.78452,1.53729
329.54345,1.52691
329.30238,1.50725
329.06131,1.47482
328.82024,1.45565
328.57917,1.46489
328.33810,1.49604
328.09703,1.52514
327.85596,1.52616
327.61489,1.49683
327.37382,1.45822
327.13275,1.43446
326.89167,1.43675
326.65060,1.45945
326.40953,1.48572
326.16846,1.49952
325.92739,1.50273
325.68632,1.51651
325.44525,1.56546
325.20418,1.65538
324.96311,1.75263
324.72204,1.80931
324.48097,1.78789
324.23990,1.70748
323.99883,1.64017
323.75776,1.58238
323.51669,1.54194
323.27562,1.56357
323.03455,1.62779
322.79348,1.66894
322.55240,1.71044
322.31133,1.78670
322.07026,1.85109
321.82919,1.85909
321.58812,1.81658
321.34705,1.76166
321.10598,1.72167
320.86491,1.72166
320.62384,1.78949
320.38277,1.90377
320.14170,1.98716
319.90063,1.98415
319.65956,1.91166
319.41849,1.87501
319.17742,1.90147
318.93635,1.92063
318.69528,1.93345
318.45421,1.97071
318.21313,2.01511
317.97206,2.03330
317.73099,1.95860
317.48992,1.82745
317.24885,1.76706
317.00778,1.81645
316.76671,1.89551
316.52564,1.89214
316.28457,1.88208
316.04350,1.94668
315.80243,2.00762
315.56136,1.99199
315.32029,1.98142
315.07922,2.01784
314.83815,2.04299
314.59708,1.98321
314.35601,1.89415
314.11494,1.83377
313.87386,1.82656
313.63279,1.90811
313.39172,2.05022
313.15065,2.10261
312.90958,2.08089
312.66851,2.06283
312.42744,1.98340
312.18637,1.98838
311.94530,2.12237
311.70423,2.20949
311.46316,2.19834
311.22209,2.19844
310.98102,2.10688
310.73995,1.96475
310.49888,1.93177
310.25781,2.02853
310.01674,2.03647
309.77567,1.91395
309.53459,1.85598
309.29352,1.88930
309.05245,1.94731
308.81138,1.94610
308.57031,1.88024
308.32924,1.83106
308.08817,1.83004
307.84710,1.88000
307.60603,1.94304
307.36496,1.96097
307.12389,1.94866
306.88282,1.92834
306.64175,1.88340
306.40068,1.80724
306.15961,1.73487
305.91854,1.69419
305.67747,1.67836
305.43640,1.66706
305.19532,1.64505
304.95425,1.60646
304.71318,1.55486
304.47211,1.50278
304.23104,1.46257
303.98997,1.43797
303.74890,1.42606
303.50783,1.41635
303.26676,1.39555
303.02569,1.37215
302.78462,1.36247
302.54355,1.36570
302.30248,1.36764
302.06141,1.35521
301.82034,1.33371
301.57927,1.32045
301.33820,1.31659
301.09713,1.30570
300.85605,1.28107
300.61498,1.25452
300.37391,1.23797
300.13284,1.23012
299.89177,1.22304
299.65070,1.21466
299.40963,1.20833
299.16856,1.20464
298.92749,1.19941
298.68642,1.18999
298.44535,1.17868
298.20428,1.16596
297.96321,1.14830
297.72214,1.12721
297.48107,1.11119
297.24000,1.10631
296.99893,1.11040
296.75786,1.11769
296.51678,1.12394
296.27571,1.12568
296.03464,1.11941
295.79357,1.10532
295.55250,1.09027
295.31143,1.08118
295.07036,1.07838
294.82929,1.07962
294.58822,1.08458
294.34715,1.09194
294.10608,1.09685
293.86501,1.09344
293.62394,1.08027
293.38287,1.06318
293.14180,1.04922
292.90073,1.03869
292.65966,1.02808
292.41859,1.01900
292.17751,1.01797
291.93644,1.02672
291.69537,1.03774
291.45430,1.04081
291.21323,1.03413
290.97216,1.02552
290.73109,1.02118
290.49002,1.01926
290.24895,1.01524
290.00788,1.00979
289.76681,1.00697
289.52574,1.00743
289.28467,1.00848
289.04360,1.00941
288.80253,1.01209
288.56146,1.01539
288.32039,1.01494
288.07932,1.00936
287.83824,1.00171
287.59717,0.99431
287.35610,0.98621
287.11503,0.97745
286.87396,0.97105
286.63289,0.96930
286.39182,0.97135
286.15075,0.97579
285.90968,0.98220
285.66861,0.98908
285.42754,0.99271
285.18647,0.99022
284.94540,0.98269
284.70433,0.97379
284.46326,0.96688
284.22219,0.96277
283.98112,0.96027
283.74005,0.95916
283.49897,0.95972
283.25790,0.95860
283.01683,0.95147
282.77576,0.94204
282.53469,0.93987
282.29362,0.94765
282.05255,0.95794
281.81148,0.96366
281.57041,0.96597
281.32934,0.96866
281.08827,0.97042
280.84720,0.96717
280.60613,0.95923
280.36506,0.95156
280.12399,0.94671
279.88292,0.94273
279.64185,0.93870
279.40078,0.93761
279.15970,0.94252
278.91863,0.95287
278.67756,0.96474
278.43649,0.97294
278.19542,0.97314
277.95435,0.96468
277.71328,0.95183
277.47221,0.94165
277.23114,0.93907
276.99007,0.94308
276.74900,0.94870
276.50793,0.95222
276.26686,0.95332
276.02579,0.95378
275.78472,0.95585
275.54365,0.96065
275.30258,0.96705
275.06151,0.97264
274.82043,0.97587
274.57936,0.97700
274.33829,0.97746
274.09722,0.97749
273.85615,0.97519
273.61508,0.96979
273.37401,0.96389
273.13294,0.96051
272.89187,0.96074
272.65080,0.96390
272.40973,0.96645
272.16866,0.96355
271.92759,0.95574
271.68652,0.95033
271.44545,0.95345
271.20438,0.96376
270.96331,0.97530
270.72224,0.98367
270.48116,0.98813
270.24009,0.98984
269.99902,0.99067
269.75795,0.99253
269.51688,0.99542
269.27581,0.99677
269.03474,0.99502
268.79367,0.99276
268.55260,0.99354
268.31153,0.99732
268.07046,1.00103
267.82939,1.00166
267.58832,0.99899
267.34725,0.99706
267.10618,1.00188
266.86511,1.01562
266.62404,1.03302
266.38297,1.04500
266.14189,1.04722
265.90082,1.04365
265.65975,1.04163
265.41868,1.04560
265.17761,1.05443
264.93654,1.06310
264.69547,1.06824
264.45440,1.07154
264.21333,1.07712
263.97226,1.08803
263.73119,1.10418
263.49012,1.12210
263.24905,1.13832
263.00798,1.15233
262.76691,1.16409
262.52584,1.17034
262.28477,1.16927
262.04370,1.16425
261.80262,1.16050
261.56155,1.16349
261.32048,1.17730
261.07941,1.19907
260.83834,1.22117
260.59727,1.24159
260.35620,1.26155
260.11513,1.27624
259.87406,1.28078
259.63299,1.28222
259.39192,1.29469
259.15085,1.32527
258.90978,1.36831
258.66871,1.40627
258.42764,1.42313
258.18657,1.42714
257.94550,1.44225
257.70443,1.48091
257.46335,1.53244
257.22228,1.57503
256.98121,1.60435
256.74014,1.63662
256.49907,1.67688
256.25800,1.71721
256.01693,1.75864
255.77586,1.79068
255.53479,1.82217
255.29372,1.88532
255.05265,1.95544
254.81158,1.97917
254.57051,1.98297
254.32944,2.02441
254.08837,2.10220
253.84730,2.16270
253.60623,2.19556
253.36516,2.23306
253.12408,2.24631
252.88301,2.23318
252.64194,2.25664
252.40087,2.31606
252.15980,2.38700
251.91873,2.42798
251.67766,2.40189
251.43659,2.43287
251.19552,2.53554
250.95445,2.56550
250.71338,2.45823
250.47231,2.38008
250.23124,2.32052
249.99017,2.21236
249.74910,2.12492
249.50803,2.10419
249.26696,2.19032
249.02589,2.29304
248.78481,2.25015
248.54374,2.24149
248.30267,2.33681
248.06160,2.22772
247.82053,2.18464
247.57946,2.23686
247.33839,2.26538
247.09732,2.14846
246.85625,1.98005
246.61518,1.89269
246.37411,1.87438
246.13304,1.89959
245.89197,1.96595
245.65090,2.05171
245.40983,2.08512
245.16876,2.03804
244.92769,1.96652
244.68661,1.88242
244.44554,1.81045
244.20447,1.76473
243.96340,1.72222
243.72233,1.67029
243.48126,1.60840
243.24019,1.53427
242.99912,1.45861
242.75805,1.40000
242.51698,1.36185
242.27591,1.33023
242.03484,1.29081
241.79377,1.24362
241.55270,1.19906
241.31163,1.16436
241.07056,1.13650
240.82949,1.10648
240.58842,1.06967
240.34734,1.02937
240.10627,0.99136
239.86520,0.95983
239.62413,0.93480
239.38306,0.91278
239.14199,0.89099
238.90092,0.86990
238.65985,0.85180
238.41878,0.83800
238.17771,0.82760
237.93664,0.81743
237.69557,0.80429
237.45450,0.78861
237.21343,0.77411
236.97236,0.76308
236.73129,0.75473
236.49022,0.74746
236.24915,0.74125
236.00807,0.73726
235.76700,0.73538
235.52593,0.73279
235.28486,0.72626
235.04379,0.71612
234.80272,0.70623
234.56165,0.69920
234.32058,0.69402
234.07951,0.68932
233.83844,0.68561
233.59737,0.68319
233.35630,0.68040
233.11523,0.67518
232.87416,0.66797
232.63309,0.66180
232.39202,0.65909
232.15095,0.65909
231.90988,0.65929
231.66880,0.65882
231.42773,0.65917
231.18666,0.66089
230.94559,0.66168
230.70452,0.65944
230.46345,0.65580
230.22238,0.65401
229.98131,0.65456
229.74024,0.65521
229.49917,0.65433
229.25810,0.65209
229.01703,0.64926
228.77596,0.64640
228.53489,0.64320
228.29382,0.63888
228.05275,0.63450
227.81168,0.63370
227.57061,0.63849
227.32953,0.64558
227.08846,0.64951
226.84739,0.64869
226.60632,0.64644
226.36525,0.64645
226.12418,0.64882
225.88311,0.65018
225.64204,0.64763
225.40097,0.64274
225.15990,0.64066
224.91883,0.64472
224.67776,0.65298
224.43669,0.66055
224.19562,0.66405
223.95455,0.66403
223.71348,0.66410
223.47241,0.66784
223.23134,0.67549
222.99026,0.68373
222.74919,0.68929
222.50812,0.69247
222.26705,0.69564
222.02598,0.69901
221.78491,0.70120
221.54384,0.70374
221.30277,0.71049
221.06170,0.72136
220.82063,0.73109
220.57956,0.73639
220.33849,0.73985
220.09742,0.74523
219.85635,0.75296
219.61528,0.76125
219.37421,0.76869
219.13314,0.77550
218.89207,0.78336
218.65099,0.79368
218.40992,0.80632
218.16885,0.82049
217.92778,0.83510
217.68671,0.84736
217.44564,0.85513
217.20457,0.86086
216.96350,0.86913
216.72243,0.88139
216.48136,0.89617
216.24029,0.91190
215.99922,0.92724
215.75815,0.94132
215.51708,0.95520
215.27601,0.97009
215.03494,0.98410
214.79387,0.99465
214.55280,1.00231
214.31172,1.00916
214.07065,1.01641
213.82958,1.02543
213.58851,1.03671
213.34744,1.04662
213.10637,1.05043
212.86530,1.05054
212.62423,1.05574
212.38316,1.06961
212.14209,1.08448
211.90102,1.08951
211.65995,1.08233
211.41888,1.07051
211.17781,1.06313
210.93674,1.06413
210.69567,1.07289
210.45460,1.08594
210.21353,1.09601
209.97245,1.09468
209.73138,1.08243
209.49031,1.07105
209.24924,1.06992
209.00817,1.07527
208.76710,1.07653
208.52603,1.07044
208.28496,1.06331
208.04389,1.06079
207.80282,1.06208
207.56175,1.06278
207.32068,1.05872
207.07961,1.04896
206.83854,1.03699
206.59747,1.02676
206.35640,1.01712
206.11533,1.00367
205.87426,0.98723
205.63318,0.97493
205.39211,0.97069
205.15104,0.96945
204.90997,0.96268
204.66890,0.94850
204.42783,0.93297
204.18676,0.92152
203.94569,0.91330
203.70462,0.90429
203.46355,0.89202
203.22248,0.87625
202.98141,0.85914
202.74034,0.84574
202.49927,0.83892
202.25820,0.83317
202.01713,0.82034
201.77606,0.80084
201.53499,0.78287
201.29391,0.77200
201.05284,0.76615
200.81177,0.76010
200.57070,0.75074
200.32963,0.73766
200.08856,0.72209
199.84749,0.70669
199.60642,0.69413
199.36535,0.68523
199.12428,0.67888
198.88321,0.67328
198.64214,0.66677
198.40107,0.65814
198.16000,0.64742
197.91893,0.63594
197.67786,0.62497
197.43679,0.61479
197.19572,0.60540
196.95464,0.59717
196.71357,0.59042
196.47250,0.58529
196.23143,0.58161
195.99036,0.57839
195.74929,0.57397
195.50822,0.56808
195.26715,0.56235
195.02608,0.55798
194.78501,0.55395
194.54394,0.54863
194.30287,0.54180
194.06180,0.53430
193.82073,0.52706
193.57966,0.52092
193.33859,0.51622
193.09752,0.51236
192.85645,0.50854
192.61537,0.50484
192.37430,0.50160
192.13323,0.49791
191.89216,0.49256
191.65109,0.48646
191.41002,0.48230
191.16895,0.48107
190.92788,0.48087
190.68681,0.47990
190.44574,0.47843
190.20467,0.47688
189.96360,0.47451
189.72253,0.47084
189.48146,0.46714
189.24039,0.46545
188.99932,0.46663
188.75825,0.46947
188.51718,0.47160
188.27610,0.47100
188.03503,0.46756
187.79396,0.46331
187.55289,0.46060
187.31182,0.45974
187.07075,0.45924
186.82968,0.45852
186.58861,0.45874
186.34754,0.46015
186.10647,0.46093
185.86540,0.45945
185.62433,0.45623
185.38326,0.45288
185.14219,0.45079
184.90112,0.45083
184.66005,0.45293
184.41898,0.45595
184.17791,0.45891
183.93683,0.46205
183.69576,0.46585
183.45469,0.46942
183.21362,0.47107
182.97255,0.47034
182.73148,0.46858
182.49041,0.46736
182.24934,0.46716
182.00827,0.46821
181.76720,0.47131
181.52613,0.47623
181.28506,0.48040
181.04399,0.48177
180.80292,0.48167
180.56185,0.48296
180.32078,0.48626
180.07971,0.49027
179.83864,0.49422
179.59756,0.49843
179.35649,0.50333
179.11542,0.50907
178.87435,0.51531
178.63328,0.52124
178.39221,0.52672
178.15114,0.53262
177.91007,0.53964
177.66900,0.54790
177.42793,0.55797
177.18686,0.57079
176.94579,0.58613
176.70472,0.60212
176.46365,0.61672
176.22258,0.62993
175.98151,0.64435
175.74044,0.66245
175.49937,0.68363
175.25829,0.70511
175.01722,0.72430
174.77615,0.73988
174.53508,0.75270
174.29401,0.76621
174.05294,0.78298
173.81187,0.80096
173.57080,0.81579
173.32973,0.82671
173.08866,0.83736
172.84759,0.85010
172.60652,0.86177
172.36545,0.86757
172.12438,0.86752
171.88331,0.86548
171.64224,0.86348
171.40117,0.86184
171.16010,0.86154
170.91902,0.86283
170.67795,0.86330
170.43688,0.85948
170.19581,0.85132
169.95474,0.84364
169.71367,0.84069
169.47260,0.84015
169.23153,0.83545
168.99046,0.82472
168.74939,0.81310
168.50832,0.80519
168.26725,0.80093
168.02618,0.79868
167.78511,0.79806
167.54404,0.79926
167.30297,0.80124
167.06190,0.80243
166.82083,0.80353
166.57975,0.80792
166.33868,0.81705
166.09761,0.82815
165.85654,0.83856
165.61547,0.84779
165.37440,0.85474
165.13333,0.85783
164.89226,0.85787
164.65119,0.85806
164.41012,0.86091
164.16905,0.86760
163.92798,0.88062
163.68691,0.90108
163.44584,0.92259
163.20477,0.93492
162.96370,0.93591
162.72263,0.93362
162.48156,0.93648
162.24048,0.94643
161.99941,0.95928
161.75834,0.96859
161.51727,0.97088
161.27620,0.96891
161.03513,0.96899
160.79406,0.97467
160.55299,0.98332
160.31192,0.98809
160.07085,0.98446
159.82978,0.97371
159.58871,0.96021
159.34764,0.94743
159.10657,0.93613
158.86550,0.92545
158.62443,0.91547
158.38336,0.90679
158.14229,0.89899
157.90121,0.89262
157.66014,0.89100
157.41907,0.89627
157.17800,0.90544
156.93693,0.91243
156.69586,0.91215
156.45479,0.90301
156.21372,0.88820
155.97265,0.87452
155.73158,0.86796
155.49051,0.86897
155.24944,0.87158
155.00837,0.86802
154.76730,0.85503
154.52623,0.83530
154.28516,0.81423
154.04409,0.79688
153.80302,0.78520
153.56194,0.77595
153.32087,0.76297
153.07980,0.74395
152.83873,0.72301
152.59766,0.70531
152.35659,0.69150
152.11552,0.67833
151.87445,0.66320
151.63338,0.64665
151.39231,0.63078
151.15124,0.61723
150.91017,0.60611
150.66910,0.59604
150.42803,0.58583
150.18696,0.57539
149.94589,0.56433
149.70482,0.55153
149.46375,0.53727
149.22267,0.52401
148.98160,0.51396
148.74053,0.50677
148.49946,0.49999
148.25839,0.49202
148.01732,0.48434
147.77625,0.47947
147.53518,0.47737
147.29411,0.47614
147.05304,0.47567
146.81197,0.47756
146.57090,0.48143
146.32983,0.48479
146.08876,0.48679
145.84769,0.48938
145.60662,0.49398
145.36555,0.49967
145.12448,0.50525
144.88340,0.51072
144.64233,0.51611
144.40126,0.52068
144.16019,0.52379
143.91912,0.52559
143.67805,0.52645
143.43698,0.52599
143.19591,0.52285
142.95484,0.51618
142.71377,0.50707
142.47270,0.49732
142.23163,0.48761
141.99056,0.47809
141.74949,0.46937
141.50842,0.46163
141.26735,0.45408
141.02628,0.44620
140.78521,0.43876
140.54413,0.43333
140.30306,0.43108
140.06199,0.43199
139.82092,0.43497
139.57985,0.43879
139.33878,0.44328
139.09771,0.44961
138.85664,0.45855
138.61557,0.46873
138.37450,0.47793
138.13343,0.48569
137.89236,0.49354
137.65129,0.50348
137.41022,0.51664
137.16915,0.53309
136.92808,0.55288
136.68701,0.57660
136.44594,0.60300
136.20486,0.62755
135.96379,0.64641
135.72272,0.66127
135.48165,0.67750
135.24058,0.69906
134.99951,0.72658
134.75844,0.75831
134.51737,0.79034
134.27630,0.81755
134.03523,0.83746
133.79416,0.85334
133.55309,0.87193
133.31202,0.89658
133.07095,0.92259
132.82988,0.94149
132.58881,0.95089
132.34774,0.95565
132.10667,0.95803
131.86559,0.95398
131.62452,0.94198
131.38345,0.92730
131.14238,0.91400
130.90131,0.90072
130.66024,0.88514
130.41917,0.86730
130.17810,0.84842
129.93703,0.82798
129.69596,0.80235
129.45489,0.76759
129.21382,0.72554
128.97275,0.68470
128.73168,0.65257
128.49061,0.62893
128.24954,0.60784
128.00847,0.58460
127.76740,0.55942
127.52632,0.53496
127.28525,0.51289
127.04418,0.49381
126.80311,0.47832
126.56204,0.46614
126.32097,0.45532
126.07990,0.44337
125.83883,0.42902
125.59776,0.41278
125.35669,0.39646
125.11562,0.38268
124.87455,0.37395
124.63348,0.37042
124.39241,0.36878
124.15134,0.36505
123.91027,0.35842
123.66920,0.35103
123.42812,0.34482
123.18705,0.34024
122.94598,0.33705
122.70491,0.33526
122.46384,0.33541
122.22277,0.33796
121.98170,0.34250
121.74063,0.34807
121.49956,0.35379
121.25849,0.35877
121.01742,0.36256
120.77635,0.36631
120.53528,0.37207
120.29421,0.38059
120.05314,0.39068
119.81207,0.40114
119.57100,0.41243
119.32993,0.42675
119.08885,0.44670
118.84778,0.47331
118.60671,0.50441
118.36564,0.53491
118.12457,0.56023
117.88350,0.58060
117.64243,0.60031
117.40136,0.62042
117.16029,0.63519
116.91922,0.63895
116.67815,0.63420
116.43708,0.62941
116.19601,0.62908
115.95494,0.62941
115.71387,0.62383
115.47280,0.61097
115.23173,0.59558
114.99066,0.58219
114.74958,0.57083
114.50851,0.55930
114.26744,0.54792
114.02637,0.53963
113.78530,0.53587
113.54423,0.53481
113.30316,0.53398
113.06209,0.53330
112.82102,0.53483
112.57995,0.54060
112.33888,0.55076
112.09781,0.56225
111.85674,0.57030
111.61567,0.57389
111.37460,0.57737
111.13353,0.58355
110.89246,0.58887
110.65139,0.58895
110.41031,0.58493
110.16924,0.57958
109.92817,0.57228
109.68710,0.56163
109.44603,0.54846
109.20496,0.53326
108.96389,0.51471
108.72282,0.49307
108.48175,0.47189
108.24068,0.45500
107.99961,0.44274
107.75854,0.43152
107.51747,0.41733
107.27640,0.39997
107.03533,0.38328
106.79426,0.37040
106.55319,0.36003
106.31212,0.34885
106.07104,0.33631
105.82997,0.32472
105.58890,0.31530
105.34783,0.30669
105.10676,0.29747
104.86569,0.28830
104.62462,0.28090
104.38355,0.27567
104.14248,0.27061
103.90141,0.26381
103.66034,0.25656
103.41927,0.25200
103.17820,0.25023
102.93713,0.24784
102.69606,0.24271
102.45499,0.23620
102.21392,0.23020
101.97285,0.22491
101.73177,0.22008
101.49070,0.21625
101.24963,0.21403
101.00856,0.21281
100.76749,0.21094
100.52642,0.20754
100.28535,0.20357
100.04428,0.20029
99.80321,0.19751
99.56214,0.19430
99.32107,0.19049
99.08000,0.18703
98.83893,0.18523
98.59786,0.18602
98.35679,0.18912
98.11572,0.19274
97.87465,0.19486
97.63358,0.19564
97.39250,0.19753
97.15143,0.20165
96.91036,0.20551
96.66929,0.20678
96.42822,0.20789
96.18715,0.21319
95.94608,0.22294
95.70501,0.23314
95.46394,0.24070
95.22287,0.24576
94.98180,0.24966
94.74073,0.25325
94.49966,0.25687
94.25859,0.26030
94.01752,0.26289
93.77645,0.26432
93.53538,0.26487
93.29431,0.26465
93.05323,0.26381
92.81216,0.26327
92.57109,0.26364
92.33002,0.26407
92.08895,0.26400
91.84788,0.26510
91.60681,0.27015
91.36574,0.28058
91.12467,0.29584
90.88360,0.31464
90.64253,0.33691
90.40146,0.36406
90.16039,0.39697
89.91932,0.43387
89.67825,0.47123
89.43718,0.50667
89.19611,0.53908
88.95504,0.56519
88.71396,0.58023
88.47289,0.58223
88.23182,0.57172
87.99075,0.54832
87.74968,0.51326
87.50861,0.47257
87.26754,0.43204
87.02647,0.39333
86.78540,0.35729
86.54433,0.32638
86.30326,0.30206
86.06219,0.28296
85.82112,0.26671
85.58005,0.25192
85.33898,0.23760
85.09791,0.22286
84.85684,0.20816
84.61577,0.19510
84.37469,0.18424
84.13362,0.17474
83.89255,0.16647
83.65148,0.16027
83.41041,0.15603
83.16934,0.15243
82.92827,0.14823
82.68720,0.14308
82.44613,0.13773
82.20506,0.13379
81.96399,0.13196
81.72292,0.13094
81.48185,0.12920
81.24078,0.12659
80.99971,0.12337
80.75864,0.11943
80.51757,0.11537
80.27650,0.11277
80.03542,0.11221
79.79435,0.11245
79.55328,0.11239
79.31221,0.11249
79.07114,0.11338
78.83007,0.11403
78.58900,0.11302
78.34793,0.11051
78.10686,0.10755
77.86579,0.10480
77.62472,0.10304
77.38365,0.10307
77.14258,0.10416
76.90151,0.10432
76.66044,0.10281
76.41937,0.10068
76.17830,0.09892
75.93723,0.09772
75.69615,0.09729
75.45508,0.09779
75.21401,0.09877
74.97294,0.09944
74.73187,0.09891
74.49080,0.09645
74.24973,0.09267
74.00866,0.08985
73.76759,0.09006
73.52652,0.09304
73.28545,0.09625
73.04438,0.09705
72.80331,0.09533
72.56224,0.09367
72.32117,0.09451
72.08010,0.09740
71.83903,0.09994
71.59796,0.10078
71.35688,0.10108
71.11581,0.10310
70.87474,0.10758
70.63367,0.11343
70.39260,0.12023
70.15153,0.12964
69.91046,0.14297
69.66939,0.15785
69.42832,0.16924
69.18725,0.17406
68.94618,0.17342
68.70511,0.16942
68.46404,0.16170
68.22297,0.14932
67.98190,0.13432
67.74083,0.12106
67.49976,0.11239
67.25869,0.10766
67.01761,0.10406
66.77654,0.09981
66.53547,0.09541
66.29440,0.09171
66.05333,0.08852
65.81226,0.08602
65.57119,0.08515
65.33012,0.08595
65.08905,0.08746
64.84798,0.08974
64.60691,0.09371
64.36584,0.09876
64.12477,0.10244
63.88370,0.10334
63.64263,0.10313
63.40156,0.10415
63.16049,0.10564
62.91942,0.10408
62.67834,0.09727
62.43727,0.08710
62.19620,0.07855
61.95513,0.07549
61.71406,0.07698
61.47299,0.07837
61.23192,0.07630
60.99085,0.07128
60.74978,0.06566
60.50871,0.06147
60.26764,0.06011
60.02657,0.06161
59.78550,0.06418
59.54443,0.06596
59.30336,0.06683
59.06229,0.06783
58.82122,0.06931
58.58015,0.07001
58.33907,0.06783
58.09800,0.06275
57.85693,0.05828
57.61586,0.05784
57.37479,0.06051
57.13372,0.06308
56.89265,0.06446
56.65158,0.06470
56.41051,0.06209
56.16944,0.05546
55.92837,0.04795
55.68730,0.04475
55.44623,0.04745
55.20516,0.05220
54.96409,0.05432
54.72302,0.05358
54.48195,0.05337
54.24088,0.05536
53.99980,0.05771
53.75873,0.05843
53.51766,0.05795
53.27659,0.05799
53.03552,0.05914
52.79445,0.06077
52.55338,0.06251
52.31231,0.06504
52.07124,0.06833
51.83017,0.06982
51.58910,0.06608
51.34803,0.05716
51.10696,0.04784
50.86589,0.04318
50.62482,0.04312
50.38375,0.04320
50.14268,0.04015
49.90161,0.03506
49.66053,0.03051
49.41946,0.02630
49.17839,0.02064
48.93732,0.01431
48.69625,0.01081
48.45518,0.01212
48.21411,0.01697
47.97304,0.02288
47.73197,0.02826
47.49090,0.03228
47.24983,0.03302
47.00876,0.02779
46.76769,0.01638
46.52662,0.00272
46.28555,-0.00705
46.04448,-0.00909
45.80341,-0.00476
45.56234,0.00065
45.32126,0.00150
45.08019,-0.00460
44.83912,-0.01479
44.59805,-0.02321
44.35698,-0.02730
44.11591,-0.02944
43.87484,-0.03163
43.63377,-0.03236
43.39270,-0.03022
43.15163,-0.02773
42.91056,-0.02820
42.66949,-0.03179
42.42842,-0.03886
42.18735,-0.05136
41.94628,-0.06618
41.70521,-0.07188
41.46414,-0.06074
41.22307,-0.04255
40.98199,-0.03500
40.74092,-0.04316
40.49985,-0.05358
40.25878,-0.05226
40.01771,-0.04221
39.77664,-0.03474
39.53557,-0.03397
39.29450,-0.03715
39.05343,-0.03987
38.81236,-0.03771
38.57129,-0.03090
38.33022,-0.02755
38.08915,-0.03432
37.84808,-0.04614
37.60701,-0.05245
37.36594,-0.04943
37.12487,-0.04673
36.88380,-0.06080
36.64272,-0.09511
36.40165,-0.12919
36.16058,-0.13530
35.91951,-0.10717
35.67844,-0.06448
35.43737,-0.02984
35.19630,-0.01512
34.95523,-0.02032
34.71416,-0.03485
34.47309,-0.05404
34.23202,-0.07732
33.99095,-0.09085
33.74988,-0.07931
33.50881,-0.04781
33.26774,-0.01673
33.02667,0.00022
32.78560,0.00126
32.54453,-0.01233
32.30345,-0.03220
32.06238,-0.04241
31.82131,-0.03991
31.58024,-0.03697
31.33917,-0.04133
31.09810,-0.05202
30.85703,-0.06089
30.61596,-0.05489
30.37489,-0.03368
30.13382,-0.02013
29.89275,-0.02613
29.65168,-0.03735
29.41061,-0.04828
29.16954,-0.06482
28.92847,-0.08070
28.68740,-0.07914
28.44633,-0.05614
28.20526,-0.01850
27.96418,0.03160
27.72311,0.08454
27.48204,0.11051
27.24097,0.09077
26.99990,0.05272
26.75883,0.03745
26.51776,0.04187
26.27669,0.03441
26.03562,-0.00152
25.79455,-0.05589
25.55348,-0.08939
25.31241,-0.06971
25.07134,-0.03118
24.83027,-0.01493
24.58920,-0.00843
24.34813,0.01802
24.10706,0.06353
23.86599,0.11963
23.62491,0.17939
23.38384,0.22550
23.14277,0.23806
22.90170,0.19972
22.66063,0.16466
22.41956,0.19824
22.17849,0.22692
21.93742,0.24008
21.69635,0.27070
21.45528,0.32685
21.21421,0.36757
20.97314,0.37151
20.73207,0.35556
20.49100,0.35062
20.24993,0.36188
20.00886,0.41829
19.76779,0.52461
19.52672,0.65186
19.28564,0.85762
19.04457,1.08365
18.80350,0.74492
18.56243,0.52305
18.32136,0.53512
18.08029,0.62291
17.83922,0.53105
17.59815,0.44212
17.35708,0.40050
17.11601,0.39569
16.87494,0.40613
16.63387,0.43645
16.39280,0.55675
16.15173,0.76681
15.91066,0.80665
15.66959,0.76052
15.42852,0.83643
15.18745,0.90839
14.94637,0.83415
14.70530,0.67508
14.46423,0.64008
14.22316,0.75558
13.98209,0.75463
13.74102,0.73369
13.49995,0.74944
13.25888,0.82317
13.01781,0.88970
12.77674,0.84315
12.53567,0.81221
12.29460,0.77290
12.05353,0.59976
11.81246,0.55545
11.57139,0.65031
11.33032,0.73248
11.08925,0.70483
10.84818,0.64425
10.60710,0.70356
10.36603,0.68192
10.12496,0.68054
9.88389,0.69251
9.64282,0.69486
9.40175,0.64619
9.16068,0.79800
8.91961,0.90430
8.67854,0.87168
8.43747,0.96374
8.19640,1.11493
7.95533,1.06357
7.71426,1.08284
7.47319,1.05158
7.23212,0.98400
6.99105,0.97270
6.74998,1.02498
6.50891,0.95240
6.26783,0.85913
6.02676,0.64999
5.78569,0.58966
5.54462,0.62172
5.30355,0.56174
5.06248,0.48945
4.82141,0.58227
4.58034,0.83257
4.33927,0.69985
4.09820,0.56939
3.85713,0.55738
3.61606,0.58552
3.37499,0.56967
3.13392,0.53230
2.89285,0.57320
2.65178,0.70144
2.41071,0.79397
2.16964,0.76235
1.92856,0.63658
1.68749,0.58214
1.44642,0.65728
1.20535,0.94097
0.96428,1.32296
0.72321,0.99603
0.48214,0.78324
0.24107,0.75689
-0.00000,0.46583
