399.69498,1.49820
399.45391,1.48910
399.21284,1.48431
398.97177,1.48369
398.73070,1.48844
398.48963,1.50131
398.24856,1.51804
398.00749,1.52663
397.76642,1.52078
397.52535,1.50832
397.28428,1.50249
397.04321,1.50958
396.80214,1.52494
396.56107,1.53788
396.32000,1.53930
396.07892,1.53017
395.83785,1.52420
395.59678,1.53300
395.35571,1.54791
395.11464,1.54858
394.87357,1.53212
394.63250,1.51771
394.39143,1.52190
394.15036,1.54210
393.90929,1.55985
393.66822,1.56194
393.42715,1.55384
393.18608,1.54818
392.94501,1.54725
392.70394,1.53924
392.46287,1.51760
392.22180,1.49461
391.98073,1.48722
391.73965,1.50065
391.49858,1.52592
391.25751,1.54554
391.01644,1.54657
390.77537,1.53272
390.53430,1.52136
390.29323,1.52691
390.05216,1.54781
389.81109,1.56865
389.57002,1.57138
389.32895,1.55013
389.08788,1.51895
388.84681,1.49598
388.60574,1.48483
388.36467,1.47819
388.12360,1.47142
387.88253,1.46539
387.64146,1.46311
387.40038,1.46873
387.15931,1.48257
386.91824,1.49426
386.67717,1.48823
386.43610,1.46250
386.19503,1.43052
385.95396,1.40338
385.71289,1.38445
385.47182,1.37730
385.23075,1.38518
384.98968,1.40208
384.74861,1.41205
384.50754,1.40290
384.26647,1.37959
384.02540,1.36096
383.78433,1.35995
383.54326,1.36677
383.30219,1.35929
383.06111,1.33570
382.82004,1.31670
382.57897,1.31321
382.33790,1.31748
382.09683,1.32134
381.85576,1.32466
381.61469,1.32575
381.37362,1.31850
381.13255,1.30351
380.89148,1.29009
380.65041,1.28190
380.40934,1.27463
380.16827,1.27134
379.92720,1.28246
379.68613,1.30582
379.44506,1.32305
379.20399,1.32153
378.96292,1.30845
378.72184,1.29905
378.48077,1.30060
378.23970,1.31093
377.99863,1.32242
377.75756,1.32829
377.51649,1.33053
377.27542,1.33602
377.03435,1.34554
376.79328,1.35459
376.55221,1.35963
376.31114,1.36349
376.07007,1.37326
375.82900,1.38807
375.58793,1.39918
375.34686,1.40500
375.10579,1.41224
374.86472,1.42155
374.62365,1.42602
374.38257,1.42191
374.14150,1.41114
373.90043,1.39655
373.65936,1.38091
373.41829,1.36889
373.17722,1.36451
372.93615,1.36756
372.69508,1.37582
372.45401,1.38678
372.21294,1.39413
371.97187,1.39040
371.73080,1.37598
371.48973,1.35932
371.24866,1.34691
371.00759,1.33767
370.76652,1.32822
370.52545,1.31841
370.28437,1.31103
370.04330,1.30775
369.80223,1.30701
369.56116,1.30539
369.32009,1.30115
369.07902,1.29717
368.83795,1.29646
368.59688,1.29684
368.35581,1.29316
368.11474,1.28340
367.87367,1.27113
367.63260,1.26075
367.39153,1.25342
367.15046,1.24831
366.90939,1.24568
366.66832,1.24821
366.42725,1.25649
366.18618,1.26408
365.94510,1.26372
365.70403,1.25727
365.46296,1.25197
365.22189,1.24937
364.98082,1.24487
364.73975,1.23623
364.49868,1.22713
364.25761,1.22214
364.01654,1.22156
363.77547,1.22111
363.53440,1.21658
363.29333,1.20896
363.05226,1.20310
362.81119,1.20056
362.57012,1.19807
362.32905,1.19323
362.08798,1.18773
361.84691,1.18507
361.60583,1.18658
361.36476,1.19038
361.12369,1.19351
360.88262,1.19530
360.64155,1.19779
360.40048,1.20220
360.15941,1.20698
359.91834,1.20934
359.67727,1.20714
359.43620,1.20153
359.19513,1.19731
358.95406,1.19727
358.71299,1.19883
358.47192,1.19940
358.23085,1.20054
357.98978,1.20245
357.74871,1.20046
357.50764,1.19284
357.26656,1.18623
357.02549,1.18753
356.78442,1.19543
356.54335,1.20401
356.30228,1.21007
356.06121,1.21290
355.82014,1.21068
355.57907,1.20244
355.33800,1.19233
355.09693,1.18746
354.85586,1.19067
354.61479,1.19687
354.37372,1.19811
354.13265,1.19322
353.89158,1.18801
353.65051,1.18620
353.40944,1.18641
353.16837,1.18810
352.92729,1.19382
352.68622,1.20242
352.44515,1.20656
352.20408,1.20264
351.96301,1.19667
351.72194,1.19520
351.48087,1.19713
351.23980,1.19832
350.99873,1.19807
350.75766,1.19754
350.51659,1.19703
350.27552,1.19692
350.03445,1.19840
349.79338,1.20224
349.55231,1.20790
349.31124,1.21296
349.07017,1.21404
348.82910,1.21072
348.58802,1.20713
348.34695,1.20827
348.10588,1.21573
347.86481,1.22600
347.62374,1.23333
347.38267,1.23586
347.14160,1.23791
346.90053,1.24495
346.65946,1.25759
346.41839,1.27037
346.17732,1.27641
345.93625,1.27556
345.69518,1.27448
345.45411,1.27677
345.21304,1.27910
344.97197,1.27739
344.73090,1.27267
344.48983,1.26900
344.24875,1.26756
344.00768,1.26642
343.76661,1.26632
343.52554,1.27198
343.28447,1.28504
343.04340,1.29927
342.80233,1.30642
342.56126,1.30497
342.32019,1.30003
342.07912,1.29698
341.83805,1.29913
341.59698,1.30789
341.35591,1.32041
341.11484,1.32922
340.87377,1.32838
340.63270,1.31985
340.39163,1.31201
340.15056,1.31341
339.90948,1.32811
339.66841,1.35271
339.42734,1.37562
339.18627,1.38724
338.94520,1.39278
338.70413,1.40304
338.46306,1.41855
338.22199,1.42924
337.98092,1.42581
337.73985,1.41037
337.49878,1.39399
337.25771,1.38655
337.01664,1.39068
336.77557,1.40311
336.53450,1.41867
336.29343,1.43191
336.05236,1.43907
335.81129,1.44118
335.57021,1.44122
335.32914,1.43748
335.08807,1.42548
334.84700,1.40833
334.60593,1.39331
334.36486,1.37962
334.12379,1.36372
333.88272,1.35210
333.64165,1.35479
333.40058,1.37025
333.15951,1.38364
332.91844,1.38194
332.67737,1.36826
332.43630,1.35605
332.19523,1.35376
331.95416,1.35854
331.71309,1.36266
331.47202,1.36241
331.23094,1.35685
330.98987,1.34739
330.74880,1.34130
330.50773,1.34329
330.26666,1.34900
330.02559,1.35077
329.78452,1.34593
329.54345,1.33818
329.30238,1.33055
329.06131,1.32141
328.82024,1.30990
328.57917,1.30079
328.33810,1.29974
328.09703,1.30492
327.85596,1.30897
327.61489,1.31045
327.37382,1.31538
327.13275,1.32498
326.89167,1.33084
326.65060,1.32650
326.40953,1.31765
326.16846,1.31288
325.92739,1.31270
325.68632,1.31298
325.44525,1.31311
325.20418,1.31745
324.96311,1.32747
324.72204,1.33557
324.48097,1.33155
324.23990,1.31764
323.99883,1.30914
323.75776,1.31564
323.51669,1.32982
323.27562,1.33565
323.03455,1.32900
322.79348,1.32551
322.55240,1.34016
322.31133,1.36577
322.07026,1.37978
321.82919,1.37230
321.58812,1.35255
321.34705,1.33325
321.10598,1.32348
320.86491,1.32742
320.62384,1.34250
320.38277,1.36029
320.14170,1.37173
319.90063,1.37420
319.65956,1.37242
319.41849,1.37117
319.17742,1.36589
318.93635,1.34627
318.69528,1.31415
318.45421,1.28647
318.21313,1.27766
317.97206,1.28781
317.73099,1.30671
317.48992,1.32380
317.24885,1.33421
317.00778,1.33837
316.76671,1.33844
316.52564,1.33578
316.28457,1.33040
316.04350,1.32551
315.80243,1.32755
315.56136,1.33617
315.32029,1.34441
315.07922,1.35054
314.83815,1.35732
314.59708,1.36358
314.35601,1.36742
314.11494,1.36970
313.87386,1.37066
313.63279,1.37139
313.39172,1.37501
313.15065,1.38232
312.90958,1.38743
312.66851,1.38460
312.42744,1.37721
312.18637,1.37119
311.94530,1.36808
311.70423,1.36832
311.46316,1.37341
311.22209,1.38225
310.98102,1.39007
310.73995,1.39380
310.49888,1.39460
310.25781,1.39321
310.01674,1.38783
309.77567,1.38048
309.53459,1.37914
309.29352,1.38853
309.05245,1.40329
308.81138,1.41217
308.57031,1.40739
308.32924,1.39366
308.08817,1.38458
307.84710,1.38689
307.60603,1.39591
307.36496,1.40454
307.12389,1.40939
306.88282,1.40902
306.64175,1.40615
306.40068,1.40957
306.15961,1.42516
305.91854,1.44654
305.67747,1.46014
305.43640,1.45875
305.19532,1.44665
304.95425,1.43290
304.71318,1.42209
304.47211,1.41243
304.23104,1.40215
303.98997,1.39369
303.74890,1.38748
303.50783,1.37813
303.26676,1.36255
303.02569,1.34596
302.78462,1.33328
302.54355,1.32252
302.30248,1.31308
302.06141,1.30881
301.82034,1.30979
301.57927,1.31329
301.33820,1.31939
301.09713,1.32574
300.85605,1.32443
300.61498,1.31283
300.37391,1.29908
300.13284,1.29059
299.89177,1.28722
299.65070,1.28690
299.40963,1.28774
299.16856,1.28461
298.92749,1.27257
298.68642,1.25432
298.44535,1.23918
298.20428,1.23426
297.96321,1.23770
297.72214,1.23981
297.48107,1.23261
297.24000,1.21891
296.99893,1.20833
296.75786,1.20628
296.51678,1.21031
296.27571,1.21359
296.03464,1.20871
295.79357,1.19312
295.55250,1.17384
295.31143,1.16129
295.07036,1.15865
294.82929,1.16144
294.58822,1.16518
294.34715,1.16843
294.10608,1.17057
293.86501,1.17049
293.62394,1.16715
293.38287,1.16101
293.14180,1.15547
292.90073,1.15434
292.65966,1.15676
292.41859,1.15775
292.17751,1.15508
291.93644,1.15220
291.69537,1.15227
291.45430,1.15213
291.21323,1.14593
290.97216,1.13414
290.73109,1.12380
290.49002,1.11942
290.24895,1.11895
290.00788,1.11825
289.76681,1.11568
289.52574,1.11214
289.28467,1.10918
289.04360,1.10725
288.80253,1.10599
288.56146,1.10599
288.32039,1.10832
288.07932,1.11131
287.83824,1.11037
287.59717,1.10389
287.35610,1.09606
287.11503,1.09166
286.87396,1.09080
286.63289,1.09059
286.39182,1.08978
286.15075,1.08988
285.90968,1.09211
285.66861,1.09472
285.42754,1.09462
285.18647,1.09151
284.94540,1.08877
284.70433,1.08937
284.46326,1.09214
284.22219,1.09305
283.98112,1.09006
283.74005,1.08557
283.49897,1.08288
283.25790,1.08202
283.01683,1.08139
282.77576,1.08158
282.53469,1.08423
282.29362,1.08802
282.05255,1.08985
281.81148,1.08988
281.57041,1.09086
281.32934,1.09251
281.08827,1.09140
280.84720,1.08690
280.60613,1.08219
280.36506,1.07942
280.12399,1.07794
279.88292,1.07694
279.64185,1.07695
279.40078,1.07838
279.15970,1.08009
278.91863,1.08049
278.67756,1.08016
278.43649,1.08189
278.19542,1.08746
277.95435,1.09485
277.71328,1.09964
277.47221,1.09875
277.23114,1.09382
276.99007,1.09050
276.74900,1.09248
276.50793,1.09712
276.26686,1.09967
276.02579,1.09973
275.78472,1.10001
275.54365,1.10080
275.30258,1.10048
275.06151,1.10024
274.82043,1.10295
274.57936,1.10787
274.33829,1.11111
274.09722,1.11046
273.85615,1.10760
273.61508,1.10514
273.37401,1.10339
273.13294,1.10214
272.89187,1.10316
272.65080,1.10828
272.40973,1.11606
272.16866,1.12285
271.92759,1.12692
271.68652,1.12952
271.44545,1.13264
271.20438,1.13829
270.96331,1.14713
270.72224,1.15529
270.48116,1.15634
270.24009,1.14972
269.99902,1.14301
269.75795,1.14269
269.51688,1.14833
269.27581,1.15754
269.03474,1.17014
268.79367,1.18430
268.55260,1.19429
268.31153,1.19654
268.07046,1.19487
267.82939,1.19629
267.58832,1.20387
267.34725,1.21588
267.10618,1.22891
266.86511,1.24005
266.62404,1.24722
266.38297,1.25020
266.14189,1.25180
265.90082,1.25532
265.65975,1.26088
265.41868,1.26643
265.17761,1.27159
264.93654,1.27877
264.69547,1.29130
264.45440,1.31071
264.21333,1.33446
263.97226,1.35614
263.73119,1.37091
263.49012,1.38066
263.24905,1.39120
263.00798,1.40547
262.76691,1.42179
262.52584,1.43709
262.28477,1.44871
262.04370,1.45451
261.80262,1.45714
261.56155,1.46557
261.32048,1.48754
261.07941,1.52121
260.83834,1.55571
260.59727,1.58333
260.35620,1.61087
260.11513,1.65259
259.87406,1.70836
259.63299,1.75081
259.39192,1.76289
259.15085,1.77221
258.90978,1.80273
258.66871,1.83943
258.42764,1.86085
258.18657,1.87388
257.94550,1.87765
257.70443,1.85363
257.46335,1.81117
257.22228,1.78276
256.98121,1.77779
256.74014,1.78075
256.49907,1.78228
256.25800,1.78479
256.01693,1.78413
255.77586,1.77276
255.53479,1.75247
255.29372,1.72750
255.05265,1.69984
254.81158,1.67495
254.57051,1.65858
254.32944,1.65126
254.08837,1.65016
253.84730,1.64995
253.60623,1.64603
253.36516,1.64154
253.12408,1.64044
252.88301,1.63803
252.64194,1.63034
252.40087,1.62365
252.15980,1.62226
251.91873,1.61529
251.67766,1.59357
251.43659,1.56892
251.19552,1.55841
250.95445,1.56462
250.71338,1.57595
250.47231,1.58162
250.23124,1.58132
249.99017,1.57834
249.74910,1.57467
249.50803,1.57309
249.26696,1.57610
249.02589,1.58259
248.78481,1.58864
248.54374,1.58878
248.30267,1.57870
248.06160,1.56038
247.82053,1.54181
247.57946,1.53133
247.33839,1.53378
247.09732,1.54908
246.85625,1.57319
246.61518,1.59963
246.37411,1.62144
246.13304,1.63414
245.89197,1.63753
245.65090,1.63694
245.40983,1.63861
245.16876,1.64392
244.92769,1.65285
244.68661,1.66671
244.44554,1.68256
244.20447,1.69763
243.96340,1.72034
243.72233,1.76306
243.48126,1.82829
243.24019,1.90142
242.99912,1.95966
242.75805,1.99898
242.51698,2.01834
242.27591,1.95786
242.03484,1.79381
241.79377,1.66345
241.55270,1.57840
241.31163,1.51468
241.07056,1.45476
240.82949,1.39152
240.58842,1.32833
240.34734,1.27070
240.10627,1.22099
239.86520,1.17860
239.62413,1.14144
239.38306,1.10758
239.14199,1.07656
238.90092,1.04905
238.65985,1.02536
238.41878,1.00432
238.17771,0.98371
237.93664,0.96223
237.69557,0.94130
237.45450,0.92379
237.21343,0.91064
236.97236,0.90015
236.73129,0.89069
236.49022,0.88219
236.24915,0.87435
236.00807,0.86594
235.76700,0.85659
235.52593,0.84749
235.28486,0.84007
235.04379,0.83493
234.80272,0.83152
234.56165,0.82804
234.32058,0.82257
234.07951,0.81510
233.83844,0.80824
233.59737,0.80490
233.35630,0.80506
233.11523,0.80537
232.87416,0.80305
232.63309,0.79909
232.39202,0.79610
232.15095,0.79423
231.90988,0.79169
231.66880,0.78842
231.42773,0.78652
231.18666,0.78666
230.94559,0.78653
230.70452,0.78410
230.46345,0.78098
230.22238,0.78061
229.98131,0.78308
229.74024,0.78458
229.49917,0.78278
229.25810,0.77952
229.01703,0.77733
228.77596,0.77640
228.53489,0.77599
228.29382,0.77591
228.05275,0.77590
227.81168,0.77535
227.57061,0.77475
227.32953,0.77510
227.08846,0.77578
226.84739,0.77517
226.60632,0.77361
226.36525,0.77331
226.12418,0.77494
225.88311,0.77709
225.64204,0.77930
225.40097,0.78285
225.15990,0.78767
224.91883,0.79110
224.67776,0.79146
224.43669,0.79086
224.19562,0.79226
223.95455,0.79540
223.71348,0.79844
223.47241,0.80160
223.23134,0.80631
222.99026,0.81246
222.74919,0.81840
222.50812,0.82299
222.26705,0.82688
222.02598,0.83222
221.78491,0.83994
221.54384,0.84767
221.30277,0.85298
221.06170,0.85784
220.82063,0.86566
220.57956,0.87593
220.33849,0.88593
220.09742,0.89550
219.85635,0.90624
219.61528,0.91880
219.37421,0.93335
219.13314,0.94969
218.89207,0.96619
218.65099,0.98107
218.40992,0.99452
218.16885,1.00790
217.92778,1.02156
217.68671,1.03484
217.44564,1.04717
217.20457,1.05846
216.96350,1.06928
216.72243,1.08017
216.48136,1.09153
216.24029,1.10498
215.99922,1.12258
215.75815,1.14386
215.51708,1.16610
215.27601,1.18822
215.03494,1.21105
214.79387,1.23336
214.55280,1.25191
214.31172,1.26568
214.07065,1.27712
213.82958,1.28823
213.58851,1.29832
213.34744,1.30670
213.10637,1.31585
212.86530,1.33007
212.62423,1.35015
212.38316,1.36950
212.14209,1.37913
211.90102,1.37811
211.65995,1.37385
211.41888,1.37243
211.17781,1.37432
210.93674,1.37859
210.69567,1.38548
210.45460,1.39265
210.21353,1.39492
209.97245,1.39065
209.73138,1.38349
209.49031,1.37720
209.24924,1.37229
209.00817,1.36814
208.76710,1.36596
208.52603,1.36816
208.28496,1.37413
208.04389,1.37794
207.80282,1.37327
207.56175,1.35852
207.32068,1.33700
207.07961,1.31541
206.83854,1.30036
206.59747,1.29350
206.35640,1.28966
206.11533,1.28033
205.87426,1.26125
205.63318,1.23681
205.39211,1.21476
205.15104,1.19863
204.90997,1.18696
204.66890,1.17709
204.42783,1.16701
204.18676,1.15377
203.94569,1.13446
203.70462,1.11078
203.46355,1.08884
203.22248,1.07361
202.98141,1.06462
202.74034,1.05575
202.49927,1.03980
202.25820,1.01545
202.01713,0.98825
201.77606,0.96444
201.53499,0.94661
201.29391,0.93369
201.05284,0.92184
200.81177,0.90676
200.57070,0.88800
200.32963,0.86942
200.08856,0.85487
199.84749,0.84475
199.60642,0.83647
199.36535,0.82647
199.12428,0.81307
198.88321,0.79820
198.64214,0.78501
198.40107,0.77421
198.16000,0.76383
197.91893,0.75240
197.67786,0.74083
197.43679,0.73081
197.19572,0.72245
196.95464,0.71435
196.71357,0.70506
196.47250,0.69469
196.23143,0.68511
195.99036,0.67768
195.74929,0.67149
195.50822,0.66498
195.26715,0.65836
195.02608,0.65304
194.78501,0.64922
194.54394,0.64543
194.30287,0.64046
194.06180,0.63454
193.82073,0.62848
193.57966,0.62282
193.33859,0.61788
193.09752,0.61330
192.85645,0.60761
192.61537,0.60014
192.37430,0.59271
192.13323,0.58759
191.89216,0.58436
191.65109,0.58058
191.41002,0.57542
191.16895,0.57051
190.92788,0.56732
190.68681,0.56552
190.44574,0.56413
190.20467,0.56303
189.96360,0.56260
189.72253,0.56242
189.48146,0.56107
189.24039,0.55779
188.99932,0.55365
188.75825,0.55057
188.51718,0.54910
188.27610,0.54802
188.03503,0.54662
187.79396,0.54591
187.55289,0.54651
187.31182,0.54686
187.07075,0.54560
186.82968,0.54410
186.58861,0.54426
186.34754,0.54524
186.10647,0.54479
185.86540,0.54300
185.62433,0.54244
185.38326,0.54446
185.14219,0.54739
184.90112,0.54878
184.66005,0.54865
184.41898,0.54922
184.17791,0.55160
183.93683,0.55447
183.69576,0.55642
183.45469,0.55798
183.21362,0.55981
182.97255,0.56085
182.73148,0.56040
182.49041,0.56005
182.24934,0.56156
182.00827,0.56446
181.76720,0.56750
181.52613,0.57031
181.28506,0.57249
181.04399,0.57347
180.80292,0.57416
180.56185,0.57657
180.32078,0.58136
180.07971,0.58748
179.83864,0.59407
179.59756,0.60099
179.35649,0.60753
179.11542,0.61261
178.87435,0.61670
178.63328,0.62168
178.39221,0.62829
178.15114,0.63608
177.91007,0.64539
177.66900,0.65681
177.42793,0.66971
177.18686,0.68370
176.94579,0.69944
176.70472,0.71680
176.46365,0.73493
176.22258,0.75421
175.98151,0.77507
175.74044,0.79681
175.49937,0.81994
175.25829,0.84628
175.01722,0.87486
174.77615,0.90197
174.53508,0.92601
174.29401,0.94746
174.05294,0.96589
173.81187,0.98131
173.57080,0.99616
173.32973,1.01295
173.08866,1.03144
172.84759,1.04913
172.60652,1.06385
172.36545,1.07587
172.12438,1.08695
171.88331,1.09684
171.64224,1.10274
171.40117,1.10304
171.16010,1.09859
170.91902,1.09000
170.67795,1.07692
170.43688,1.06070
170.19581,1.04438
169.95474,1.03028
169.71367,1.01962
169.47260,1.01278
169.23153,1.00883
168.99046,1.00626
168.74939,1.00472
168.50832,1.00475
168.26725,1.00538
168.02618,1.00402
167.78511,0.99961
167.54404,0.99429
167.30297,0.99056
167.06190,0.98819
166.82083,0.98570
166.57975,0.98413
166.33868,0.98662
166.09761,0.99448
165.85654,1.00552
165.61547,1.01653
165.37440,1.02679
165.13333,1.03782
164.89226,1.05001
164.65119,1.06125
164.41012,1.06971
164.16905,1.07672
163.92798,1.08581
163.68691,1.10034
163.44584,1.12136
163.20477,1.14657
162.96370,1.17190
162.72263,1.19405
162.48156,1.21079
162.24048,1.22079
161.99941,1.22492
161.75834,1.22611
161.51727,1.22709
161.27620,1.22847
161.03513,1.22882
160.79406,1.22787
160.55299,1.22811
160.31192,1.22985
160.07085,1.22823
159.82978,1.22009
159.58871,1.20940
159.34764,1.20050
159.10657,1.19120
158.86550,1.17744
158.62443,1.16101
158.38336,1.14783
158.14229,1.14152
157.90121,1.14200
157.66014,1.14597
157.41907,1.14547
157.17800,1.13348
156.93693,1.11385
156.69586,1.09701
156.45479,1.08858
156.21372,1.08724
155.97265,1.08935
155.73158,1.09128
155.49051,1.08840
155.24944,1.07677
155.00837,1.05710
154.76730,1.03439
154.52623,1.01352
154.28516,0.99698
154.04409,0.98509
153.80302,0.97522
153.56194,0.96235
153.32087,0.94310
153.07980,0.91848
152.83873,0.89212
152.59766,0.86707
152.35659,0.84447
152.11552,0.82375
151.87445,0.80320
151.63338,0.78136
151.39231,0.75885
151.15124,0.73832
150.91017,0.72132
150.66910,0.70667
150.42803,0.69207
150.18696,0.67593
149.94589,0.65827
149.70482,0.64105
149.46375,0.62717
149.22267,0.61782
148.98160,0.61044
148.74053,0.60119
148.49946,0.59002
148.25839,0.58059
148.01732,0.57544
147.77625,0.57322
147.53518,0.57054
147.29411,0.56573
147.05304,0.56052
146.81197,0.55808
146.57090,0.55995
146.32983,0.56485
146.08876,0.57036
145.84769,0.57524
145.60662,0.58010
145.36555,0.58599
145.12448,0.59291
144.88340,0.59980
144.64233,0.60578
144.40126,0.61083
144.16019,0.61532
143.91912,0.61900
143.67805,0.62061
143.43698,0.61876
143.19591,0.61309
142.95484,0.60443
142.71377,0.59400
142.47270,0.58313
142.23163,0.57303
141.99056,0.56402
141.74949,0.55533
141.50842,0.54632
141.26735,0.53754
141.02628,0.53016
140.78521,0.52477
140.54413,0.52134
140.30306,0.52010
140.06199,0.52156
139.82092,0.52564
139.57985,0.53110
139.33878,0.53652
139.09771,0.54167
138.85664,0.54771
138.61557,0.55552
138.37450,0.56474
138.13343,0.57519
137.89236,0.58772
137.65129,0.60265
137.41022,0.61866
137.16915,0.63499
136.92808,0.65327
136.68701,0.67534
136.44594,0.70072
136.20486,0.72768
135.96379,0.75559
135.72272,0.78513
135.48165,0.81723
135.24058,0.85233
134.99951,0.88991
134.75844,0.92839
134.51737,0.96661
134.27630,1.00574
134.03523,1.04638
133.79416,1.08363
133.55309,1.11239
133.31202,1.13893
133.07095,1.17531
132.82988,1.21950
132.58881,1.25260
132.34774,1.26206
132.10667,1.25639
131.86559,1.25067
131.62452,1.24796
131.38345,1.23684
131.14238,1.20855
130.90131,1.17094
130.66024,1.13647
130.41917,1.10633
130.17810,1.07411
129.93703,1.03764
129.69596,0.99952
129.45489,0.96095
129.21382,0.92187
128.97275,0.88304
128.73168,0.84444
128.49061,0.80499
128.24954,0.76519
128.00847,0.72769
127.76740,0.69481
127.52632,0.66688
127.28525,0.64244
127.04418,0.61941
126.80311,0.59652
126.56204,0.57412
126.32097,0.55305
126.07990,0.53364
125.83883,0.51626
125.59776,0.50169
125.35669,0.48999
125.11562,0.47988
124.87455,0.46981
124.63348,0.45926
124.39241,0.44900
124.15134,0.44046
123.91027,0.43443
123.66920,0.43033
123.42812,0.42710
123.18705,0.42435
122.94598,0.42257
122.70491,0.42240
122.46384,0.42399
122.22277,0.42687
121.98170,0.43048
121.74063,0.43455
121.49956,0.43851
121.25849,0.44170
121.01742,0.44492
120.77635,0.45065
120.53528,0.46059
120.29421,0.47392
120.05314,0.48909
119.81207,0.50643
119.57100,0.52751
119.32993,0.55224
119.08885,0.57867
118.84778,0.60593
118.60671,0.63554
118.36564,0.66865
118.12457,0.70357
117.88350,0.73717
117.64243,0.76754
117.40136,0.79386
117.16029,0.81399
116.91922,0.82498
116.67815,0.82636
116.43708,0.82075
116.19601,0.81071
115.95494,0.79730
115.71387,0.78124
115.47280,0.76327
115.23173,0.74430
114.99066,0.72656
114.74958,0.71319
114.50851,0.70539
114.26744,0.70084
114.02637,0.69589
113.78530,0.68953
113.54423,0.68373
113.30316,0.68002
113.06209,0.67778
112.82102,0.67698
112.57995,0.68000
112.33888,0.68865
112.09781,0.70190
111.85674,0.71846
111.61567,0.73807
111.37460,0.75778
111.13353,0.77094
110.89246,0.77317
110.65139,0.76707
110.41031,0.75839
110.16924,0.74984
109.92817,0.73985
109.68710,0.72641
109.44603,0.71051
109.20496,0.69397
108.96389,0.67574
108.72282,0.65336
108.48175,0.62711
108.24068,0.59984
107.99961,0.57397
107.75854,0.55027
107.51747,0.52827
107.27640,0.50686
107.03533,0.48574
106.79426,0.46678
106.55319,0.45265
106.31212,0.44373
106.07104,0.43681
105.82997,0.42725
105.58890,0.41270
105.34783,0.39474
105.10676,0.37684
104.86569,0.36192
104.62462,0.35146
104.38355,0.34528
104.14248,0.34152
103.90141,0.33742
103.66034,0.33068
103.41927,0.32090
103.17820,0.30984
102.93713,0.30000
102.69606,0.29303
102.45499,0.28935
102.21392,0.28832
101.97285,0.28805
101.73177,0.28582
101.49070,0.28004
101.24963,0.27232
101.00856,0.26681
100.76749,0.26637
100.52642,0.26889
100.28535,0.26843
100.04428,0.26177
99.80321,0.25266
99.56214,0.24746
99.32107,0.24848
99.08000,0.25211
98.83893,0.25242
98.59786,0.24744
98.35679,0.24114
98.11572,0.23854
97.87465,0.24082
97.63358,0.24498
97.39250,0.24768
97.15143,0.24920
96.91036,0.25266
96.66929,0.25964
96.42822,0.26819
96.18715,0.27504
95.94608,0.27994
95.70501,0.28618
95.46394,0.29589
95.22287,0.30658
94.98180,0.31420
94.74073,0.31882
94.49966,0.32383
94.25859,0.32980
94.01752,0.33301
93.77645,0.33086
93.53538,0.32646
93.29431,0.32525
93.05323,0.32842
92.81216,0.33238
92.57109,0.33468
92.33002,0.33686
92.08895,0.33982
91.84788,0.34154
91.60681,0.34266
91.36574,0.34902
91.12467,0.36453
90.88360,0.38611
90.64253,0.41034
90.40146,0.44132
90.16039,0.48417
89.91932,0.53438
89.67825,0.58379
89.43718,0.63327
89.19611,0.68412
88.95504,0.72605
88.71396,0.74928
88.47289,0.75379
88.23182,0.73776
87.99075,0.70041
87.74968,0.65182
87.50861,0.60144
87.26754,0.55048
87.02647,0.49999
86.78540,0.45431
86.54433,0.41665
86.30326,0.38711
86.06219,0.36310
85.82112,0.34082
85.58005,0.31857
85.33898,0.29764
85.09791,0.27901
84.85684,0.26174
84.61577,0.24540
84.37469,0.23132
84.13362,0.22062
83.89255,0.21274
83.65148,0.20594
83.41041,0.19878
83.16934,0.19129
82.92827,0.18497
82.68720,0.18110
82.44613,0.17920
82.20506,0.17781
81.96399,0.17619
81.72292,0.17447
81.48185,0.17274
81.24078,0.17108
80.99971,0.16948
80.75864,0.16745
80.51757,0.16470
80.27650,0.16209
80.03542,0.16066
79.79435,0.16010
79.55328,0.15939
79.31221,0.15826
79.07114,0.15713
78.83007,0.15640
78.58900,0.15603
78.34793,0.15562
78.10686,0.15441
77.86579,0.15189
77.62472,0.14842
77.38365,0.14516
77.14258,0.14312
76.90151,0.14238
76.66044,0.14220
76.41937,0.14178
76.17830,0.14097
75.93723,0.14046
75.69615,0.14086
75.45508,0.14176
75.21401,0.14201
74.97294,0.14096
74.73187,0.13909
74.49080,0.13735
74.24973,0.13614
74.00866,0.13529
73.76759,0.13478
73.52652,0.13459
73.28545,0.13438
73.04438,0.13417
72.80331,0.13481
72.56224,0.13672
72.32117,0.13948
72.08010,0.14315
71.83903,0.14849
71.59796,0.15493
71.35688,0.16008
71.11581,0.16210
70.87474,0.16175
70.63367,0.16189
70.39260,0.16566
70.15153,0.17559
69.91046,0.19290
69.66939,0.21598
69.42832,0.23942
69.18725,0.25613
68.94618,0.26110
68.70511,0.25300
68.46404,0.23411
68.22297,0.21016
67.98190,0.18789
67.74083,0.17101
67.49976,0.15921
67.25869,0.15064
67.01761,0.14414
66.77654,0.13953
66.53547,0.13668
66.29440,0.13523
66.05333,0.13525
65.81226,0.13708
65.57119,0.14032
65.33012,0.14393
65.08905,0.14811
64.84798,0.15446
64.60691,0.16385
64.36584,0.17441
64.12477,0.18224
63.88370,0.18397
63.64263,0.17881
63.40156,0.16819
63.16049,0.15469
62.91942,0.14140
62.67834,0.13085
62.43727,0.12371
62.19620,0.11901
61.95513,0.11575
61.71406,0.11360
61.47299,0.11279
61.23192,0.11376
60.99085,0.11699
60.74978,0.12259
60.50871,0.12987
60.26764,0.13755
60.02657,0.14444
59.78550,0.14972
59.54443,0.15252
59.30336,0.15189
59.06229,0.14758
58.82122,0.14046
58.58015,0.13233
58.33907,0.12516
58.09800,0.11984
57.85693,0.11640
57.61586,0.11570
57.37479,0.11940
57.13372,0.12721
56.89265,0.13554
56.65158,0.14078
56.41051,0.14272
56.16944,0.14282
55.92837,0.14057
55.68730,0.13399
55.44623,0.12380
55.20516,0.11391
54.96409,0.10704
54.72302,0.10296
54.48195,0.10171
54.24088,0.10593
53.99980,0.11866
53.75873,0.13941
53.51766,0.16140
53.27659,0.17233
53.03552,0.16384
52.79445,0.14054
52.55338,0.11460
52.31231,0.09744
52.07124,0.09617
51.83017,0.11266
51.58910,0.14214
51.34803,0.16645
51.10696,0.15929
50.86589,0.12458
50.62482,0.09267
50.38375,0.08358
50.14268,0.10244
49.90161,0.13940
49.66053,0.16252
49.41946,0.14816
49.17839,0.12422
48.93732,0.12056
48.69625,0.13900
48.45518,0.15925
48.21411,0.15320
47.97304,0.12785
47.73197,0.11520
47.49090,0.12720
47.24983,0.14305
47.00876,0.13262
46.76769,0.10958
46.52662,0.10480
46.28555,0.11770
46.04448,0.12063
45.80341,0.10797
45.56234,0.10589
45.32126,0.12100
45.08019,0.12722
44.83912,0.11590
44.59805,0.11366
44.35698,0.12572
44.11591,0.13021
43.87484,0.12558
43.63377,0.12810
43.39270,0.13631
43.15163,0.14014
42.91056,0.14038
42.66949,0.13788
42.42842,0.13022
42.18735,0.12308
41.94628,0.12190
41.70521,0.12191
41.46414,0.11836
41.22307,0.11405
40.98199,0.11434
40.74092,0.12194
40.49985,0.13342
40.25878,0.14119
40.01771,0.14381
39.77664,0.14809
39.53557,0.15733
39.29450,0.16628
39.05343,0.17098
38.81236,0.17718
38.57129,0.19179
38.33022,0.21008
38.08915,0.22072
37.84808,0.22253
37.60701,0.22475
37.36594,0.23071
37.12487,0.23382
36.88380,0.22917
36.64272,0.22051
36.40165,0.21540
36.16058,0.21711
35.91951,0.22078
35.67844,0.21864
35.43737,0.20854
35.19630,0.19710
34.95523,0.19322
34.71416,0.19618
34.47309,0.19463
34.23202,0.18323
33.99095,0.17174
33.74988,0.17245
33.50881,0.18657
33.26774,0.20275
33.02667,0.20766
32.78560,0.20193
32.54453,0.19851
32.30345,0.19887
32.06238,0.18954
31.82131,0.16733
31.58024,0.14846
31.33917,0.14608
31.09810,0.15061
30.85703,0.14571
30.61596,0.13320
30.37489,0.12273
30.13382,0.11425
29.89275,0.10185
29.65168,0.08695
29.41061,0.07600
29.16954,0.06791
28.92847,0.05699
28.68740,0.04423
28.44633,0.03626
28.20526,0.03218
27.96418,0.02103
27.72311,-0.00064
27.48204,-0.01790
27.24097,-0.01269
26.99990,0.01045
26.75883,0.02813
26.51776,0.02572
26.27669,0.00614
26.03562,-0.01989
25.79455,-0.04277
25.55348,-0.05666
25.31241,-0.06247
25.07134,-0.07008
24.83027,-0.09048
24.58920,-0.12003
24.34813,-0.14359
24.10706,-0.16005
23.86599,-0.18132
23.62491,-0.20869
23.38384,-0.23354
23.14277,-0.25051
22.90170,-0.25453
22.66063,-0.24109
22.41956,-0.21498
22.17849,-0.19079
21.93742,-0.18229
21.69635,-0.19109
21.45528,-0.21067
21.21421,-0.23358
20.97314,-0.25137
20.73207,-0.26317
20.49100,-0.27558
20.24993,-0.28782
20.00886,-0.28717
19.76779,-0.27675
19.52672,-0.27940
19.28564,-0.30261
19.04457,-0.32566
18.80350,-0.32861
18.56243,-0.31767
18.32136,-0.30870
18.08029,-0.30620
17.83922,-0.30757
17.59815,-0.31364
17.35708,-0.32842
17.11601,-0.33864
16.87494,-0.33428
16.63387,-0.33517
16.39280,-0.32246
16.15173,-0.29246
15.91066,-0.26855
15.66959,-0.26970
15.42852,-0.28612
15.18745,-0.29208
14.94637,-0.28411
14.70530,-0.27560
14.46423,-0.27520
14.22316,-0.28713
13.98209,-0.30941
13.74102,-0.33374
13.49995,-0.35351
13.25888,-0.36447
13.01781,-0.36397
12.77674,-0.35163
12.53567,-0.32872
12.29460,-0.30288
12.05353,-0.27925
11.81246,-0.25684
11.57139,-0.23904
11.33032,-0.23662
11.08925,-0.25598
10.84818,-0.29191
10.60710,-0.33390
10.36603,-0.36550
10.12496,-0.36905
9.88389,-0.35586
9.64282,-0.34895
9.40175,-0.35780
9.16068,-0.37033
8.91961,-0.33526
8.67854,-0.29970
8.43747,-0.29681
8.19640,-0.31931
7.95533,-0.34409
7.71426,-0.34933
7.47319,-0.32014
7.23212,-0.30296
6.99105,-0.30541
6.74998,-0.31664
6.50891,-0.33006
6.26783,-0.34573
6.02676,-0.35102
5.78569,-0.34479
5.54462,-0.33432
5.30355,-0.32050
5.06248,-0.30457
4.82141,-0.28380
4.58034,-0.26725
4.33927,-0.26561
4.09820,-0.27362
3.85713,-0.28662
3.61606,-0.30884
3.37499,-0.33063
3.13392,-0.33383
2.89285,-0.32054
2.65178,-0.30734
2.41071,-0.29726
2.16964,-0.29577
1.92856,-0.30430
1.68749,-0.30977
1.44642,-0.30773
1.20535,-0.30067
0.96428,-0.29547
0.72321,-0.30073
0.48214,-0.29494
0.24107,-0.27580
-0.00000,-0.15409
