399.69498,1.45918
399.45391,1.46627
399.21284,1.47556
398.97177,1.48612
398.73070,1.49502
398.48963,1.49664
398.24856,1.48864
398.00749,1.47725
397.76642,1.47097
397.52535,1.47021
397.28428,1.46747
397.04321,1.45888
396.80214,1.45112
396.56107,1.45354
396.32000,1.46655
396.07892,1.47954
395.83785,1.48073
395.59678,1.46955
395.35571,1.45513
395.11464,1.44625
394.87357,1.44704
394.63250,1.45565
394.39143,1.46445
394.15036,1.46676
393.90929,1.46334
393.66822,1.45800
393.42715,1.45162
393.18608,1.44370
392.94501,1.43391
392.70394,1.42277
392.46287,1.41528
392.22180,1.41860
391.98073,1.43295
391.73965,1.44792
391.49858,1.45301
391.25751,1.44981
391.01644,1.44792
390.77537,1.45175
390.53430,1.45549
390.29323,1.45049
390.05216,1.43606
389.81109,1.42030
389.57002,1.41024
389.32895,1.40730
389.08788,1.40972
388.84681,1.41439
388.60574,1.41754
388.36467,1.41588
388.12360,1.40990
387.88253,1.40422
387.64146,1.40204
387.40038,1.40187
387.15931,1.40156
386.91824,1.40174
386.67717,1.40029
386.43610,1.38861
386.19503,1.36309
385.95396,1.33400
385.71289,1.31505
385.47182,1.30977
385.23075,1.31019
384.98968,1.30915
384.74861,1.30863
384.50754,1.31162
384.26647,1.31280
384.02540,1.30387
383.78433,1.28601
383.54326,1.26933
383.30219,1.26126
383.06111,1.26079
382.82004,1.26108
382.57897,1.25648
382.33790,1.24702
382.09683,1.23394
381.85576,1.21643
381.61469,1.19804
381.37362,1.18904
381.13255,1.19463
380.89148,1.20664
380.65041,1.21247
380.40934,1.20727
380.16827,1.19589
379.92720,1.18752
379.68613,1.18822
379.44506,1.19573
379.20399,1.20281
378.96292,1.20632
378.72184,1.20963
378.48077,1.21619
378.23970,1.22401
377.99863,1.23003
377.75756,1.23625
377.51649,1.24591
377.27542,1.25693
377.03435,1.26548
376.79328,1.27238
376.55221,1.28054
376.31114,1.29042
376.07007,1.29996
375.82900,1.30580
375.58793,1.30738
375.34686,1.30966
375.10579,1.31628
374.86472,1.32415
374.62365,1.32967
374.38257,1.33456
374.14150,1.34057
373.90043,1.34496
373.65936,1.34586
373.41829,1.34420
373.17722,1.33987
372.93615,1.33297
372.69508,1.32581
372.45401,1.32229
372.21294,1.32736
371.97187,1.34182
371.73080,1.35603
371.48973,1.35650
371.24866,1.34208
371.00759,1.32436
370.76652,1.31286
370.52545,1.30881
370.28437,1.30938
370.04330,1.31059
369.80223,1.31014
369.56116,1.30999
369.32009,1.31226
369.07902,1.31423
368.83795,1.31391
368.59688,1.31606
368.35581,1.32533
368.11474,1.33768
367.87367,1.34288
367.63260,1.33540
367.39153,1.31945
367.15046,1.30346
366.90939,1.29377
366.66832,1.29068
366.42725,1.28917
366.18618,1.28744
365.94510,1.29034
365.70403,1.29996
365.46296,1.30794
365.22189,1.30345
364.98082,1.28781
364.73975,1.27266
364.49868,1.26541
364.25761,1.26410
364.01654,1.26369
363.77547,1.26220
363.53440,1.26053
363.29333,1.25979
363.05226,1.26019
362.81119,1.26157
362.57012,1.26340
362.32905,1.26358
362.08798,1.25937
361.84691,1.25072
361.60583,1.24188
361.36476,1.23828
361.12369,1.24150
360.88262,1.24810
360.64155,1.25264
360.40048,1.25163
360.15941,1.24641
359.91834,1.24072
359.67727,1.23660
359.43620,1.23486
359.19513,1.23467
358.95406,1.23187
358.71299,1.22415
358.47192,1.21722
358.23085,1.21776
357.98978,1.22299
357.74871,1.22497
357.50764,1.22188
357.26656,1.21729
357.02549,1.21281
356.78442,1.20853
356.54335,1.20597
356.30228,1.20628
356.06121,1.20894
355.82014,1.21314
355.57907,1.21727
355.33800,1.21855
355.09693,1.21656
354.85586,1.21400
354.61479,1.21279
354.37372,1.21299
354.13265,1.21437
353.89158,1.21559
353.65051,1.21387
353.40944,1.20868
353.16837,1.20305
352.92729,1.19959
352.68622,1.19844
352.44515,1.19893
352.20408,1.19936
351.96301,1.19652
351.72194,1.19036
351.48087,1.18600
351.23980,1.18797
350.99873,1.19582
350.75766,1.20478
350.51659,1.20767
350.27552,1.20048
350.03445,1.18929
349.79338,1.18505
349.55231,1.19022
349.31124,1.19691
349.07017,1.19795
348.82910,1.19469
348.58802,1.19399
348.34695,1.20103
348.10588,1.21337
347.86481,1.22135
347.62374,1.21812
347.38267,1.20853
347.14160,1.20224
346.90053,1.20279
346.65946,1.20775
346.41839,1.21425
346.17732,1.21991
345.93625,1.22212
345.69518,1.22079
345.45411,1.21918
345.21304,1.21976
344.97197,1.22297
344.73090,1.22964
344.48983,1.23981
344.24875,1.24960
344.00768,1.25402
343.76661,1.25316
343.52554,1.25076
343.28447,1.24904
343.04340,1.24862
342.80233,1.24989
342.56126,1.25266
342.32019,1.25548
342.07912,1.25675
341.83805,1.25688
341.59698,1.25849
341.35591,1.26336
341.11484,1.27036
340.87377,1.27752
340.63270,1.28360
340.39163,1.28697
340.15056,1.28667
339.90948,1.28391
339.66841,1.27985
339.42734,1.27571
339.18627,1.27659
338.94520,1.28815
338.70413,1.30729
338.46306,1.32219
338.22199,1.32564
337.98092,1.32254
337.73985,1.31988
337.49878,1.31751
337.25771,1.31220
337.01664,1.30541
336.77557,1.30198
336.53450,1.30289
336.29343,1.30456
336.05236,1.30536
335.81129,1.30699
335.57021,1.30949
335.32914,1.31060
335.08807,1.30926
334.84700,1.30527
334.60593,1.29835
334.36486,1.29096
334.12379,1.28703
333.88272,1.28565
333.64165,1.28115
333.40058,1.27245
333.15951,1.26541
332.91844,1.26251
332.67737,1.25959
332.43630,1.25381
332.19523,1.24820
331.95416,1.24693
331.71309,1.24908
331.47202,1.25136
331.23094,1.25279
330.98987,1.25213
330.74880,1.24621
330.50773,1.23457
330.26666,1.22142
330.02559,1.21162
329.78452,1.20771
329.54345,1.20872
329.30238,1.21116
329.06131,1.21315
328.82024,1.21647
328.57917,1.22198
328.33810,1.22493
328.09703,1.21957
327.85596,1.20698
327.61489,1.19365
327.37382,1.18558
327.13275,1.18621
326.89167,1.19616
326.65060,1.21071
326.40953,1.22016
326.16846,1.21979
325.92739,1.21490
325.68632,1.21067
325.44525,1.20562
325.20418,1.19906
324.96311,1.19629
324.72204,1.20199
324.48097,1.21341
324.23990,1.22353
323.99883,1.22682
323.75776,1.22117
323.51669,1.21038
323.27562,1.20334
323.03455,1.20382
322.79348,1.20504
322.55240,1.20008
322.31133,1.19265
322.07026,1.19190
321.82919,1.19954
321.58812,1.20742
321.34705,1.21044
321.10598,1.21494
320.86491,1.22787
320.62384,1.24397
320.38277,1.25160
320.14170,1.24814
319.90063,1.24077
319.65956,1.23513
319.41849,1.23148
319.17742,1.22834
318.93635,1.22423
318.69528,1.21837
318.45421,1.21242
318.21313,1.20913
317.97206,1.20895
317.73099,1.20980
317.48992,1.21046
317.24885,1.21300
317.00778,1.21930
316.76671,1.22566
316.52564,1.22541
316.28457,1.22006
316.04350,1.21896
315.80243,1.22533
315.56136,1.23286
315.32029,1.23628
315.07922,1.23660
314.83815,1.23620
314.59708,1.23645
314.35601,1.23783
314.11494,1.23809
313.87386,1.23661
313.63279,1.23981
313.39172,1.25241
313.15065,1.26978
312.90958,1.28400
312.66851,1.29097
312.42744,1.28803
312.18637,1.27390
311.94530,1.25543
311.70423,1.24516
311.46316,1.24933
311.22209,1.26172
310.98102,1.27018
310.73995,1.26839
310.49888,1.26131
310.25781,1.25979
310.01674,1.26985
309.77567,1.28623
309.53459,1.29639
309.29352,1.29328
309.05245,1.28132
308.81138,1.26974
308.57031,1.26470
308.32924,1.26717
308.08817,1.27507
307.84710,1.28556
307.60603,1.29548
307.36496,1.30110
307.12389,1.30049
306.88282,1.29615
306.64175,1.29251
306.40068,1.29203
306.15961,1.29509
305.91854,1.30006
305.67747,1.30245
305.43640,1.29972
305.19532,1.29645
304.95425,1.29743
304.71318,1.29867
304.47211,1.29371
304.23104,1.28613
303.98997,1.28610
303.74890,1.29545
303.50783,1.30458
303.26676,1.30516
303.02569,1.29942
302.78462,1.29217
302.54355,1.28253
302.30248,1.27097
302.06141,1.26461
301.82034,1.26723
301.57927,1.27239
301.33820,1.27346
301.09713,1.27303
300.85605,1.27589
300.61498,1.28128
300.37391,1.28559
300.13284,1.28594
299.89177,1.28188
299.65070,1.27646
299.40963,1.27248
299.16856,1.26890
298.92749,1.26420
298.68642,1.25960
298.44535,1.25664
298.20428,1.25420
297.96321,1.24977
297.72214,1.24206
297.48107,1.23305
297.24000,1.22684
296.99893,1.22527
296.75786,1.22642
296.51678,1.22827
296.27571,1.23115
296.03464,1.23493
295.79357,1.23642
295.55250,1.23282
295.31143,1.22569
295.07036,1.21868
294.82929,1.21313
294.58822,1.20774
294.34715,1.20187
294.10608,1.19701
293.86501,1.19526
293.62394,1.19823
293.38287,1.20516
293.14180,1.21126
292.90073,1.21120
292.65966,1.20487
292.41859,1.19685
292.17751,1.19044
291.93644,1.18554
291.69537,1.18219
291.45430,1.18137
291.21323,1.18239
290.97216,1.18300
290.73109,1.18205
290.49002,1.18000
290.24895,1.17723
290.00788,1.17393
289.76681,1.16968
289.52574,1.16329
289.28467,1.15536
289.04360,1.14964
288.80253,1.14881
288.56146,1.15075
288.32039,1.15123
288.07932,1.14904
287.83824,1.14648
287.59717,1.14533
287.35610,1.14581
287.11503,1.14761
286.87396,1.14950
286.63289,1.14922
286.39182,1.14571
286.15075,1.14061
285.90968,1.13649
285.66861,1.13476
285.42754,1.13532
285.18647,1.13639
284.94540,1.13553
284.70433,1.13280
284.46326,1.13134
284.22219,1.13266
283.98112,1.13364
283.74005,1.13056
283.49897,1.12464
283.25790,1.12070
283.01683,1.12108
282.77576,1.12403
282.53469,1.12714
282.29362,1.12898
282.05255,1.12813
281.81148,1.12423
281.57041,1.11967
281.32934,1.11749
281.08827,1.11821
280.84720,1.12041
280.60613,1.12271
280.36506,1.12393
280.12399,1.12329
279.88292,1.12148
279.64185,1.12040
279.40078,1.12046
279.15970,1.11980
278.91863,1.11755
278.67756,1.11589
278.43649,1.11683
278.19542,1.11913
277.95435,1.12084
277.71328,1.12206
277.47221,1.12282
277.23114,1.12206
276.99007,1.11989
276.74900,1.11795
276.50793,1.11715
276.26686,1.11661
276.02579,1.11575
275.78472,1.11581
275.54365,1.11801
275.30258,1.12130
275.06151,1.12364
274.82043,1.12476
274.57936,1.12575
274.33829,1.12612
274.09722,1.12411
273.85615,1.12019
273.61508,1.11817
273.37401,1.12124
273.13294,1.12780
272.89187,1.13251
272.65080,1.13211
272.40973,1.12905
272.16866,1.12795
271.92759,1.13065
271.68652,1.13527
271.44545,1.13845
271.20438,1.13855
270.96331,1.13730
270.72224,1.13720
270.48116,1.13830
270.24009,1.13919
269.99902,1.13972
269.75795,1.14118
269.51688,1.14445
269.27581,1.14949
269.03474,1.15525
268.79367,1.15978
268.55260,1.16201
268.31153,1.16379
268.07046,1.16824
267.82939,1.17595
267.58832,1.18443
267.34725,1.19164
267.10618,1.19799
266.86511,1.20360
266.62404,1.20664
266.38297,1.20664
266.14189,1.20718
265.90082,1.21304
265.65975,1.22496
265.41868,1.23778
265.17761,1.24530
264.93654,1.24756
264.69547,1.24950
264.45440,1.25288
264.21333,1.25568
263.97226,1.25939
263.73119,1.26902
263.49012,1.28513
263.24905,1.30196
263.00798,1.31428
262.76691,1.32206
262.52584,1.32801
262.28477,1.33318
262.04370,1.33778
261.80262,1.34540
261.56155,1.36191
261.32048,1.38791
261.07941,1.41598
260.83834,1.43827
260.59727,1.45389
260.35620,1.46518
260.11513,1.47234
259.87406,1.47800
259.63299,1.49164
259.39192,1.52054
259.15085,1.55750
258.90978,1.58517
258.66871,1.59696
258.42764,1.60440
258.18657,1.61851
257.94550,1.63758
257.70443,1.65542
257.46335,1.67247
257.22228,1.69281
256.98121,1.71440
256.74014,1.72984
256.49907,1.73510
256.25800,1.73441
256.01693,1.73457
255.77586,1.73480
255.53479,1.72629
255.29372,1.70549
255.05265,1.68198
254.81158,1.66665
254.57051,1.65783
254.32944,1.64666
254.08837,1.63368
253.84730,1.62739
253.60623,1.62621
253.36516,1.62087
253.12408,1.61247
252.88301,1.61085
252.64194,1.61782
252.40087,1.62093
252.15980,1.60773
251.91873,1.58322
251.67766,1.56370
251.43659,1.55840
251.19552,1.56450
250.95445,1.57106
250.71338,1.56486
250.47231,1.54247
250.23124,1.51702
249.99017,1.50424
249.74910,1.50687
249.50803,1.51534
249.26696,1.51872
249.02589,1.51460
248.78481,1.50882
248.54374,1.50642
248.30267,1.50702
248.06160,1.50928
247.82053,1.51488
247.57946,1.52563
247.33839,1.53858
247.09732,1.54787
246.85625,1.55219
246.61518,1.55734
246.37411,1.57050
246.13304,1.59250
245.89197,1.61592
245.65090,1.63490
245.40983,1.65278
245.16876,1.67240
244.92769,1.68958
244.68661,1.70302
244.44554,1.71822
244.20447,1.74092
243.96340,1.77344
243.72233,1.81225
243.48126,1.84870
243.24019,1.88058
242.99912,1.90137
242.75805,1.88008
242.51698,1.83782
242.27591,1.79226
242.03484,1.74076
241.79377,1.68759
241.55270,1.63595
241.31163,1.58250
241.07056,1.52699
240.82949,1.47495
240.58842,1.43084
240.34734,1.39522
240.10627,1.36598
239.86520,1.33992
239.62413,1.31236
239.38306,1.28035
239.14199,1.24738
238.90092,1.22056
238.65985,1.20375
238.41878,1.19364
238.17771,1.18240
237.93664,1.16535
237.69557,1.14514
237.45450,1.12753
237.21343,1.11442
236.97236,1.10195
236.73129,1.08601
236.49022,1.06825
236.24915,1.05352
236.00807,1.04280
235.76700,1.03268
235.52593,1.02140
235.28486,1.01111
235.04379,1.00400
234.80272,0.99958
234.56165,0.99627
234.32058,0.99341
234.07951,0.99102
233.83844,0.98847
233.59737,0.98407
233.35630,0.97663
233.11523,0.96736
232.87416,0.95908
232.63309,0.95321
232.39202,0.94892
232.15095,0.94528
231.90988,0.94225
231.66880,0.93920
231.42773,0.93492
231.18666,0.92991
230.94559,0.92605
230.70452,0.92317
230.46345,0.91927
230.22238,0.91478
229.98131,0.91216
229.74024,0.91073
229.49917,0.90678
229.25810,0.89934
229.01703,0.89147
228.77596,0.88561
228.53489,0.88161
228.29382,0.87863
228.05275,0.87618
227.81168,0.87373
227.57061,0.87123
227.32953,0.86925
227.08846,0.86763
226.84739,0.86509
226.60632,0.86068
226.36525,0.85475
226.12418,0.84884
225.88311,0.84434
225.64204,0.84138
225.40097,0.83977
225.15990,0.83989
224.91883,0.84138
224.67776,0.84274
224.43669,0.84321
224.19562,0.84350
223.95455,0.84432
223.71348,0.84572
223.47241,0.84723
223.23134,0.84817
222.99026,0.84884
222.74919,0.85071
222.50812,0.85435
222.26705,0.85904
222.02598,0.86408
221.78491,0.86816
221.54384,0.86911
221.30277,0.86762
221.06170,0.86811
220.82063,0.87365
220.57956,0.88278
220.33849,0.89223
220.09742,0.90024
219.85635,0.90699
219.61528,0.91341
219.37421,0.91949
219.13314,0.92389
218.89207,0.92645
218.65099,0.92957
218.40992,0.93596
218.16885,0.94627
217.92778,0.95887
217.68671,0.97139
217.44564,0.98265
217.20457,0.99301
216.96350,1.00315
216.72243,1.01382
216.48136,1.02646
216.24029,1.04203
215.99922,1.05905
215.75815,1.07412
215.51708,1.08426
215.27601,1.08919
215.03494,1.09237
214.79387,1.09779
214.55280,1.10604
214.31172,1.11534
214.07065,1.12542
213.82958,1.13729
213.58851,1.15007
213.34744,1.16153
213.10637,1.17096
212.86530,1.17869
212.62423,1.18395
212.38316,1.18648
212.14209,1.18865
211.90102,1.19293
211.65995,1.19905
211.41888,1.20494
211.17781,1.20842
210.93674,1.20734
210.69567,1.20075
210.45460,1.19172
210.21353,1.18601
209.97245,1.18662
209.73138,1.19149
209.49031,1.19652
209.24924,1.19928
209.00817,1.20001
208.76710,1.20052
208.52603,1.20228
208.28496,1.20441
208.04389,1.20346
207.80282,1.19573
207.56175,1.18232
207.32068,1.16950
207.07961,1.16256
206.83854,1.16175
206.59747,1.16231
206.35640,1.15792
206.11533,1.14640
205.87426,1.13145
205.63318,1.11855
205.39211,1.11044
205.15104,1.10603
204.90997,1.10192
204.66890,1.09482
204.42783,1.08325
204.18676,1.06847
203.94569,1.05431
203.70462,1.04441
203.46355,1.03904
203.22248,1.03485
202.98141,1.02791
202.74034,1.01693
202.49927,1.00383
202.25820,0.99151
202.01713,0.98102
201.77606,0.97044
201.53499,0.95661
201.29391,0.93879
201.05284,0.92072
200.81177,0.90723
200.57070,0.89833
200.32963,0.88929
200.08856,0.87737
199.84749,0.86518
199.60642,0.85618
199.36535,0.85016
199.12428,0.84423
198.88321,0.83602
198.64214,0.82541
198.40107,0.81405
198.16000,0.80418
197.91893,0.79711
197.67786,0.79174
197.43679,0.78507
197.19572,0.77519
196.95464,0.76348
196.71357,0.75301
196.47250,0.74557
196.23143,0.74038
195.99036,0.73501
195.74929,0.72770
195.50822,0.71903
195.26715,0.71087
195.02608,0.70375
194.78501,0.69647
194.54394,0.68842
194.30287,0.68090
194.06180,0.67548
193.82073,0.67158
193.57966,0.66678
193.33859,0.66011
193.09752,0.65391
192.85645,0.65062
192.61537,0.64906
192.37430,0.64591
192.13323,0.64046
191.89216,0.63535
191.65109,0.63195
191.41002,0.62818
191.16895,0.62206
190.92788,0.61534
190.68681,0.61149
190.44574,0.61097
190.20467,0.61059
189.96360,0.60757
189.72253,0.60256
189.48146,0.59758
189.24039,0.59329
188.99932,0.58965
188.75825,0.58714
188.51718,0.58573
188.27610,0.58429
188.03503,0.58229
187.79396,0.58069
187.55289,0.58013
187.31182,0.57957
187.07075,0.57762
186.82968,0.57436
186.58861,0.57127
186.34754,0.56929
186.10647,0.56784
185.86540,0.56619
185.62433,0.56513
185.38326,0.56618
185.14219,0.56904
184.90112,0.57131
184.66005,0.57124
184.41898,0.56959
184.17791,0.56805
183.93683,0.56719
183.69576,0.56683
183.45469,0.56711
183.21362,0.56797
182.97255,0.56899
182.73148,0.57026
182.49041,0.57238
182.24934,0.57484
182.00827,0.57600
181.76720,0.57515
181.52613,0.57326
181.28506,0.57146
181.04399,0.57006
180.80292,0.56966
180.56185,0.57105
180.32078,0.57343
180.07971,0.57513
179.83864,0.57666
179.59756,0.57999
179.35649,0.58487
179.11542,0.58920
178.87435,0.59246
178.63328,0.59582
178.39221,0.60019
178.15114,0.60635
177.91007,0.61471
177.66900,0.62396
177.42793,0.63234
177.18686,0.64044
176.94579,0.65029
176.70472,0.66239
176.46365,0.67514
176.22258,0.68729
175.98151,0.69981
175.74044,0.71453
175.49937,0.73092
175.25829,0.74641
175.01722,0.76034
174.77615,0.77515
174.53508,0.79246
174.29401,0.81053
174.05294,0.82620
173.81187,0.83841
173.57080,0.84881
173.32973,0.85965
173.08866,0.87164
172.84759,0.88377
172.60652,0.89434
172.36545,0.90261
172.12438,0.90979
171.88331,0.91650
171.64224,0.91975
171.40117,0.91666
171.16010,0.91063
170.91902,0.90742
170.67795,0.90715
170.43688,0.90471
170.19581,0.89727
169.95474,0.88750
169.71367,0.87976
169.47260,0.87621
169.23153,0.87564
168.99046,0.87425
168.74939,0.86886
168.50832,0.86014
168.26725,0.85157
168.02618,0.84572
167.78511,0.84295
167.54404,0.84263
167.30297,0.84417
167.06190,0.84715
166.82083,0.85126
166.57975,0.85540
166.33868,0.85746
166.09761,0.85633
165.85654,0.85378
165.61547,0.85304
165.37440,0.85613
165.13333,0.86344
164.89226,0.87430
164.65119,0.88691
164.41012,0.89863
164.16905,0.90730
163.92798,0.91252
163.68691,0.91568
163.44584,0.91916
163.20477,0.92538
162.96370,0.93536
162.72263,0.94758
162.48156,0.95877
162.24048,0.96660
161.99941,0.97128
161.75834,0.97419
161.51727,0.97595
161.27620,0.97668
161.03513,0.97713
160.79406,0.97817
160.55299,0.97981
160.31192,0.98164
160.07085,0.98350
159.82978,0.98487
159.58871,0.98434
159.34764,0.98050
159.10657,0.97326
158.86550,0.96442
158.62443,0.95733
158.38336,0.95465
158.14229,0.95549
157.90121,0.95576
157.66014,0.95239
157.41907,0.94643
157.17800,0.94107
156.93693,0.93764
156.69586,0.93476
156.45479,0.93114
156.21372,0.92708
155.97265,0.92302
155.73158,0.91848
155.49051,0.91343
155.24944,0.90877
155.00837,0.90474
154.76730,0.89974
154.52623,0.89154
154.28516,0.87982
154.04409,0.86706
153.80302,0.85590
153.56194,0.84644
153.32087,0.83668
153.07980,0.82486
152.83873,0.81091
152.59766,0.79631
152.35659,0.78269
152.11552,0.77075
151.87445,0.76005
151.63338,0.74890
151.39231,0.73541
151.15124,0.72015
150.91017,0.70632
150.66910,0.69588
150.42803,0.68682
150.18696,0.67561
149.94589,0.66151
149.70482,0.64696
149.46375,0.63473
149.22267,0.62580
148.98160,0.61898
148.74053,0.61221
148.49946,0.60437
148.25839,0.59614
148.01732,0.58917
147.77625,0.58421
147.53518,0.57993
147.29411,0.57443
147.05304,0.56805
146.81197,0.56368
146.57090,0.56362
146.32983,0.56711
146.08876,0.57104
145.84769,0.57290
145.60662,0.57270
145.36555,0.57262
145.12448,0.57466
144.88340,0.57872
144.64233,0.58317
144.40126,0.58735
144.16019,0.59192
143.91912,0.59655
143.67805,0.59904
143.43698,0.59760
143.19591,0.59274
142.95484,0.58631
142.71377,0.57941
142.47270,0.57203
142.23163,0.56378
141.99056,0.55466
141.74949,0.54498
141.50842,0.53544
141.26735,0.52721
141.02628,0.52121
140.78521,0.51701
140.54413,0.51339
140.30306,0.50995
140.06199,0.50747
139.82092,0.50678
139.57985,0.50773
139.33878,0.50977
139.09771,0.51300
138.85664,0.51777
138.61557,0.52352
138.37450,0.52900
138.13343,0.53402
137.89236,0.53982
137.65129,0.54763
137.41022,0.55767
137.16915,0.56964
136.92808,0.58341
136.68701,0.59872
136.44594,0.61517
136.20486,0.63300
135.96379,0.65278
135.72272,0.67423
135.48165,0.69679
135.24058,0.72087
134.99951,0.74671
134.75844,0.77314
134.51737,0.79893
134.27630,0.82365
134.03523,0.84638
133.79416,0.86641
133.55309,0.88534
133.31202,0.90537
133.07095,0.92643
132.82988,0.94612
132.58881,0.96195
132.34774,0.97365
132.10667,0.98258
131.86559,0.98798
131.62452,0.98701
131.38345,0.97961
131.14238,0.96876
130.90131,0.95624
130.66024,0.94200
130.41917,0.92621
130.17810,0.90874
129.93703,0.88855
129.69596,0.86516
129.45489,0.83951
129.21382,0.81335
128.97275,0.78832
128.73168,0.76514
128.49061,0.74339
128.24954,0.72246
128.00847,0.70245
127.76740,0.68388
127.52632,0.66709
127.28525,0.65167
127.04418,0.63650
126.80311,0.62070
126.56204,0.60476
126.32097,0.59015
126.07990,0.57796
125.83883,0.56776
125.59776,0.55788
125.35669,0.54718
125.11562,0.53596
124.87455,0.52505
124.63348,0.51469
124.39241,0.50469
124.15134,0.49506
123.91027,0.48591
123.66920,0.47716
123.42812,0.46900
123.18705,0.46208
122.94598,0.45718
122.70491,0.45475
122.46384,0.45480
122.22277,0.45650
121.98170,0.45784
121.74063,0.45695
121.49956,0.45430
121.25849,0.45245
121.01742,0.45338
120.77635,0.45694
120.53528,0.46215
120.29421,0.46897
120.05314,0.47840
119.81207,0.49135
119.57100,0.50789
119.32993,0.52715
119.08885,0.54811
118.84778,0.57075
118.60671,0.59593
118.36564,0.62344
118.12457,0.65094
117.88350,0.67582
117.64243,0.69730
117.40136,0.71538
117.16029,0.72936
116.91922,0.73868
116.67815,0.74377
116.43708,0.74518
116.19601,0.74359
115.95494,0.74072
115.71387,0.73799
115.47280,0.73435
115.23173,0.72755
114.99066,0.71734
114.74958,0.70512
114.50851,0.69218
114.26744,0.67981
114.02637,0.66975
113.78530,0.66242
113.54423,0.65613
113.30316,0.64986
113.06209,0.64590
112.82102,0.64811
112.57995,0.65761
112.33888,0.67156
112.09781,0.68575
111.85674,0.69745
111.61567,0.70580
111.37460,0.71142
111.13353,0.71620
110.89246,0.72151
110.65139,0.72677
110.41031,0.73079
110.16924,0.73369
109.92817,0.73538
109.68710,0.73266
109.44603,0.72154
109.20496,0.70299
108.96389,0.68241
108.72282,0.66344
108.48175,0.64598
108.24068,0.62922
107.99961,0.61342
107.75854,0.59859
107.51747,0.58377
107.27640,0.56766
107.03533,0.54930
106.79426,0.52914
106.55319,0.50975
106.31212,0.49434
106.07104,0.48391
105.82997,0.47637
105.58890,0.46799
105.34783,0.45616
105.10676,0.44170
104.86569,0.42824
104.62462,0.41871
104.38355,0.41304
104.14248,0.40887
103.90141,0.40347
103.66034,0.39521
103.41927,0.38441
103.17820,0.37287
102.93713,0.36295
102.69606,0.35656
102.45499,0.35349
102.21392,0.35071
101.97285,0.34511
101.73177,0.33693
101.49070,0.32899
101.24963,0.32387
101.00856,0.32230
100.76749,0.32250
100.52642,0.32053
100.28535,0.31373
100.04428,0.30426
99.80321,0.29694
99.56214,0.29419
99.32107,0.29431
99.08000,0.29367
98.83893,0.29002
98.59786,0.28457
98.35679,0.28064
98.11572,0.27955
97.87465,0.27859
97.63358,0.27518
97.39250,0.27173
97.15143,0.27246
96.91036,0.27681
96.66929,0.27964
96.42822,0.27876
96.18715,0.27893
95.94608,0.28544
95.70501,0.29694
95.46394,0.30698
95.22287,0.31222
94.98180,0.31647
94.74073,0.32395
94.49966,0.33218
94.25859,0.33554
94.01752,0.33411
93.77645,0.33341
93.53538,0.33587
93.29431,0.33858
93.05323,0.33934
92.81216,0.33991
92.57109,0.34145
92.33002,0.34176
92.08895,0.33954
91.84788,0.33761
91.60681,0.33898
91.36574,0.34316
91.12467,0.34979
90.88360,0.36209
90.64253,0.38214
90.40146,0.40694
90.16039,0.43422
89.91932,0.46719
89.67825,0.50711
89.43718,0.54884
89.19611,0.58844
88.95504,0.62475
88.71396,0.65153
88.47289,0.66127
88.23182,0.65469
87.99075,0.63708
87.74968,0.61246
87.50861,0.58418
87.26754,0.55424
87.02647,0.52308
86.78540,0.49231
86.54433,0.46510
86.30326,0.44324
86.06219,0.42552
85.82112,0.40868
85.58005,0.39023
85.33898,0.37061
85.09791,0.35180
84.85684,0.33451
84.61577,0.31847
84.37469,0.30436
84.13362,0.29356
83.89255,0.28596
83.65148,0.27968
83.41041,0.27309
83.16934,0.26641
82.92827,0.26081
82.68720,0.25673
82.44613,0.25345
82.20506,0.24964
81.96399,0.24472
81.72292,0.23999
81.48185,0.23746
81.24078,0.23710
80.99971,0.23680
80.75864,0.23525
80.51757,0.23329
80.27650,0.23156
80.03542,0.22895
79.79435,0.22459
79.55328,0.21995
79.31221,0.21721
79.07114,0.21654
78.83007,0.21640
78.58900,0.21561
78.34793,0.21373
78.10686,0.21040
77.86579,0.20566
77.62472,0.20047
77.38365,0.19589
77.14258,0.19231
76.90151,0.18933
76.66044,0.18634
76.41937,0.18347
76.17830,0.18162
75.93723,0.18108
75.69615,0.18064
75.45508,0.17877
75.21401,0.17543
74.97294,0.17230
74.73187,0.17140
74.49080,0.17323
74.24973,0.17642
74.00866,0.17929
73.76759,0.18140
73.52652,0.18306
73.28545,0.18398
73.04438,0.18394
72.80331,0.18399
72.56224,0.18578
72.32117,0.18963
72.08010,0.19402
71.83903,0.19677
71.59796,0.19640
71.35688,0.19315
71.11581,0.18906
70.87474,0.18671
70.63367,0.18787
70.39260,0.19373
70.15153,0.20566
69.91046,0.22424
69.66939,0.24756
69.42832,0.27065
69.18725,0.28702
68.94618,0.29215
68.70511,0.28586
68.46404,0.27120
68.22297,0.25195
67.98190,0.23148
67.74083,0.21256
67.49976,0.19722
67.25869,0.18608
67.01761,0.17801
66.77654,0.17137
66.53547,0.16567
66.29440,0.16116
66.05333,0.15772
65.81226,0.15583
65.57119,0.15694
65.33012,0.16172
65.08905,0.16937
64.84798,0.17950
64.60691,0.19256
64.36584,0.20736
64.12477,0.21991
63.88370,0.22637
63.64263,0.22569
63.40156,0.21883
63.16049,0.20728
62.91942,0.19354
62.67834,0.18105
62.43727,0.17204
62.19620,0.16643
61.95513,0.16280
61.71406,0.16008
61.47299,0.15804
61.23192,0.15693
60.99085,0.15694
60.74978,0.15804
60.50871,0.16056
60.26764,0.16514
60.02657,0.17168
59.78550,0.17866
59.54443,0.18375
59.30336,0.18506
59.06229,0.18221
58.82122,0.17580
58.58015,0.16640
58.33907,0.15577
58.09800,0.14774
57.85693,0.14614
57.61586,0.15191
57.37479,0.16291
57.13372,0.17557
56.89265,0.18620
56.65158,0.19148
56.41051,0.18904
56.16944,0.17871
55.92837,0.16310
55.68730,0.14691
55.44623,0.13506
55.20516,0.13104
54.96409,0.13633
54.72302,0.15051
54.48195,0.17085
54.24088,0.19059
53.99980,0.19896
53.75873,0.19010
53.51766,0.17132
53.27659,0.15517
53.03552,0.15070
52.79445,0.16250
52.55338,0.18877
52.31231,0.21497
52.07124,0.21811
51.83017,0.19485
51.58910,0.16652
51.34803,0.15196
51.10696,0.15817
50.86589,0.18119
50.62482,0.20287
50.38375,0.20043
50.14268,0.17969
49.90161,0.16901
49.66053,0.18359
49.41946,0.21466
49.17839,0.23038
48.93732,0.21047
48.69625,0.18499
48.45518,0.18589
48.21411,0.21178
47.97304,0.22937
47.73197,0.21376
47.49090,0.19242
47.24983,0.19367
47.00876,0.20808
46.76769,0.20138
46.52662,0.17215
46.28555,0.15525
46.04448,0.16105
45.80341,0.16921
45.56234,0.16778
45.32126,0.17117
45.08019,0.18068
44.83912,0.17886
44.59805,0.16995
44.35698,0.17195
44.11591,0.18033
43.87484,0.18258
43.63377,0.18651
43.39270,0.20082
43.15163,0.21585
42.91056,0.22028
42.66949,0.21587
42.42842,0.20814
42.18735,0.20072
41.94628,0.19592
41.70521,0.19328
41.46414,0.19146
41.22307,0.18962
40.98199,0.18721
40.74092,0.18601
40.49985,0.18952
40.25878,0.19785
40.01771,0.20707
39.77664,0.21388
39.53557,0.21758
39.29450,0.21914
39.05343,0.22048
38.81236,0.22461
38.57129,0.23498
38.33022,0.25117
38.08915,0.26557
37.84808,0.27147
37.60701,0.27103
37.36594,0.26808
37.12487,0.26323
36.88380,0.25586
36.64272,0.24624
36.40165,0.23787
36.16058,0.23463
35.91951,0.23360
35.67844,0.22839
35.43737,0.22020
35.19630,0.21502
34.95523,0.21271
34.71416,0.20746
34.47309,0.19751
34.23202,0.18979
33.99095,0.19116
33.74988,0.19802
33.50881,0.19921
33.26774,0.18873
33.02667,0.17174
32.78560,0.15578
32.54453,0.14429
32.30345,0.13740
32.06238,0.13310
31.82131,0.12842
31.58024,0.11877
31.33917,0.09851
31.09810,0.06747
30.85703,0.03576
30.61596,0.01718
30.37489,0.01547
30.13382,0.01860
29.89275,0.01086
29.65168,-0.00837
29.41061,-0.02505
29.16954,-0.03074
28.92847,-0.03249
28.68740,-0.04087
28.44633,-0.05601
28.20526,-0.06907
27.96418,-0.07311
27.72311,-0.07080
27.48204,-0.07359
27.24097,-0.08953
26.99990,-0.11271
26.75883,-0.13033
26.51776,-0.13639
26.27669,-0.13296
26.03562,-0.12221
25.79455,-0.10814
25.55348,-0.10166
25.31241,-0.11127
25.07134,-0.13357
24.83027,-0.15845
24.58920,-0.17679
24.34813,-0.18294
24.10706,-0.17835
23.86599,-0.17376
23.62491,-0.18249
23.38384,-0.20678
23.14277,-0.23483
22.90170,-0.25435
22.66063,-0.26477
22.41956,-0.27010
22.17849,-0.26895
21.93742,-0.26036
21.69635,-0.24894
21.45528,-0.24159
21.21421,-0.24526
20.97314,-0.26338
20.73207,-0.28995
20.49100,-0.31354
20.24993,-0.33047
20.00886,-0.34280
19.76779,-0.34744
19.52672,-0.34268
19.28564,-0.33066
19.04457,-0.31433
18.80350,-0.30307
18.56243,-0.30472
18.32136,-0.31310
18.08029,-0.31553
17.83922,-0.30935
17.59815,-0.30403
17.35708,-0.31151
17.11601,-0.33319
16.87494,-0.35571
16.63387,-0.36345
16.39280,-0.35731
16.15173,-0.35155
15.91066,-0.35498
15.66959,-0.36955
15.42852,-0.39421
15.18745,-0.41837
14.94637,-0.42128
14.70530,-0.39717
14.46423,-0.36930
14.22316,-0.36333
13.98209,-0.38505
13.74102,-0.41615
13.49995,-0.42852
13.25888,-0.41685
13.01781,-0.39940
12.77674,-0.39542
12.53567,-0.41304
12.29460,-0.44044
12.05353,-0.45743
11.81246,-0.45758
11.57139,-0.43806
11.33032,-0.40554
11.08925,-0.38018
10.84818,-0.36825
10.60710,-0.36787
10.36603,-0.37570
10.12496,-0.38777
9.88389,-0.39941
9.64282,-0.40254
9.40175,-0.39385
9.16068,-0.38239
8.91961,-0.37847
8.67854,-0.38151
8.43747,-0.38418
8.19640,-0.38678
7.95533,-0.39457
7.71426,-0.40871
7.47319,-0.42282
7.23212,-0.42825
6.99105,-0.42370
6.74998,-0.41244
6.50891,-0.40036
6.26783,-0.39497
6.02676,-0.40050
5.78569,-0.40731
5.54462,-0.40502
5.30355,-0.40483
5.06248,-0.40609
4.82141,-0.39598
4.58034,-0.37904
4.33927,-0.37050
4.09820,-0.37600
3.85713,-0.39197
3.61606,-0.40771
3.37499,-0.40843
3.13392,-0.40032
2.89285,-0.39771
2.65178,-0.39736
2.41071,-0.39026
2.16964,-0.37729
1.92856,-0.36300
1.68749,-0.35352
1.44642,-0.35936
1.20535,-0.37669
0.96428,-0.38998
0.72321,-0.41421
0.48214,-0.49873
0.24107,-0.53023
-0.00000,-0.13344
