399.69498,1.78758
399.45391,1.77313
399.21284,1.72438
398.97177,1.66410
398.73070,1.62703
398.48963,1.61255
398.24856,1.59771
398.00749,1.58022
397.76642,1.56940
397.52535,1.56669
397.28428,1.57344
397.04321,1.59064
396.80214,1.61462
396.56107,1.65042
396.32000,1.70854
396.07892,1.76845
395.83785,1.78479
395.59678,1.75890
395.35571,1.72813
395.11464,1.70554
394.87357,1.68748
394.63250,1.68149
394.39143,1.68829
394.15036,1.70347
393.90929,1.72631
393.66822,1.75183
393.42715,1.77363
393.18608,1.80126
392.94501,1.85942
392.70394,1.95158
392.46287,2.03781
392.22180,2.03723
391.98073,1.96768
391.73965,1.93998
391.49858,1.96496
391.25751,2.13788
391.01644,2.53811
390.77537,2.40321
390.53430,2.18880
390.29323,2.07431
390.05216,2.00685
389.81109,2.04087
389.57002,2.05370
389.32895,1.99247
389.08788,1.90713
388.84681,1.84773
388.60574,1.86060
388.36467,1.95767
388.12360,2.09056
387.88253,2.13576
387.64146,2.15292
387.40038,2.32559
387.15931,2.43190
386.91824,2.22111
386.67717,2.13332
386.43610,2.08006
386.19503,1.98797
385.95396,1.88593
385.71289,1.86791
385.47182,1.92994
385.23075,2.06640
384.98968,2.21081
384.74861,2.25117
384.50754,2.04416
384.26647,1.84772
384.02540,1.79864
383.78433,1.84925
383.54326,1.86854
383.30219,1.88173
383.06111,1.93819
382.82004,1.98656
382.57897,1.91059
382.33790,1.81341
382.09683,1.76075
381.85576,1.70623
381.61469,1.65775
381.37362,1.66977
381.13255,1.77205
380.89148,1.95876
380.65041,2.07856
380.40934,2.09867
380.16827,2.17675
379.92720,2.25790
379.68613,2.27996
379.44506,2.25032
379.20399,1.95112
378.96292,1.74772
378.72184,1.73508
378.48077,1.89268
378.23970,2.14233
377.99863,2.02794
377.75756,1.92405
377.51649,1.89197
377.27542,1.85804
377.03435,1.88236
376.79328,1.96734
376.55221,2.06582
376.31114,2.20235
376.07007,2.32512
375.82900,2.20692
375.58793,1.97364
375.34686,1.86651
375.10579,1.84942
374.86472,1.95363
374.62365,2.21702
374.38257,2.34580
374.14150,2.18906
373.90043,2.12641
373.65936,2.07157
373.41829,1.94893
373.17722,1.90434
372.93615,1.93344
372.69508,1.97296
372.45401,1.97517
372.21294,1.87154
371.97187,1.68704
371.73080,1.55063
371.48973,1.49027
371.24866,1.48593
371.00759,1.50854
370.76652,1.52162
370.52545,1.50584
370.28437,1.47452
370.04330,1.44646
369.80223,1.42097
369.56116,1.39090
369.32009,1.36487
369.07902,1.36186
368.83795,1.38806
368.59688,1.42409
368.35581,1.43301
368.11474,1.39895
367.87367,1.34961
367.63260,1.31455
367.39153,1.30117
367.15046,1.30238
366.90939,1.30760
366.66832,1.30884
366.42725,1.30174
366.18618,1.28964
365.94510,1.28308
365.70403,1.28968
365.46296,1.30708
365.22189,1.32794
364.98082,1.34840
364.73975,1.36227
364.49868,1.35458
364.25761,1.31845
364.01654,1.27163
363.77547,1.24089
363.53440,1.23588
363.29333,1.24323
363.05226,1.24522
362.81119,1.24219
362.57012,1.24623
362.32905,1.25794
362.08798,1.26350
361.84691,1.25604
361.60583,1.24352
361.36476,1.23265
361.12369,1.22372
360.88262,1.22023
360.64155,1.22749
360.40048,1.24132
360.15941,1.24830
359.91834,1.24238
359.67727,1.23392
359.43620,1.23235
359.19513,1.23251
358.95406,1.22827
358.71299,1.22556
358.47192,1.23201
358.23085,1.24529
357.98978,1.25801
357.74871,1.26799
357.50764,1.27368
357.26656,1.26779
357.02549,1.24859
356.78442,1.22687
356.54335,1.21297
356.30228,1.20684
356.06121,1.20290
355.82014,1.19831
355.57907,1.19613
355.33800,1.20261
355.09693,1.21887
354.85586,1.23384
354.61479,1.23542
354.37372,1.23046
354.13265,1.23309
353.89158,1.24321
353.65051,1.24895
353.40944,1.24178
353.16837,1.22783
352.92729,1.22084
352.68622,1.22204
352.44515,1.22229
352.20408,1.22305
351.96301,1.23150
351.72194,1.24288
351.48087,1.24487
351.23980,1.23635
350.99873,1.22896
350.75766,1.23502
350.51659,1.25303
350.27552,1.26771
350.03445,1.26778
349.79338,1.25765
349.55231,1.25037
349.31124,1.25153
349.07017,1.25741
348.82910,1.26313
348.58802,1.26611
348.34695,1.26674
348.10588,1.26963
347.86481,1.27838
347.62374,1.28704
347.38267,1.28934
347.14160,1.28671
346.90053,1.28365
346.65946,1.28258
346.41839,1.28377
346.17732,1.28883
345.93625,1.29831
345.69518,1.31094
345.45411,1.32540
345.21304,1.33683
344.97197,1.33435
344.73090,1.32005
344.48983,1.31384
344.24875,1.32644
344.00768,1.35276
343.76661,1.38461
343.52554,1.41450
343.28447,1.43312
343.04340,1.43687
342.80233,1.43520
342.56126,1.44553
342.32019,1.46720
342.07912,1.47958
341.83805,1.47805
341.59698,1.47622
341.35591,1.47840
341.11484,1.48765
340.87377,1.51628
340.63270,1.55673
340.39163,1.56937
340.15056,1.53575
339.90948,1.49844
339.66841,1.50504
339.42734,1.55872
339.18627,1.62565
338.94520,1.66785
338.70413,1.67817
338.46306,1.67394
338.22199,1.67255
337.98092,1.67771
337.73985,1.68566
337.49878,1.69640
337.25771,1.70092
337.01664,1.71041
336.77557,1.76176
336.53450,1.86478
336.29343,1.94658
336.05236,1.89675
335.81129,1.77204
335.57021,1.69812
335.32914,1.72064
335.08807,1.80228
334.84700,1.84099
334.60593,1.78471
334.36486,1.70484
334.12379,1.66727
333.88272,1.67343
333.64165,1.69270
333.40058,1.70599
333.15951,1.71175
332.91844,1.70556
332.67737,1.69861
332.43630,1.70081
332.19523,1.70862
331.95416,1.72321
331.71309,1.72393
331.47202,1.68837
331.23094,1.64616
330.98987,1.61716
330.74880,1.58599
330.50773,1.53962
330.26666,1.50035
330.02559,1.49996
329.78452,1.53421
329.54345,1.56470
329.30238,1.56835
329.06131,1.55536
328.82024,1.53521
328.57917,1.50738
328.33810,1.47450
328.09703,1.45586
327.85596,1.46337
327.61489,1.48872
327.37382,1.52389
327.13275,1.55925
326.89167,1.58119
326.65060,1.59408
326.40953,1.60307
326.16846,1.59173
325.92739,1.55505
325.68632,1.53048
325.44525,1.54432
325.20418,1.58390
324.96311,1.64031
324.72204,1.71181
324.48097,1.77655
324.23990,1.79618
323.99883,1.76556
323.75776,1.74225
323.51669,1.74849
323.27562,1.78470
323.03455,1.86162
322.79348,1.89583
322.55240,1.84366
322.31133,1.79921
322.07026,1.78461
321.82919,1.75295
321.58812,1.69693
321.34705,1.65938
321.10598,1.67507
320.86491,1.74203
320.62384,1.80891
320.38277,1.82660
320.14170,1.86214
319.90063,1.88415
319.65956,1.82953
319.41849,1.78076
319.17742,1.76538
318.93635,1.75602
318.69528,1.76466
318.45421,1.82382
318.21313,1.92630
317.97206,1.99209
317.73099,1.95850
317.48992,1.89962
317.24885,1.87001
317.00778,1.85669
316.76671,1.81306
316.52564,1.74070
316.28457,1.70640
316.04350,1.72576
315.80243,1.77938
315.56136,1.85390
315.32029,1.88070
315.07922,1.88329
314.83815,1.95618
314.59708,2.01076
314.35601,1.93529
314.11494,1.82106
313.87386,1.78903
313.63279,1.84334
313.39172,1.93919
313.15065,2.00827
312.90958,1.97255
312.66851,1.93210
312.42744,1.92082
312.18637,1.92113
311.94530,1.97572
311.70423,2.09423
311.46316,2.29728
311.22209,2.33478
310.98102,2.22388
310.73995,2.17520
310.49888,2.25103
310.25781,2.34212
310.01674,2.20317
309.77567,2.06084
309.53459,1.94712
309.29352,1.89948
309.05245,1.92882
308.81138,2.02597
308.57031,2.12010
308.32924,2.10961
308.08817,1.97586
307.84710,1.84932
307.60603,1.80898
307.36496,1.83497
307.12389,1.85240
306.88282,1.80308
306.64175,1.74797
306.40068,1.75414
306.15961,1.82217
305.91854,1.86465
305.67747,1.80104
305.43640,1.69587
305.19532,1.60715
304.95425,1.54436
304.71318,1.50299
304.47211,1.48161
304.23104,1.48132
303.98997,1.49237
303.74890,1.49571
303.50783,1.47750
303.26676,1.43719
303.02569,1.38806
302.78462,1.34487
302.54355,1.31926
302.30248,1.31779
302.06141,1.33591
301.82034,1.35736
301.57927,1.36212
301.33820,1.33870
301.09713,1.29949
300.85605,1.26932
300.61498,1.25287
300.37391,1.23828
300.13284,1.22217
299.89177,1.21317
299.65070,1.21385
299.40963,1.21596
299.16856,1.21385
298.92749,1.20994
298.68642,1.20622
298.44535,1.20008
298.20428,1.18899
297.96321,1.17625
297.72214,1.16760
297.48107,1.16718
297.24000,1.17435
296.99893,1.17973
296.75786,1.17208
296.51678,1.15102
296.27571,1.12797
296.03464,1.11282
295.79357,1.10326
295.55250,1.09059
295.31143,1.07382
295.07036,1.06162
294.82929,1.06028
294.58822,1.06529
294.34715,1.06586
294.10608,1.05713
293.86501,1.04506
293.62394,1.03813
293.38287,1.03813
293.14180,1.04019
292.90073,1.03925
292.65966,1.03351
292.41859,1.02490
292.17751,1.01899
291.93644,1.02172
291.69537,1.03370
291.45430,1.04618
291.21323,1.04735
290.97216,1.03697
290.73109,1.02660
290.49002,1.02351
290.24895,1.02523
290.00788,1.02865
289.76681,1.03299
289.52574,1.03397
289.28467,1.02682
289.04360,1.01490
288.80253,1.00617
288.56146,1.00363
288.32039,1.00427
288.07932,1.00444
287.83824,1.00262
287.59717,0.99823
287.35610,0.99219
287.11503,0.98811
286.87396,0.98856
286.63289,0.98964
286.39182,0.98398
286.15075,0.97176
285.90968,0.96274
285.66861,0.96412
285.42754,0.97158
285.18647,0.97528
284.94540,0.97136
284.70433,0.96356
284.46326,0.95647
284.22219,0.95210
283.98112,0.95139
283.74005,0.95530
283.49897,0.96283
283.25790,0.96942
283.01683,0.97001
282.77576,0.96394
282.53469,0.95497
282.29362,0.94685
282.05255,0.94158
281.81148,0.94120
281.57041,0.94667
281.32934,0.95527
281.08827,0.96238
280.84720,0.96584
280.60613,0.96643
280.36506,0.96537
280.12399,0.96217
279.88292,0.95526
279.64185,0.94591
279.40078,0.93911
279.15970,0.93828
278.91863,0.94139
278.67756,0.94391
278.43649,0.94370
278.19542,0.94178
277.95435,0.94066
277.71328,0.94197
277.47221,0.94491
277.23114,0.94751
276.99007,0.94897
276.74900,0.94914
276.50793,0.94765
276.26686,0.94639
276.02579,0.95001
275.78472,0.96015
275.54365,0.97044
275.30258,0.97189
275.06151,0.96421
274.82043,0.95603
274.57936,0.95385
274.33829,0.95612
274.09722,0.95808
273.85615,0.95903
273.61508,0.96208
273.37401,0.96894
273.13294,0.97806
272.89187,0.98623
272.65080,0.98983
272.40973,0.98644
272.16866,0.97763
271.92759,0.96863
271.68652,0.96408
271.44545,0.96517
271.20438,0.96981
270.96331,0.97510
270.72224,0.98022
270.48116,0.98551
270.24009,0.98911
269.99902,0.98895
269.75795,0.98693
269.51688,0.98666
269.27581,0.98911
269.03474,0.99460
268.79367,1.00514
268.55260,1.01874
268.31153,1.02618
268.07046,1.02285
267.82939,1.01684
267.58832,1.01666
267.34725,1.02053
267.10618,1.02343
266.86511,1.02673
266.62404,1.03452
266.38297,1.04352
266.14189,1.04482
265.90082,1.03845
265.65975,1.03526
265.41868,1.04266
265.17761,1.05746
264.93654,1.07096
264.69547,1.07896
264.45440,1.08478
264.21333,1.09007
263.97226,1.09246
263.73119,1.09395
263.49012,1.10103
263.24905,1.11613
263.00798,1.13480
262.76691,1.15392
262.52584,1.17607
262.28477,1.20018
262.04370,1.21687
261.80262,1.22037
261.56155,1.21608
261.32048,1.21044
261.07941,1.20458
260.83834,1.20264
260.59727,1.21496
260.35620,1.24808
260.11513,1.29589
259.87406,1.34185
259.63299,1.37282
259.39192,1.38785
259.15085,1.39341
258.90978,1.39918
258.66871,1.41229
258.42764,1.43528
258.18657,1.46676
257.94550,1.50078
257.70443,1.52855
257.46335,1.54433
257.22228,1.55443
256.98121,1.56520
256.74014,1.57140
256.49907,1.56820
256.25800,1.56524
256.01693,1.58116
255.77586,1.63171
255.53479,1.71962
255.29372,1.82370
255.05265,1.90059
254.81158,1.93593
254.57051,1.96121
254.32944,1.99250
254.08837,2.01639
253.84730,2.04271
253.60623,2.05825
253.36516,2.05832
253.12408,2.07991
252.88301,2.16822
252.64194,2.27312
252.40087,2.25463
252.15980,2.16802
251.91873,2.12533
251.67766,2.15427
251.43659,2.21664
251.19552,2.21874
250.95445,2.18793
250.71338,2.17539
250.47231,2.13530
250.23124,2.08548
249.99017,2.08305
249.74910,2.17540
249.50803,2.40587
249.26696,2.61740
249.02589,2.47272
248.78481,2.31762
248.54374,2.28503
248.30267,2.41150
248.06160,2.58671
247.82053,2.38189
247.57946,2.16703
247.33839,2.12456
247.09732,2.18708
246.85625,2.20321
246.61518,2.15494
246.37411,2.11162
246.13304,2.08005
245.89197,2.06526
245.65090,2.06463
245.40983,2.01410
245.16876,1.89423
244.92769,1.77953
244.68661,1.71261
244.44554,1.68450
244.20447,1.67577
243.96340,1.66558
243.72233,1.63926
243.48126,1.59970
243.24019,1.54965
242.99912,1.48977
242.75805,1.42786
242.51698,1.36734
242.27591,1.30786
242.03484,1.25375
241.79377,1.20973
241.55270,1.17537
241.31163,1.14616
241.07056,1.11530
240.82949,1.07684
240.58842,1.03328
240.34734,0.99552
240.10627,0.97094
239.86520,0.95560
239.62413,0.94027
239.38306,0.92096
239.14199,0.89947
238.90092,0.87769
238.65985,0.85675
238.41878,0.83798
238.17771,0.82078
237.93664,0.80304
237.69557,0.78573
237.45450,0.77257
237.21343,0.76438
236.97236,0.75738
236.73129,0.74791
236.49022,0.73615
236.24915,0.72478
236.00807,0.71628
235.76700,0.71116
235.52593,0.70738
235.28486,0.70223
235.04379,0.69539
234.80272,0.68874
234.56165,0.68363
234.32058,0.67998
234.07951,0.67721
233.83844,0.67473
233.59737,0.67230
233.35630,0.67029
233.11523,0.66870
232.87416,0.66670
232.63309,0.66404
232.39202,0.66179
232.15095,0.66065
231.90988,0.65999
231.66880,0.65913
231.42773,0.65799
231.18666,0.65610
230.94559,0.65267
230.70452,0.64883
230.46345,0.64737
230.22238,0.64882
229.98131,0.65017
229.74024,0.64894
229.49917,0.64630
229.25810,0.64409
229.01703,0.64184
228.77596,0.63941
228.53489,0.63884
228.29382,0.64152
228.05275,0.64602
227.81168,0.65015
227.57061,0.65314
227.32953,0.65516
227.08846,0.65600
226.84739,0.65505
226.60632,0.65247
226.36525,0.64979
226.12418,0.64868
225.88311,0.64961
225.64204,0.65267
225.40097,0.65763
225.15990,0.66270
224.91883,0.66592
224.67776,0.66747
224.43669,0.66803
224.19562,0.66655
223.95455,0.66301
223.71348,0.66083
223.47241,0.66350
223.23134,0.67066
222.99026,0.67910
222.74919,0.68613
222.50812,0.69068
222.26705,0.69329
222.02598,0.69553
221.78491,0.69851
221.54384,0.70202
221.30277,0.70566
221.06170,0.70994
220.82063,0.71567
220.57956,0.72306
220.33849,0.73239
220.09742,0.74526
219.85635,0.76303
219.61528,0.78291
219.37421,0.79834
219.13314,0.80622
218.89207,0.81057
218.65099,0.81554
218.40992,0.82002
218.16885,0.82249
217.92778,0.82612
217.68671,0.83477
217.44564,0.84738
217.20457,0.85971
216.96350,0.86967
216.72243,0.87908
216.48136,0.89115
216.24029,0.90673
215.99922,0.92348
215.75815,0.93946
215.51708,0.95495
215.27601,0.96920
215.03494,0.97940
214.79387,0.98526
214.55280,0.99069
214.31172,0.99891
214.07065,1.00885
213.82958,1.01678
213.58851,1.02052
213.34744,1.02268
213.10637,1.02832
212.86530,1.03786
212.62423,1.04503
212.38316,1.04436
212.14209,1.03931
211.90102,1.03862
211.65995,1.04678
211.41888,1.06129
211.17781,1.07622
210.93674,1.08720
210.69567,1.09214
210.45460,1.08954
210.21353,1.08166
209.97245,1.07684
209.73138,1.08289
209.49031,1.09761
209.24924,1.10995
209.00817,1.11054
208.76710,1.09800
208.52603,1.07770
208.28496,1.05752
208.04389,1.04314
207.80282,1.03546
207.56175,1.03164
207.32068,1.02792
207.07961,1.02239
206.83854,1.01573
206.59747,1.01016
206.35640,1.00732
206.11533,1.00565
205.87426,1.00071
205.63318,0.99016
205.39211,0.97711
205.15104,0.96603
204.90997,0.95785
204.66890,0.95041
204.42783,0.94128
204.18676,0.92977
203.94569,0.91678
203.70462,0.90328
203.46355,0.89094
203.22248,0.88222
202.98141,0.87650
202.74034,0.86794
202.49927,0.85199
202.25820,0.83266
202.01713,0.81729
201.77606,0.80738
201.53499,0.79873
201.29391,0.78770
201.05284,0.77521
200.81177,0.76424
200.57070,0.75492
200.32963,0.74371
200.08856,0.72793
199.84749,0.70974
199.60642,0.69450
199.36535,0.68530
199.12428,0.67983
198.88321,0.67289
198.64214,0.66221
198.40107,0.65066
198.16000,0.64176
197.91893,0.63495
197.67786,0.62717
197.43679,0.61749
197.19572,0.60790
196.95464,0.60085
196.71357,0.59742
196.47250,0.59573
196.23143,0.59106
195.99036,0.58038
195.74929,0.56659
195.50822,0.55535
195.26715,0.54892
195.02608,0.54571
194.78501,0.54390
194.54394,0.54278
194.30287,0.54137
194.06180,0.53847
193.82073,0.53397
193.57966,0.52863
193.33859,0.52295
193.09752,0.51716
192.85645,0.51164
192.61537,0.50699
192.37430,0.50375
192.13323,0.50185
191.89216,0.50011
191.65109,0.49693
191.41002,0.49206
191.16895,0.48687
190.92788,0.48255
190.68681,0.47893
190.44574,0.47517
190.20467,0.47106
189.96360,0.46718
189.72253,0.46411
189.48146,0.46235
189.24039,0.46226
188.99932,0.46345
188.75825,0.46510
188.51718,0.46709
188.27610,0.46934
188.03503,0.47047
187.79396,0.46898
187.55289,0.46544
187.31182,0.46183
187.07075,0.45932
186.82968,0.45793
186.58861,0.45720
186.34754,0.45631
186.10647,0.45531
185.86540,0.45577
185.62433,0.45855
185.38326,0.46204
185.14219,0.46419
184.90112,0.46510
184.66005,0.46635
184.41898,0.46830
184.17791,0.46940
183.93683,0.46828
183.69576,0.46615
183.45469,0.46617
183.21362,0.47000
182.97255,0.47556
182.73148,0.47866
182.49041,0.47743
182.24934,0.47430
182.00827,0.47317
181.76720,0.47565
181.52613,0.48055
181.28506,0.48585
181.04399,0.48997
180.80292,0.49170
180.56185,0.49115
180.32078,0.49036
180.07971,0.49160
179.83864,0.49523
179.59756,0.49986
179.35649,0.50446
179.11542,0.50927
178.87435,0.51483
178.63328,0.52140
178.39221,0.52929
178.15114,0.53853
177.91007,0.54859
177.66900,0.55932
177.42793,0.57106
177.18686,0.58307
176.94579,0.59367
176.70472,0.60324
176.46365,0.61455
176.22258,0.62917
175.98151,0.64622
175.74044,0.66467
175.49937,0.68443
175.25829,0.70471
175.01722,0.72376
174.77615,0.74074
174.53508,0.75671
174.29401,0.77386
174.05294,0.79378
173.81187,0.81516
173.57080,0.83349
173.32973,0.84540
173.08866,0.85191
172.84759,0.85671
172.60652,0.86334
172.36545,0.87273
172.12438,0.88170
171.88331,0.88519
171.64224,0.88226
171.40117,0.87723
171.16010,0.87326
170.91902,0.86873
170.67795,0.86082
170.43688,0.84987
170.19581,0.84009
169.95474,0.83623
169.71367,0.83849
169.47260,0.84200
169.23153,0.84192
168.99046,0.83764
168.74939,0.83103
168.50832,0.82298
168.26725,0.81374
168.02618,0.80522
167.78511,0.80082
167.54404,0.80205
167.30297,0.80620
167.06190,0.80879
166.82083,0.80839
166.57975,0.80821
166.33868,0.81333
166.09761,0.82586
165.85654,0.84122
165.61547,0.85128
165.37440,0.85353
165.13333,0.85384
164.89226,0.85883
164.65119,0.86971
164.41012,0.88400
164.16905,0.89942
163.92798,0.91421
163.68691,0.92553
163.44584,0.93071
163.20477,0.93126
162.96370,0.93296
162.72263,0.94053
162.48156,0.95336
162.24048,0.96494
161.99941,0.96823
161.75834,0.96382
161.51727,0.95842
161.27620,0.95747
161.03513,0.96276
160.79406,0.97193
160.55299,0.97827
160.31192,0.97636
160.07085,0.97018
159.82978,0.96841
159.58871,0.97035
159.34764,0.96500
159.10657,0.94627
158.86550,0.92320
158.62443,0.91091
158.38336,0.91435
158.14229,0.92332
157.90121,0.92406
157.66014,0.91470
157.41907,0.90411
157.17800,0.89855
156.93693,0.89678
156.69586,0.89522
156.45479,0.89283
156.21372,0.89102
155.97265,0.89037
155.73158,0.88883
155.49051,0.88432
155.24944,0.87795
155.00837,0.87107
154.76730,0.86083
154.52623,0.84399
154.28516,0.82393
154.04409,0.80759
153.80302,0.79638
153.56194,0.78586
153.32087,0.77284
153.07980,0.75766
152.83873,0.74071
152.59766,0.72173
152.35659,0.70227
152.11552,0.68526
151.87445,0.67142
151.63338,0.65846
151.39231,0.64353
151.15124,0.62586
150.91017,0.60799
150.66910,0.59357
150.42803,0.58344
150.18696,0.57510
149.94589,0.56612
149.70482,0.55590
149.46375,0.54431
149.22267,0.53157
148.98160,0.51925
148.74053,0.50929
148.49946,0.50207
148.25839,0.49665
148.01732,0.49223
147.77625,0.48873
147.53518,0.48620
147.29411,0.48440
147.05304,0.48302
146.81197,0.48223
146.57090,0.48256
146.32983,0.48408
146.08876,0.48597
145.84769,0.48777
145.60662,0.49078
145.36555,0.49703
145.12448,0.50678
144.88340,0.51759
144.64233,0.52578
144.40126,0.52875
144.16019,0.52704
143.91912,0.52374
143.67805,0.52121
143.43698,0.51914
143.19591,0.51570
142.95484,0.50943
142.71377,0.50030
142.47270,0.49015
142.23163,0.48162
141.99056,0.47579
141.74949,0.47148
141.50842,0.46680
141.26735,0.46090
141.02628,0.45445
140.78521,0.44880
140.54413,0.44489
140.30306,0.44317
140.06199,0.44386
139.82092,0.44610
139.57985,0.44838
139.33878,0.45115
139.09771,0.45672
138.85664,0.46528
138.61557,0.47392
138.37450,0.48111
138.13343,0.48908
137.89236,0.50046
137.65129,0.51524
137.41022,0.53162
137.16915,0.54785
136.92808,0.56261
136.68701,0.57572
136.44594,0.58968
136.20486,0.60858
135.96379,0.63382
135.72272,0.66192
135.48165,0.68792
135.24058,0.71037
134.99951,0.73153
134.75844,0.75440
134.51737,0.78112
134.27630,0.81183
134.03523,0.84249
133.79416,0.86658
133.55309,0.88303
133.31202,0.89922
133.07095,0.92196
132.82988,0.94791
132.58881,0.96696
132.34774,0.97424
132.10667,0.97201
131.86559,0.96395
131.62452,0.95387
131.38345,0.94451
131.14238,0.93353
130.90131,0.91485
130.66024,0.88731
130.41917,0.85799
130.17810,0.83434
129.93703,0.81623
129.69596,0.79787
129.45489,0.77513
129.21382,0.74805
128.97275,0.71835
128.73168,0.68775
128.49061,0.65739
128.24954,0.62725
128.00847,0.59798
127.76740,0.57246
127.52632,0.55208
127.28525,0.53414
127.04418,0.51624
126.80311,0.49976
126.56204,0.48580
126.32097,0.47192
126.07990,0.45565
125.83883,0.43785
125.59776,0.42113
125.35669,0.40716
125.11562,0.39627
124.87455,0.38818
124.63348,0.38208
124.39241,0.37678
124.15134,0.37133
123.91027,0.36546
123.66920,0.35951
123.42812,0.35417
123.18705,0.35025
122.94598,0.34783
122.70491,0.34616
122.46384,0.34484
122.22277,0.34448
121.98170,0.34533
121.74063,0.34644
121.49956,0.34738
121.25849,0.34997
121.01742,0.35641
120.77635,0.36662
120.53528,0.37861
120.29421,0.39105
120.05314,0.40425
119.81207,0.41919
119.57100,0.43676
119.32993,0.45662
119.08885,0.47650
118.84778,0.49420
118.60671,0.51080
118.36564,0.52971
118.12457,0.55249
117.88350,0.57751
117.64243,0.60248
117.40136,0.62589
117.16029,0.64557
116.91922,0.65791
116.67815,0.66004
116.43708,0.65333
116.19601,0.64267
115.95494,0.63141
115.71387,0.61961
115.47280,0.60709
115.23173,0.59492
114.99066,0.58392
114.74958,0.57418
114.50851,0.56519
114.26744,0.55583
114.02637,0.54607
113.78530,0.53797
113.54423,0.53399
113.30316,0.53529
113.06209,0.54155
112.82102,0.55033
112.57995,0.55735
112.33888,0.55957
112.09781,0.55800
111.85674,0.55668
111.61567,0.55906
111.37460,0.56598
111.13353,0.57579
110.89246,0.58564
110.65139,0.59240
110.41031,0.59364
110.16924,0.58925
109.92817,0.58112
109.68710,0.57160
109.44603,0.56174
109.20496,0.55049
108.96389,0.53584
108.72282,0.51661
108.48175,0.49400
108.24068,0.47139
107.99961,0.45204
107.75854,0.43633
107.51747,0.42178
107.27640,0.40622
107.03533,0.39021
106.79426,0.37639
106.55319,0.36650
106.31212,0.35884
106.07104,0.34931
105.82997,0.33599
105.58890,0.32168
105.34783,0.31084
105.10676,0.30457
104.86569,0.29981
104.62462,0.29363
104.38355,0.28612
104.14248,0.27885
103.90141,0.27225
103.66034,0.26576
103.41927,0.25896
103.17820,0.25157
102.93713,0.24367
102.69606,0.23632
102.45499,0.23102
102.21392,0.22835
101.97285,0.22780
101.73177,0.22797
101.49070,0.22716
101.24963,0.22442
101.00856,0.22034
100.76749,0.21611
100.52642,0.21249
100.28535,0.20970
100.04428,0.20761
99.80321,0.20570
99.56214,0.20336
99.32107,0.20050
99.08000,0.19790
98.83893,0.19671
98.59786,0.19730
98.35679,0.19878
98.11572,0.19991
97.87465,0.20049
97.63358,0.20171
97.39250,0.20449
97.15143,0.20762
96.91036,0.20881
96.66929,0.20800
96.42822,0.20823
96.18715,0.21263
95.94608,0.22175
95.70501,0.23360
95.46394,0.24515
95.22287,0.25407
94.98180,0.26006
94.74073,0.26464
94.49966,0.26896
94.25859,0.27251
94.01752,0.27418
93.77645,0.27383
93.53538,0.27236
93.29431,0.27096
93.05323,0.27039
92.81216,0.27099
92.57109,0.27295
92.33002,0.27587
92.08895,0.27842
91.84788,0.28008
91.60681,0.28323
91.36574,0.29133
91.12467,0.30517
90.88360,0.32317
90.64253,0.34486
90.40146,0.37129
90.16039,0.40200
89.91932,0.43465
89.67825,0.46798
89.43718,0.50281
89.19611,0.53893
88.95504,0.57137
88.71396,0.59112
88.47289,0.59177
88.23182,0.57409
87.99075,0.54294
87.74968,0.50403
87.50861,0.46334
87.26754,0.42551
87.02647,0.39251
86.78540,0.36431
86.54433,0.33980
86.30326,0.31707
86.06219,0.29460
85.82112,0.27309
85.58005,0.25444
85.33898,0.23864
85.09791,0.22359
84.85684,0.20813
84.61577,0.19398
84.37469,0.18389
84.13362,0.17847
83.89255,0.17503
83.65148,0.17042
83.41041,0.16446
83.16934,0.15898
82.92827,0.15446
82.68720,0.15041
82.44613,0.14740
82.20506,0.14619
81.96399,0.14548
81.72292,0.14340
81.48185,0.14041
81.24078,0.13879
80.99971,0.13947
80.75864,0.14040
80.51757,0.13894
80.27650,0.13513
80.03542,0.13144
79.79435,0.12954
79.55328,0.12866
79.31221,0.12711
79.07114,0.12427
78.83007,0.12115
78.58900,0.11935
78.34793,0.11896
78.10686,0.11825
77.86579,0.11567
77.62472,0.11125
77.38365,0.10639
77.14258,0.10360
76.90151,0.10503
76.66044,0.10967
76.41937,0.11321
76.17830,0.11260
75.93723,0.10938
75.69615,0.10688
75.45508,0.10620
75.21401,0.10627
74.97294,0.10645
74.73187,0.10725
74.49080,0.10881
74.24973,0.10978
74.00866,0.10867
73.76759,0.10564
73.52652,0.10238
73.28545,0.10043
73.04438,0.10035
72.80331,0.10196
72.56224,0.10451
72.32117,0.10697
72.08010,0.10917
71.83903,0.11211
71.59796,0.11658
71.35688,0.12187
71.11581,0.12598
70.87474,0.12739
70.63367,0.12709
70.39260,0.12852
70.15153,0.13520
69.91046,0.14814
69.66939,0.16500
69.42832,0.18065
69.18725,0.18934
68.94618,0.18833
68.70511,0.17970
68.46404,0.16794
68.22297,0.15606
67.98190,0.14400
67.74083,0.13077
67.49976,0.11772
67.25869,0.10885
67.01761,0.10690
66.77654,0.10969
66.53547,0.11179
66.29440,0.10939
66.05333,0.10286
65.81226,0.09517
65.57119,0.08931
65.33012,0.08717
65.08905,0.08951
64.84798,0.09600
64.60691,0.10527
64.36584,0.11513
64.12477,0.12327
63.88370,0.12834
63.64263,0.12990
63.40156,0.12757
63.16049,0.12207
62.91942,0.11625
62.67834,0.11302
62.43727,0.11218
62.19620,0.11112
61.95513,0.10822
61.71406,0.10365
61.47299,0.09754
61.23192,0.08956
60.99085,0.08070
60.74978,0.07376
60.50871,0.07100
60.26764,0.07197
60.02657,0.07463
59.78550,0.07811
59.54443,0.08247
59.30336,0.08621
59.06229,0.08666
58.82122,0.08391
58.58015,0.08150
58.33907,0.08195
58.09800,0.08405
57.85693,0.08580
57.61586,0.08675
57.37479,0.08667
57.13372,0.08491
56.89265,0.08168
56.65158,0.07793
56.41051,0.07471
56.16944,0.07311
55.92837,0.07367
55.68730,0.07548
55.44623,0.07675
55.20516,0.07638
54.96409,0.07518
54.72302,0.07580
54.48195,0.07999
54.24088,0.08563
53.99980,0.08897
53.75873,0.08908
53.51766,0.08774
53.27659,0.08670
53.03552,0.08596
52.79445,0.08385
52.55338,0.08014
52.31231,0.07831
52.07124,0.08095
51.83017,0.08455
51.58910,0.08445
51.34803,0.08180
51.10696,0.08065
50.86589,0.08163
50.62482,0.08218
50.38375,0.08066
50.14268,0.07749
49.90161,0.07339
49.66053,0.06796
49.41946,0.06081
49.17839,0.05419
48.93732,0.05313
48.69625,0.06016
48.45518,0.07043
48.21411,0.07567
47.97304,0.07331
47.73197,0.06899
47.49090,0.06853
47.24983,0.06965
47.00876,0.06663
46.76769,0.06053
46.52662,0.05792
46.28555,0.06090
46.04448,0.06466
45.80341,0.06513
45.56234,0.06363
45.32126,0.06287
45.08019,0.06343
44.83912,0.06499
44.59805,0.06610
44.35698,0.06283
44.11591,0.05359
43.87484,0.04459
43.63377,0.04442
43.39270,0.05191
43.15163,0.05637
42.91056,0.05378
42.66949,0.05165
42.42842,0.05531
42.18735,0.05966
41.94628,0.05850
41.70521,0.05345
41.46414,0.04911
41.22307,0.04813
40.98199,0.05244
40.74092,0.06173
40.49985,0.07010
40.25878,0.07009
40.01771,0.06147
39.77664,0.05371
39.53557,0.05788
39.29450,0.07491
39.05343,0.09244
38.81236,0.09717
38.57129,0.09099
38.33022,0.08751
38.08915,0.09317
37.84808,0.10016
37.60701,0.09817
37.36594,0.08733
37.12487,0.07879
36.88380,0.08546
36.64272,0.10776
36.40165,0.12984
36.16058,0.13358
35.91951,0.11682
35.67844,0.09551
35.43737,0.08733
35.19630,0.09664
34.95523,0.11523
34.71416,0.13236
34.47309,0.14067
34.23202,0.13711
33.99095,0.12359
33.74988,0.10723
33.50881,0.09662
33.26774,0.09670
33.02667,0.10661
32.78560,0.12259
32.54453,0.14005
32.30345,0.15539
32.06238,0.16056
31.82131,0.15152
31.58024,0.14344
31.33917,0.15498
31.09810,0.18149
30.85703,0.20541
30.61596,0.22708
30.37489,0.25681
30.13382,0.28026
29.89275,0.27536
29.65168,0.25357
29.41061,0.24904
29.16954,0.27232
28.92847,0.30153
28.68740,0.31689
28.44633,0.31997
28.20526,0.31894
27.96418,0.30648
27.72311,0.27633
27.48204,0.24372
27.24097,0.22477
26.99990,0.22749
26.75883,0.25072
26.51776,0.28008
26.27669,0.29825
26.03562,0.30263
25.79455,0.30321
25.55348,0.31110
25.31241,0.33229
25.07134,0.35370
24.83027,0.35913
24.58920,0.35485
24.34813,0.34082
24.10706,0.31133
23.86599,0.28290
23.62491,0.27301
23.38384,0.29020
23.14277,0.33677
22.90170,0.40278
22.66063,0.45973
22.41956,0.46542
22.17849,0.42885
21.93742,0.41083
21.69635,0.45606
21.45528,0.54834
21.21421,0.62254
20.97314,0.63443
20.73207,0.57578
20.49100,0.49322
20.24993,0.45088
20.00886,0.47263
19.76779,0.54092
19.52672,0.59863
19.28564,0.61733
19.04457,0.64253
18.80350,0.75003
18.56243,0.98548
18.32136,1.06393
18.08029,0.86113
17.83922,0.68135
17.59815,0.57036
17.35708,0.53423
17.11601,0.56609
16.87494,0.58563
16.63387,0.60640
16.39280,0.64959
16.15173,0.70498
15.91066,0.82134
15.66959,0.87702
15.42852,0.73636
15.18745,0.61571
14.94637,0.64987
14.70530,0.84668
14.46423,0.94555
14.22316,1.07301
13.98209,0.93209
13.74102,0.83371
13.49995,0.78153
13.25888,0.62194
13.01781,0.53051
12.77674,0.54806
12.53567,0.57700
12.29460,0.57343
12.05353,0.58439
11.81246,0.62473
11.57139,0.66085
11.33032,0.64510
11.08925,0.66354
10.84818,0.74384
10.60710,0.72862
10.36603,0.60111
10.12496,0.51794
9.88389,0.48908
9.64282,0.51106
9.40175,0.56353
9.16068,0.58941
8.91961,0.59700
8.67854,0.51979
8.43747,0.51286
8.19640,0.63625
7.95533,0.86352
7.71426,0.72154
7.47319,0.44146
7.23212,0.25406
6.99105,0.14225
6.74998,0.12081
6.50891,0.18491
6.26783,0.28428
6.02676,0.31235
5.78569,0.38930
5.54462,0.55703
5.30355,0.59379
5.06248,0.55293
4.82141,0.55720
4.58034,0.62146
4.33927,0.69421
4.09820,0.59889
3.85713,0.40249
3.61606,0.40132
3.37499,0.42976
3.13392,0.46429
2.89285,0.47370
2.65178,0.43552
2.41071,0.49035
2.16964,0.66262
1.92856,0.68890
1.68749,0.70908
1.44642,0.88690
1.20535,0.95476
0.96428,0.67375
0.72321,0.49181
0.48214,0.37081
0.24107,0.31332
-0.00000,0.25696
