399.69498,1.55049
399.45391,1.54573
399.21284,1.53519
398.97177,1.51923
398.73070,1.50522
398.48963,1.50598
398.24856,1.52679
398.00749,1.55818
397.76642,1.58251
397.52535,1.58567
397.28428,1.56602
397.04321,1.53573
396.80214,1.51195
396.56107,1.50512
396.32000,1.51470
396.07892,1.53204
395.83785,1.54598
395.59678,1.54904
395.35571,1.54132
395.11464,1.53061
394.87357,1.52607
394.63250,1.53036
394.39143,1.53850
394.15036,1.54575
393.90929,1.55250
393.66822,1.55740
393.42715,1.55431
393.18608,1.54217
392.94501,1.53187
392.70394,1.53273
392.46287,1.54088
392.22180,1.54543
391.98073,1.53887
391.73965,1.52269
391.49858,1.50371
391.25751,1.49009
391.01644,1.48927
390.77537,1.50127
390.53430,1.51798
390.29323,1.53162
390.05216,1.54020
389.81109,1.54399
389.57002,1.54155
389.32895,1.53419
389.08788,1.52860
388.84681,1.53025
388.60574,1.53709
388.36467,1.53908
388.12360,1.52759
387.88253,1.50755
387.64146,1.48976
387.40038,1.47645
387.15931,1.46371
386.91824,1.44997
386.67717,1.43913
386.43610,1.43189
386.19503,1.42491
385.95396,1.41810
385.71289,1.41367
385.47182,1.41179
385.23075,1.41091
384.98968,1.41430
384.74861,1.42580
384.50754,1.43382
384.26647,1.41822
384.02540,1.38158
383.78433,1.34937
383.54326,1.33912
383.30219,1.34541
383.06111,1.34939
382.82004,1.34117
382.57897,1.32987
382.33790,1.32483
382.09683,1.32290
381.85576,1.31841
381.61469,1.31045
381.37362,1.30082
381.13255,1.29102
380.89148,1.28070
380.65041,1.27407
380.40934,1.28207
380.16827,1.30629
379.92720,1.32758
379.68613,1.32576
379.44506,1.30723
379.20399,1.29188
378.96292,1.28997
378.72184,1.29872
378.48077,1.31020
378.23970,1.32149
377.99863,1.33336
377.75756,1.34596
377.51649,1.35923
377.27542,1.37175
377.03435,1.38043
376.79328,1.38394
376.55221,1.38497
376.31114,1.38794
376.07007,1.39440
375.82900,1.40038
375.58793,1.39960
375.34686,1.39614
375.10579,1.40645
374.86472,1.43654
374.62365,1.46375
374.38257,1.45858
374.14150,1.42622
373.90043,1.39568
373.65936,1.38454
373.41829,1.39300
373.17722,1.41135
372.93615,1.42418
372.69508,1.41878
372.45401,1.39679
372.21294,1.37140
371.97187,1.35502
371.73080,1.35164
371.48973,1.35648
371.24866,1.36024
371.00759,1.35622
370.76652,1.34702
370.52545,1.34150
370.28437,1.34406
370.04330,1.34981
369.80223,1.34894
369.56116,1.33618
369.32009,1.31674
369.07902,1.29932
368.83795,1.28699
368.59688,1.27873
368.35581,1.27364
368.11474,1.26960
367.87367,1.26356
367.63260,1.25665
367.39153,1.25350
367.15046,1.25546
366.90939,1.25920
366.66832,1.26121
366.42725,1.25984
366.18618,1.25546
365.94510,1.25177
365.70403,1.25349
365.46296,1.25971
365.22189,1.26335
364.98082,1.26005
364.73975,1.25368
364.49868,1.25029
364.25761,1.25100
364.01654,1.25249
363.77547,1.25047
363.53440,1.24287
363.29333,1.23209
363.05226,1.22368
362.81119,1.22155
362.57012,1.22379
362.32905,1.22509
362.08798,1.22341
361.84691,1.22197
361.60583,1.22309
361.36476,1.22269
361.12369,1.21585
360.88262,1.20641
360.64155,1.20313
360.40048,1.20777
360.15941,1.21447
359.91834,1.21890
359.67727,1.21981
359.43620,1.21403
359.19513,1.20139
358.95406,1.18970
358.71299,1.18534
358.47192,1.18607
358.23085,1.18755
357.98978,1.18999
357.74871,1.19525
357.50764,1.20203
357.26656,1.20681
357.02549,1.20723
356.78442,1.20331
356.54335,1.19707
356.30228,1.19133
356.06121,1.18954
355.82014,1.19531
355.57907,1.20841
355.33800,1.22243
355.09693,1.23062
354.85586,1.23259
354.61479,1.23213
354.37372,1.23134
354.13265,1.23015
353.89158,1.22878
353.65051,1.22731
353.40944,1.22401
353.16837,1.21596
352.92729,1.20352
352.68622,1.19307
352.44515,1.19092
352.20408,1.19661
351.96301,1.20503
351.72194,1.21280
351.48087,1.21875
351.23980,1.22191
350.99873,1.22351
350.75766,1.22658
350.51659,1.23087
350.27552,1.23162
350.03445,1.22595
349.79338,1.21903
349.55231,1.21915
349.31124,1.22733
349.07017,1.23514
348.82910,1.23458
348.58802,1.22885
348.34695,1.22626
348.10588,1.22897
347.86481,1.23350
347.62374,1.23748
347.38267,1.24164
347.14160,1.24724
346.90053,1.25410
346.65946,1.26085
346.41839,1.26563
346.17732,1.26679
345.93625,1.26405
345.69518,1.26069
345.45411,1.26272
345.21304,1.27320
344.97197,1.28752
344.73090,1.29551
344.48983,1.29313
344.24875,1.28891
344.00768,1.29204
343.76661,1.30197
343.52554,1.31196
343.28447,1.31738
343.04340,1.31871
342.80233,1.31872
342.56126,1.31877
342.32019,1.31767
342.07912,1.31407
341.83805,1.30965
341.59698,1.30902
341.35591,1.31623
341.11484,1.33121
340.87377,1.34908
340.63270,1.36379
340.39163,1.37129
340.15056,1.37118
339.90948,1.36888
339.66841,1.37128
339.42734,1.38005
339.18627,1.39084
338.94520,1.40102
338.70413,1.41251
338.46306,1.42405
338.22199,1.43210
337.98092,1.44001
337.73985,1.45326
337.49878,1.46748
337.25771,1.47191
337.01664,1.46277
336.77557,1.44538
336.53450,1.42781
336.29343,1.41691
336.05236,1.41494
335.81129,1.41762
335.57021,1.41810
335.32914,1.41284
335.08807,1.40434
334.84700,1.39943
334.60593,1.40328
334.36486,1.41342
334.12379,1.42018
333.88272,1.41640
333.64165,1.40570
333.40058,1.39595
333.15951,1.38963
332.91844,1.38601
332.67737,1.38622
332.43630,1.39082
332.19523,1.39415
331.95416,1.38944
331.71309,1.37914
331.47202,1.36946
331.23094,1.35877
330.98987,1.34201
330.74880,1.32232
330.50773,1.31045
330.26666,1.31135
330.02559,1.31785
329.78452,1.32001
329.54345,1.31838
329.30238,1.31945
329.06131,1.32018
328.82024,1.31232
328.57917,1.29803
328.33810,1.28728
328.09703,1.28449
327.85596,1.28658
327.61489,1.28928
327.37382,1.29015
327.13275,1.28959
326.89167,1.29198
326.65060,1.30046
326.40953,1.31086
326.16846,1.31762
325.92739,1.32009
325.68632,1.31922
325.44525,1.31634
325.20418,1.31474
324.96311,1.31667
324.72204,1.31966
324.48097,1.31816
324.23990,1.31035
323.99883,1.30354
323.75776,1.30725
323.51669,1.32041
323.27562,1.33041
323.03455,1.32688
322.79348,1.31405
322.55240,1.30590
322.31133,1.31072
322.07026,1.32356
321.82919,1.33415
321.58812,1.33932
321.34705,1.34290
321.10598,1.34636
320.86491,1.34857
320.62384,1.35095
320.38277,1.35623
320.14170,1.36178
319.90063,1.35885
319.65956,1.34411
319.41849,1.32352
319.17742,1.30464
318.93635,1.29394
318.69528,1.29708
318.45421,1.31469
318.21313,1.33851
317.97206,1.35544
317.73099,1.35810
317.48992,1.34998
317.24885,1.33937
317.00778,1.33241
316.76671,1.33215
316.52564,1.33861
316.28457,1.34922
316.04350,1.35995
315.80243,1.36871
315.56136,1.37908
315.32029,1.39437
315.07922,1.41170
314.83815,1.42454
314.59708,1.42603
314.35601,1.41358
314.11494,1.39299
313.87386,1.37370
313.63279,1.36278
313.39172,1.36527
313.15065,1.38329
312.90958,1.41057
312.66851,1.43164
312.42744,1.43451
312.18637,1.42410
311.94530,1.41489
311.70423,1.41155
311.46316,1.40614
311.22209,1.39157
310.98102,1.37094
310.73995,1.35505
310.49888,1.35481
310.25781,1.37092
310.01674,1.38838
309.77567,1.38950
309.53459,1.37855
309.29352,1.37742
309.05245,1.39698
308.81138,1.42581
308.57031,1.44671
308.32924,1.45787
308.08817,1.46952
307.84710,1.48096
307.60603,1.47653
307.36496,1.45418
307.12389,1.43497
306.88282,1.43371
306.64175,1.44315
306.40068,1.44955
306.15961,1.44903
305.91854,1.44369
305.67747,1.43608
305.43640,1.43141
305.19532,1.43240
304.95425,1.43546
304.71318,1.43789
304.47211,1.43955
304.23104,1.43667
303.98997,1.42392
303.74890,1.40341
303.50783,1.38383
303.26676,1.37170
303.02569,1.36835
302.78462,1.36924
302.54355,1.36752
302.30248,1.36187
302.06141,1.35552
301.82034,1.34950
301.57927,1.34300
301.33820,1.33810
301.09713,1.33812
300.85605,1.34031
300.61498,1.33598
300.37391,1.32155
300.13284,1.30420
299.89177,1.29282
299.65070,1.28918
299.40963,1.28983
299.16856,1.29132
298.92749,1.29151
298.68642,1.28975
298.44535,1.28719
298.20428,1.28303
297.96321,1.27357
297.72214,1.25906
297.48107,1.24582
297.24000,1.23844
296.99893,1.23470
296.75786,1.23005
296.51678,1.22307
296.27571,1.21579
296.03464,1.21171
295.79357,1.21266
295.55250,1.21518
295.31143,1.21286
295.07036,1.20469
294.82929,1.19653
294.58822,1.19303
294.34715,1.19349
294.10608,1.19458
293.86501,1.19283
293.62394,1.18558
293.38287,1.17308
293.14180,1.15983
292.90073,1.15214
292.65966,1.15227
292.41859,1.15538
292.17751,1.15428
291.93644,1.14752
291.69537,1.14076
291.45430,1.13953
291.21323,1.14344
290.97216,1.14775
290.73109,1.14831
290.49002,1.14394
290.24895,1.13603
290.00788,1.12844
289.76681,1.12535
289.52574,1.12710
289.28467,1.12981
289.04360,1.12954
288.80253,1.12590
288.56146,1.12202
288.32039,1.12048
288.07932,1.11992
287.83824,1.11718
287.59717,1.11238
287.35610,1.10932
287.11503,1.11064
286.87396,1.11463
286.63289,1.11724
286.39182,1.11626
286.15075,1.11311
285.90968,1.11013
285.66861,1.10736
285.42754,1.10351
285.18647,1.09926
284.94540,1.09683
284.70433,1.09684
284.46326,1.09785
284.22219,1.09795
283.98112,1.09573
283.74005,1.09107
283.49897,1.08587
283.25790,1.08359
283.01683,1.08693
282.77576,1.09486
282.53469,1.10251
282.29362,1.10565
282.05255,1.10480
281.81148,1.10320
281.57041,1.10252
281.32934,1.10242
281.08827,1.10167
280.84720,1.09885
280.60613,1.09431
280.36506,1.09119
280.12399,1.09195
279.88292,1.09497
279.64185,1.09722
279.40078,1.09876
279.15970,1.10178
278.91863,1.10601
278.67756,1.10781
278.43649,1.10474
278.19542,1.09837
277.95435,1.09249
277.71328,1.09032
277.47221,1.09342
277.23114,1.10097
276.99007,1.10902
276.74900,1.11247
276.50793,1.10971
276.26686,1.10392
276.02579,1.09897
275.78472,1.09687
275.54365,1.09843
275.30258,1.10239
275.06151,1.10495
274.82043,1.10414
274.57936,1.10351
274.33829,1.10801
274.09722,1.11762
273.85615,1.12725
273.61508,1.13184
273.37401,1.13144
273.13294,1.13083
272.89187,1.13390
272.65080,1.14008
272.40973,1.14631
272.16866,1.15049
271.92759,1.15188
271.68652,1.14934
271.44545,1.14249
271.20438,1.13502
270.96331,1.13338
270.72224,1.14072
270.48116,1.15354
270.24009,1.16560
269.99902,1.17389
269.75795,1.17925
269.51688,1.18336
269.27581,1.18734
269.03474,1.19218
268.79367,1.19801
268.55260,1.20301
268.31153,1.20506
268.07046,1.20532
267.82939,1.20787
267.58832,1.21512
267.34725,1.22621
267.10618,1.23860
266.86511,1.24931
266.62404,1.25644
266.38297,1.26062
266.14189,1.26399
265.90082,1.26846
265.65975,1.27581
265.41868,1.28677
265.17761,1.29940
264.93654,1.31147
264.69547,1.32281
264.45440,1.33412
264.21333,1.34586
263.97226,1.35751
263.73119,1.36760
263.49012,1.37587
263.24905,1.38644
263.00798,1.40513
262.76691,1.43092
262.52584,1.45347
262.28477,1.46564
262.04370,1.47374
261.80262,1.48657
261.56155,1.50312
261.32048,1.51759
261.07941,1.53246
260.83834,1.55830
260.59727,1.59956
260.35620,1.64688
260.11513,1.68840
259.87406,1.72548
259.63299,1.76401
259.39192,1.79537
259.15085,1.80567
258.90978,1.80029
258.66871,1.79736
258.42764,1.80730
258.18657,1.82993
257.94550,1.85645
257.70443,1.87567
257.46335,1.87887
257.22228,1.86286
256.98121,1.84058
256.74014,1.82333
256.49907,1.80481
256.25800,1.77948
256.01693,1.75188
255.77586,1.72724
255.53479,1.70634
255.29372,1.69183
255.05265,1.68615
254.81158,1.68237
254.57051,1.67173
254.32944,1.65807
254.08837,1.65170
253.84730,1.65329
253.60623,1.65250
253.36516,1.63951
253.12408,1.61601
252.88301,1.59179
252.64194,1.57310
252.40087,1.56056
252.15980,1.55408
251.91873,1.55594
251.67766,1.56696
251.43659,1.58139
251.19552,1.59298
250.95445,1.60192
250.71338,1.60927
250.47231,1.61251
250.23124,1.60967
249.99017,1.60165
249.74910,1.59092
249.50803,1.58010
249.26696,1.56935
249.02589,1.55897
248.78481,1.55587
248.54374,1.56451
248.30267,1.57561
248.06160,1.57756
247.82053,1.57369
247.57946,1.57430
247.33839,1.57753
247.09732,1.57321
246.85625,1.56197
246.61518,1.55594
246.37411,1.56320
246.13304,1.58119
245.89197,1.60106
245.65090,1.61425
245.40983,1.61716
245.16876,1.61380
244.92769,1.61339
244.68661,1.62666
244.44554,1.66319
244.20447,1.72411
243.96340,1.79274
243.72233,1.84123
243.48126,1.86355
243.24019,1.88912
242.99912,1.94535
242.75805,2.03925
242.51698,2.11643
242.27591,1.95190
242.03484,1.78390
241.79377,1.66535
241.55270,1.57387
241.31163,1.49625
241.07056,1.42781
240.82949,1.37005
240.58842,1.32236
240.34734,1.28034
240.10627,1.24096
239.86520,1.20358
239.62413,1.16727
239.38306,1.13131
239.14199,1.09668
238.90092,1.06504
238.65985,1.03691
238.41878,1.01214
238.17771,0.99157
237.93664,0.97604
237.69557,0.96381
237.45450,0.95111
237.21343,0.93607
236.97236,0.92059
236.73129,0.90734
236.49022,0.89612
236.24915,0.88481
236.00807,0.87307
235.76700,0.86318
235.52593,0.85692
235.28486,0.85285
235.04379,0.84777
234.80272,0.84066
234.56165,0.83368
234.32058,0.82894
234.07951,0.82626
233.83844,0.82466
233.59737,0.82378
233.35630,0.82223
233.11523,0.81742
232.87416,0.80929
232.63309,0.80155
232.39202,0.79743
232.15095,0.79690
231.90988,0.79829
231.66880,0.80023
231.42773,0.80139
231.18666,0.80071
230.94559,0.79865
230.70452,0.79706
230.46345,0.79709
230.22238,0.79757
229.98131,0.79656
229.74024,0.79394
229.49917,0.79127
229.25810,0.78926
229.01703,0.78764
228.77596,0.78643
228.53489,0.78603
228.29382,0.78695
228.05275,0.78944
227.81168,0.79224
227.57061,0.79313
227.32953,0.79204
227.08846,0.79110
226.84739,0.79105
226.60632,0.79035
226.36525,0.78787
226.12418,0.78485
225.88311,0.78346
225.64204,0.78399
225.40097,0.78463
225.15990,0.78446
224.91883,0.78468
224.67776,0.78613
224.43669,0.78843
224.19562,0.79216
223.95455,0.79800
223.71348,0.80408
223.47241,0.80840
223.23134,0.81251
222.99026,0.81895
222.74919,0.82735
222.50812,0.83564
222.26705,0.84266
222.02598,0.84807
221.78491,0.85235
221.54384,0.85720
221.30277,0.86396
221.06170,0.87136
220.82063,0.87713
220.57956,0.88208
220.33849,0.89031
220.09742,0.90394
219.85635,0.92018
219.61528,0.93501
219.37421,0.94766
219.13314,0.95922
218.89207,0.96998
218.65099,0.98045
218.40992,0.99203
218.16885,1.00492
217.92778,1.01790
217.68671,1.03106
217.44564,1.04602
217.20457,1.06325
216.96350,1.08228
216.72243,1.10336
216.48136,1.12487
216.24029,1.14173
215.99922,1.15166
215.75815,1.15909
215.51708,1.16820
215.27601,1.17870
215.03494,1.19136
214.79387,1.20978
214.55280,1.23422
214.31172,1.25992
214.07065,1.28251
213.82958,1.30010
213.58851,1.31126
213.34744,1.31653
213.10637,1.32076
212.86530,1.32879
212.62423,1.33950
212.38316,1.34853
212.14209,1.35627
211.90102,1.36698
211.65995,1.38108
211.41888,1.39389
211.17781,1.40078
210.93674,1.40045
210.69567,1.39481
210.45460,1.38672
210.21353,1.37852
209.97245,1.37357
209.73138,1.37560
209.49031,1.38429
209.24924,1.39446
209.00817,1.40164
208.76710,1.40430
208.52603,1.39987
208.28496,1.38625
208.04389,1.36770
207.80282,1.35147
207.56175,1.33987
207.32068,1.33011
207.07961,1.32043
206.83854,1.31168
206.59747,1.30274
206.35640,1.29038
206.11533,1.27393
205.87426,1.25576
205.63318,1.23778
205.39211,1.22079
205.15104,1.20660
204.90997,1.19694
204.66890,1.18985
204.42783,1.18010
204.18676,1.16404
203.94569,1.14287
203.70462,1.12007
203.46355,1.09782
203.22248,1.07789
202.98141,1.06209
202.74034,1.04973
202.49927,1.03709
202.25820,1.02073
202.01713,0.99974
201.77606,0.97580
201.53499,0.95266
201.29391,0.93416
201.05284,0.92130
200.81177,0.91173
200.57070,0.90189
200.32963,0.88941
200.08856,0.87383
199.84749,0.85613
199.60642,0.83848
199.36535,0.82366
199.12428,0.81323
198.88321,0.80568
198.64214,0.79736
198.40107,0.78571
198.16000,0.77162
197.91893,0.75829
197.67786,0.74788
197.43679,0.73968
197.19572,0.73118
196.95464,0.72081
196.71357,0.70906
196.47250,0.69774
196.23143,0.68872
195.99036,0.68275
195.74929,0.67799
195.50822,0.67088
195.26715,0.66050
195.02608,0.65083
194.78501,0.64639
194.54394,0.64647
194.30287,0.64543
194.06180,0.63917
193.82073,0.62981
193.57966,0.62222
193.33859,0.61840
193.09752,0.61645
192.85645,0.61320
192.61537,0.60726
192.37430,0.60004
192.13323,0.59392
191.89216,0.59007
191.65109,0.58780
191.41002,0.58559
191.16895,0.58279
190.92788,0.57998
190.68681,0.57745
190.44574,0.57424
190.20467,0.56993
189.96360,0.56604
189.72253,0.56382
189.48146,0.56206
189.24039,0.55911
188.99932,0.55590
188.75825,0.55470
188.51718,0.55559
188.27610,0.55592
188.03503,0.55366
187.79396,0.54998
187.55289,0.54725
187.31182,0.54605
187.07075,0.54589
186.82968,0.54700
186.58861,0.54913
186.34754,0.55035
186.10647,0.54939
185.86540,0.54772
185.62433,0.54748
185.38326,0.54860
185.14219,0.54968
184.90112,0.55058
184.66005,0.55220
184.41898,0.55442
184.17791,0.55633
183.93683,0.55803
183.69576,0.56036
183.45469,0.56325
183.21362,0.56577
182.97255,0.56755
182.73148,0.56897
182.49041,0.57013
182.24934,0.57097
182.00827,0.57208
181.76720,0.57432
181.52613,0.57725
181.28506,0.57965
181.04399,0.58159
180.80292,0.58411
180.56185,0.58701
180.32078,0.58932
180.07971,0.59108
179.83864,0.59307
179.59756,0.59576
179.35649,0.59999
179.11542,0.60677
178.87435,0.61556
178.63328,0.62441
178.39221,0.63243
178.15114,0.64092
177.91007,0.65174
177.66900,0.66526
177.42793,0.68039
177.18686,0.69616
176.94579,0.71237
176.70472,0.72905
176.46365,0.74672
176.22258,0.76610
175.98151,0.78637
175.74044,0.80568
175.49937,0.82478
175.25829,0.84664
175.01722,0.87128
174.77615,0.89578
174.53508,0.91977
174.29401,0.94545
174.05294,0.97237
173.81187,0.99752
173.57080,1.01941
173.32973,1.03745
173.08866,1.05078
172.84759,1.06096
172.60652,1.07078
172.36545,1.07922
172.12438,1.08251
171.88331,1.08086
171.64224,1.07831
171.40117,1.07678
171.16010,1.07588
170.91902,1.07587
170.67795,1.07597
170.43688,1.07390
170.19581,1.06890
169.95474,1.06150
169.71367,1.05108
169.47260,1.03764
169.23153,1.02414
168.99046,1.01416
168.74939,1.00819
168.50832,1.00333
168.26725,0.99574
168.02618,0.98422
167.78511,0.97246
167.54404,0.96642
167.30297,0.96873
167.06190,0.97697
166.82083,0.98779
166.57975,1.00026
166.33868,1.01351
166.09761,1.02426
165.85654,1.03020
165.61547,1.03389
165.37440,1.03980
165.13333,1.04828
164.89226,1.05605
164.65119,1.06227
164.41012,1.07065
164.16905,1.08474
163.92798,1.10367
163.68691,1.12398
163.44584,1.14381
163.20477,1.16337
162.96370,1.18266
162.72263,1.20001
162.48156,1.21121
162.24048,1.21175
161.99941,1.20342
161.75834,1.19611
161.51727,1.19865
161.27620,1.20990
161.03513,1.22175
160.79406,1.22998
160.55299,1.23590
160.31192,1.23806
160.07085,1.23221
159.82978,1.21882
159.58871,1.20242
159.34764,1.18534
159.10657,1.16848
158.86550,1.15518
158.62443,1.14847
158.38336,1.14682
158.14229,1.14708
157.90121,1.14867
157.66014,1.15040
157.41907,1.14794
157.17800,1.13879
156.93693,1.12606
156.69586,1.11471
156.45479,1.10675
156.21372,1.10092
155.97265,1.09530
155.73158,1.08897
155.49051,1.08126
155.24944,1.07122
155.00837,1.05826
154.76730,1.04161
154.52623,1.02049
154.28516,0.99699
154.04409,0.97633
153.80302,0.96176
153.56194,0.95056
153.32087,0.93649
153.07980,0.91551
152.83873,0.88867
152.59766,0.86022
152.35659,0.83391
152.11552,0.81154
151.87445,0.79384
151.63338,0.78050
151.39231,0.76884
151.15124,0.75465
150.91017,0.73518
150.66910,0.71138
150.42803,0.68749
150.18696,0.66788
149.94589,0.65367
149.70482,0.64282
149.46375,0.63263
149.22267,0.62136
148.98160,0.60889
148.74053,0.59682
148.49946,0.58735
148.25839,0.58137
148.01732,0.57775
147.77625,0.57421
147.53518,0.56936
147.29411,0.56425
147.05304,0.56141
146.81197,0.56213
146.57090,0.56539
146.32983,0.56944
146.08876,0.57373
145.84769,0.57882
145.60662,0.58512
145.36555,0.59217
145.12448,0.59909
144.88340,0.60538
144.64233,0.61117
144.40126,0.61671
144.16019,0.62161
143.91912,0.62461
143.67805,0.62458
143.43698,0.62175
143.19591,0.61725
142.95484,0.61102
142.71377,0.60177
142.47270,0.58942
142.23163,0.57639
141.99056,0.56524
141.74949,0.55623
141.50842,0.54840
141.26735,0.54169
141.02628,0.53635
140.78521,0.53182
140.54413,0.52773
140.30306,0.52520
140.06199,0.52547
139.82092,0.52813
139.57985,0.53185
139.33878,0.53622
139.09771,0.54166
138.85664,0.54805
138.61557,0.55487
138.37450,0.56256
138.13343,0.57272
137.89236,0.58648
137.65129,0.60310
137.41022,0.62079
137.16915,0.63875
136.92808,0.65796
136.68701,0.67972
136.44594,0.70412
136.20486,0.73042
135.96379,0.75855
135.72272,0.78956
135.48165,0.82442
135.24058,0.86274
134.99951,0.90295
134.75844,0.94318
134.51737,0.98197
134.27630,1.01862
134.03523,1.05251
133.79416,1.08229
133.55309,1.10791
133.31202,1.13277
133.07095,1.16010
132.82988,1.18733
132.58881,1.20870
132.34774,1.22188
132.10667,1.22739
131.86559,1.22651
131.62452,1.22242
131.38345,1.21597
131.14238,1.20437
130.90131,1.18665
130.66024,1.16334
130.41917,1.13205
130.17810,1.09175
129.93703,1.04805
129.69596,1.00602
129.45489,0.96341
129.21382,0.91666
128.97275,0.86809
128.73168,0.82297
128.49061,0.78408
128.24954,0.75071
128.00847,0.72022
127.76740,0.69076
127.52632,0.66320
127.28525,0.63904
127.04418,0.61743
126.80311,0.59628
126.56204,0.57528
126.32097,0.55564
126.07990,0.53779
125.83883,0.52124
125.59776,0.50586
125.35669,0.49211
125.11562,0.48027
124.87455,0.47026
124.63348,0.46200
124.39241,0.45518
124.15134,0.44880
123.91027,0.44181
123.66920,0.43430
123.42812,0.42750
123.18705,0.42259
122.94598,0.42003
122.70491,0.41976
122.46384,0.42145
122.22277,0.42453
121.98170,0.42822
121.74063,0.43199
121.49956,0.43599
121.25849,0.44078
121.01742,0.44655
120.77635,0.45340
120.53528,0.46227
120.29421,0.47437
120.05314,0.48960
119.81207,0.50674
119.57100,0.52544
119.32993,0.54688
119.08885,0.57209
118.84778,0.60034
118.60671,0.62987
118.36564,0.65992
118.12457,0.69089
117.88350,0.72197
117.64243,0.75020
117.40136,0.77286
117.16029,0.78954
116.91922,0.80130
116.67815,0.80902
116.43708,0.81256
116.19601,0.81079
115.95494,0.80341
115.71387,0.79245
115.47280,0.78052
115.23173,0.76858
114.99066,0.75652
114.74958,0.74398
114.50851,0.72986
114.26744,0.71313
114.02637,0.69511
113.78530,0.67945
113.54423,0.66935
113.30316,0.66587
113.06209,0.66857
112.82102,0.67651
112.57995,0.68787
112.33888,0.69961
112.09781,0.70953
111.85674,0.71853
111.61567,0.72961
111.37460,0.74451
111.13353,0.76127
110.89246,0.77440
110.65139,0.77879
110.41031,0.77439
110.16924,0.76473
109.92817,0.75184
109.68710,0.73554
109.44603,0.71596
109.20496,0.69328
108.96389,0.66704
108.72282,0.63888
108.48175,0.61317
108.24068,0.59242
107.99961,0.57443
107.75854,0.55559
107.51747,0.53461
107.27640,0.51215
107.03533,0.48958
106.79426,0.46834
106.55319,0.44892
106.31212,0.43102
106.07104,0.41557
105.82997,0.40453
105.58890,0.39798
105.34783,0.39293
105.10676,0.38575
104.86569,0.37491
104.62462,0.36118
104.38355,0.34670
104.14248,0.33385
103.90141,0.32439
103.66034,0.31875
103.41927,0.31571
103.17820,0.31337
102.93713,0.31033
102.69606,0.30562
102.45499,0.29842
102.21392,0.28945
101.97285,0.28145
101.73177,0.27676
101.49070,0.27515
101.24963,0.27501
101.00856,0.27490
100.76749,0.27318
100.52642,0.26803
100.28535,0.25945
100.04428,0.25045
99.80321,0.24534
99.56214,0.24667
99.32107,0.25244
99.08000,0.25642
98.83893,0.25372
98.59786,0.24641
98.35679,0.24060
98.11572,0.24001
97.87465,0.24406
97.63358,0.24910
97.39250,0.25106
97.15143,0.24994
96.91036,0.25076
96.66929,0.25811
96.42822,0.26983
96.18715,0.27839
95.94608,0.28101
95.70501,0.28427
95.46394,0.29457
95.22287,0.30913
94.98180,0.31957
94.74073,0.32376
94.49966,0.32729
94.25859,0.33319
94.01752,0.33753
93.77645,0.33671
93.53538,0.33405
93.29431,0.33455
93.05323,0.33720
92.81216,0.33757
92.57109,0.33571
92.33002,0.33546
92.08895,0.33752
91.84788,0.33998
91.60681,0.34384
91.36574,0.35222
91.12467,0.36634
90.88360,0.38588
90.64253,0.41151
90.40146,0.44484
90.16039,0.48587
89.91932,0.53228
89.67825,0.58233
89.43718,0.63548
89.19611,0.68703
88.95504,0.72860
88.71396,0.75691
88.47289,0.76861
88.23182,0.75316
87.99075,0.70923
87.74968,0.65302
87.50861,0.59785
87.26754,0.54578
87.02647,0.49848
86.78540,0.45885
86.54433,0.42508
86.30326,0.39345
86.06219,0.36416
85.82112,0.33891
85.58005,0.31679
85.33898,0.29618
85.09791,0.27735
84.85684,0.26085
84.61577,0.24613
84.37469,0.23272
84.13362,0.22096
83.89255,0.21135
83.65148,0.20398
83.41041,0.19853
83.16934,0.19408
82.92827,0.18966
82.68720,0.18518
82.44613,0.18108
82.20506,0.17747
81.96399,0.17457
81.72292,0.17288
81.48185,0.17228
81.24078,0.17193
80.99971,0.17131
80.75864,0.17052
80.51757,0.16967
80.27650,0.16867
80.03542,0.16715
79.79435,0.16475
79.55328,0.16230
79.31221,0.16158
79.07114,0.16284
78.83007,0.16385
78.58900,0.16250
78.34793,0.15892
78.10686,0.15460
77.86579,0.15053
77.62472,0.14701
77.38365,0.14421
77.14258,0.14251
76.90151,0.14216
76.66044,0.14295
76.41937,0.14422
76.17830,0.14507
75.93723,0.14458
75.69615,0.14241
75.45508,0.13941
75.21401,0.13707
74.97294,0.13599
74.73187,0.13557
74.49080,0.13540
74.24973,0.13625
74.00866,0.13887
73.76759,0.14243
73.52652,0.14518
73.28545,0.14617
73.04438,0.14514
72.80331,0.14170
72.56224,0.13642
72.32117,0.13202
72.08010,0.13204
71.83903,0.13812
71.59796,0.14866
71.35688,0.15918
71.11581,0.16491
70.87474,0.16499
70.63367,0.16349
70.39260,0.16595
70.15153,0.17572
69.91046,0.19295
69.66939,0.21518
69.42832,0.23812
69.18725,0.25645
68.94618,0.26544
68.70511,0.26314
68.46404,0.25103
68.22297,0.23269
67.98190,0.21215
67.74083,0.19267
67.49976,0.17552
67.25869,0.16046
67.01761,0.14731
66.77654,0.13650
66.53547,0.12849
66.29440,0.12356
66.05333,0.12205
65.81226,0.12393
65.57119,0.12813
65.33012,0.13342
65.08905,0.13990
64.84798,0.14820
64.60691,0.15746
64.36584,0.16597
64.12477,0.17313
63.88370,0.17880
63.64263,0.18141
63.40156,0.17857
63.16049,0.16965
62.91942,0.15722
62.67834,0.14553
62.43727,0.13712
62.19620,0.13145
61.95513,0.12706
61.71406,0.12370
61.47299,0.12147
61.23192,0.11971
60.99085,0.11800
60.74978,0.11713
60.50871,0.11807
60.26764,0.12096
60.02657,0.12534
59.78550,0.13088
59.54443,0.13730
59.30336,0.14413
59.06229,0.15061
58.82122,0.15571
58.58015,0.15842
58.33907,0.15869
58.09800,0.15722
57.85693,0.15417
57.61586,0.14880
57.37479,0.14033
57.13372,0.12854
56.89265,0.11413
56.65158,0.09949
56.41051,0.08869
56.16944,0.08512
55.92837,0.08869
55.68730,0.09657
55.44623,0.10686
55.20516,0.12017
54.96409,0.13657
54.72302,0.15264
54.48195,0.16295
54.24088,0.16376
53.99980,0.15560
53.75873,0.14235
53.51766,0.12755
53.27659,0.11391
53.03552,0.10537
52.79445,0.10626
52.55338,0.11878
52.31231,0.14205
52.07124,0.17012
51.83017,0.18781
51.58910,0.17815
51.34803,0.14413
51.10696,0.10711
50.86589,0.08554
50.62482,0.08739
50.38375,0.11355
50.14268,0.15769
49.90161,0.19221
49.66053,0.17613
49.41946,0.12543
49.17839,0.08893
48.93732,0.08951
48.69625,0.12547
48.45518,0.16333
48.21411,0.15005
47.97304,0.10707
47.73197,0.09181
47.49090,0.11378
47.24983,0.13675
47.00876,0.12440
46.76769,0.09852
46.52662,0.09306
46.28555,0.10580
46.04448,0.11361
45.80341,0.11178
45.56234,0.11806
45.32126,0.13376
45.08019,0.13786
44.83912,0.12870
44.59805,0.12559
44.35698,0.12792
44.11591,0.12244
43.87484,0.11686
43.63377,0.12008
43.39270,0.12009
43.15163,0.11295
42.91056,0.11524
42.66949,0.12966
42.42842,0.13849
42.18735,0.13548
41.94628,0.12810
41.70521,0.11933
41.46414,0.11344
41.22307,0.11882
40.98199,0.13328
40.74092,0.14459
40.49985,0.14845
40.25878,0.15251
40.01771,0.16108
39.77664,0.16794
39.53557,0.16808
39.29450,0.16521
39.05343,0.16529
38.81236,0.16999
38.57129,0.17735
38.33022,0.18593
38.08915,0.19554
37.84808,0.20472
37.60701,0.21036
37.36594,0.21096
37.12487,0.20789
36.88380,0.20224
36.64272,0.19543
36.40165,0.19147
36.16058,0.19168
35.91951,0.19246
35.67844,0.19251
35.43737,0.19396
35.19630,0.19583
34.95523,0.19669
34.71416,0.19938
34.47309,0.20458
34.23202,0.20654
33.99095,0.20045
33.74988,0.19039
33.50881,0.18544
33.26774,0.18869
33.02667,0.19754
32.78560,0.21019
32.54453,0.22033
32.30345,0.21436
32.06238,0.19181
31.82131,0.17079
31.58024,0.16125
31.33917,0.15441
31.09810,0.13665
30.85703,0.10785
30.61596,0.08531
30.37489,0.08609
30.13382,0.10460
29.89275,0.11818
29.65168,0.11366
29.41061,0.09679
29.16954,0.08014
28.92847,0.07117
28.68740,0.06772
28.44633,0.06281
28.20526,0.05524
27.96418,0.04745
27.72311,0.03888
27.48204,0.03114
27.24097,0.02765
26.99990,0.02217
26.75883,0.00785
26.51776,-0.00723
26.27669,-0.01484
26.03562,-0.02018
25.79455,-0.03194
25.55348,-0.04972
25.31241,-0.06346
25.07134,-0.06527
24.83027,-0.05857
24.58920,-0.05120
24.34813,-0.04895
24.10706,-0.05752
23.86599,-0.07938
23.62491,-0.11001
23.38384,-0.14325
23.14277,-0.17300
22.90170,-0.19164
22.66063,-0.19731
22.41956,-0.19380
22.17849,-0.18419
21.93742,-0.17392
21.69635,-0.17225
21.45528,-0.18472
21.21421,-0.21171
20.97314,-0.24480
20.73207,-0.26444
20.49100,-0.25860
20.24993,-0.23590
20.00886,-0.21443
19.76779,-0.20760
19.52672,-0.21528
19.28564,-0.22367
19.04457,-0.21987
18.80350,-0.21041
18.56243,-0.21422
18.32136,-0.24201
18.08029,-0.28561
17.83922,-0.32396
17.59815,-0.34752
17.35708,-0.36300
17.11601,-0.36871
16.87494,-0.35685
16.63387,-0.33761
16.39280,-0.32048
16.15173,-0.31238
15.91066,-0.32954
15.66959,-0.36709
15.42852,-0.40354
15.18745,-0.42925
14.94637,-0.44248
14.70530,-0.44368
14.46423,-0.42693
14.22316,-0.40113
13.98209,-0.37414
13.74102,-0.35390
13.49995,-0.34945
13.25888,-0.35399
13.01781,-0.35471
12.77674,-0.35730
12.53567,-0.37223
12.29460,-0.39533
12.05353,-0.40498
11.81246,-0.38923
11.57139,-0.36777
11.33032,-0.36565
11.08925,-0.38026
10.84818,-0.38599
10.60710,-0.38348
10.36603,-0.39424
10.12496,-0.41516
9.88389,-0.41988
9.64282,-0.38689
9.40175,-0.33738
9.16068,-0.30499
8.91961,-0.30312
8.67854,-0.32407
8.43747,-0.34814
8.19640,-0.35584
7.95533,-0.34577
7.71426,-0.33004
7.47319,-0.32300
7.23212,-0.33518
6.99105,-0.36882
6.74998,-0.40450
6.50891,-0.42423
6.26783,-0.42539
6.02676,-0.41454
5.78569,-0.40247
5.54462,-0.38243
5.30355,-0.35665
5.06248,-0.32171
4.82141,-0.28477
4.58034,-0.27501
4.33927,-0.29296
4.09820,-0.31933
3.85713,-0.33797
3.61606,-0.34132
3.37499,-0.32779
3.13392,-0.31249
2.89285,-0.30920
2.65178,-0.30678
2.41071,-0.29277
2.16964,-0.27936
1.92856,-0.27797
1.68749,-0.28519
1.44642,-0.29931
1.20535,-0.31501
0.96428,-0.32550
0.72321,-0.35925
0.48214,-0.42060
0.24107,-0.43868
-0.00000,-0.30178
