399.69498,1.78413
399.45391,1.85123
399.21284,1.91972
398.97177,2.00149
398.73070,2.06048
398.48963,2.03695
398.24856,1.95001
398.00749,1.82696
397.76642,1.74399
397.52535,1.74908
397.28428,1.83246
397.04321,1.91950
396.80214,1.92977
396.56107,1.89364
396.32000,1.83891
396.07892,1.79605
395.83785,1.76694
395.59678,1.75908
395.35571,1.78553
395.11464,1.85159
394.87357,1.94640
394.63250,2.03646
394.39143,2.05983
394.15036,1.98129
393.90929,1.93048
393.66822,1.96764
393.42715,2.02931
393.18608,2.12599
392.94501,2.22264
392.70394,2.26256
392.46287,2.19067
392.22180,2.03430
391.98073,1.92286
391.73965,1.90053
391.49858,1.91395
391.25751,1.89379
391.01644,1.86935
390.77537,1.88446
390.53430,1.96998
390.29323,2.11515
390.05216,2.22089
389.81109,2.26848
389.57002,2.26248
389.32895,2.04438
389.08788,1.86449
388.84681,1.79381
388.60574,1.81886
388.36467,1.94146
388.12360,2.09099
387.88253,2.09395
387.64146,2.03883
387.40038,2.07297
387.15931,2.15544
386.91824,2.20278
386.67717,2.20271
386.43610,2.11223
386.19503,1.97668
385.95396,1.89935
385.71289,1.93545
385.47182,2.11687
385.23075,2.28872
384.98968,2.25067
384.74861,2.28226
384.50754,2.39948
384.26647,2.09320
384.02540,1.87427
383.78433,1.83642
383.54326,1.93569
383.30219,2.19590
383.06111,2.34339
382.82004,2.17962
382.57897,2.15893
382.33790,1.95843
382.09683,1.78144
381.85576,1.74466
381.61469,1.74279
381.37362,1.65866
381.13255,1.62141
380.89148,1.62400
380.65041,1.66830
380.40934,1.78377
380.16827,1.97480
379.92720,2.15151
379.68613,2.17886
379.44506,1.95620
379.20399,1.81609
378.96292,1.81448
378.72184,1.83781
378.48077,1.85018
378.23970,1.91304
377.99863,2.02910
377.75756,2.11504
377.51649,2.04121
377.27542,1.93798
377.03435,1.93489
376.79328,1.97620
376.55221,1.97001
376.31114,1.93514
376.07007,1.96441
375.82900,2.11262
375.58793,2.36289
375.34686,2.59356
375.10579,2.39859
374.86472,2.15812
374.62365,2.10319
374.38257,2.19512
374.14150,2.19817
373.90043,2.07516
373.65936,1.99185
373.41829,1.97858
373.17722,2.01367
372.93615,1.99667
372.69508,1.89624
372.45401,1.78268
372.21294,1.71418
371.97187,1.70058
371.73080,1.72503
371.48973,1.74878
371.24866,1.73784
371.00759,1.74139
370.76652,1.77025
370.52545,1.74211
370.28437,1.67527
370.04330,1.61663
369.80223,1.57144
369.56116,1.54084
369.32009,1.51995
369.07902,1.50005
368.83795,1.48416
368.59688,1.48457
368.35581,1.50573
368.11474,1.53055
367.87367,1.53239
367.63260,1.50934
367.39153,1.48190
367.15046,1.45668
366.90939,1.42757
366.66832,1.40161
366.42725,1.39290
366.18618,1.40316
365.94510,1.42368
365.70403,1.44891
365.46296,1.47630
365.22189,1.49132
364.98082,1.47322
364.73975,1.43254
364.49868,1.40228
364.25761,1.39437
364.01654,1.39553
363.77547,1.39373
363.53440,1.39229
363.29333,1.39516
363.05226,1.39814
362.81119,1.39966
362.57012,1.40096
362.32905,1.40134
362.08798,1.39443
361.84691,1.37486
361.60583,1.35257
361.36476,1.34201
361.12369,1.34378
360.88262,1.35204
360.64155,1.36644
360.40048,1.38823
360.15941,1.40744
359.91834,1.40871
359.67727,1.39910
359.43620,1.39285
359.19513,1.38985
358.95406,1.39233
358.71299,1.40259
358.47192,1.40758
358.23085,1.39682
357.98978,1.38403
357.74871,1.38482
357.50764,1.39147
357.26656,1.38373
357.02549,1.35521
356.78442,1.31887
356.54335,1.29278
356.30228,1.28683
356.06121,1.29972
355.82014,1.31825
355.57907,1.32877
355.33800,1.33426
355.09693,1.34421
354.85586,1.36291
354.61479,1.38460
354.37372,1.39085
354.13265,1.37603
353.89158,1.35745
353.65051,1.34522
353.40944,1.33819
353.16837,1.33628
352.92729,1.34070
352.68622,1.35021
352.44515,1.35820
352.20408,1.36227
351.96301,1.37284
351.72194,1.39517
351.48087,1.40815
351.23980,1.39584
350.99873,1.37624
350.75766,1.36559
350.51659,1.36349
350.27552,1.36630
350.03445,1.37547
349.79338,1.39650
349.55231,1.42961
349.31124,1.46360
349.07017,1.48307
348.82910,1.48742
348.58802,1.48525
348.34695,1.47405
348.10588,1.44965
347.86481,1.42260
347.62374,1.40892
347.38267,1.41243
347.14160,1.42208
346.90053,1.42437
346.65946,1.41590
346.41839,1.40099
346.17732,1.38392
345.93625,1.37341
345.69518,1.38329
345.45411,1.41200
345.21304,1.43345
344.97197,1.43210
344.73090,1.42880
344.48983,1.45148
344.24875,1.49469
344.00768,1.51814
343.76661,1.51209
343.52554,1.51018
343.28447,1.52707
343.04340,1.54455
342.80233,1.53775
342.56126,1.50975
342.32019,1.48962
342.07912,1.49493
341.83805,1.51888
341.59698,1.55081
341.35591,1.58912
341.11484,1.63308
340.87377,1.67840
340.63270,1.71398
340.39163,1.72422
340.15056,1.71837
339.90948,1.71991
339.66841,1.74317
339.42734,1.77305
339.18627,1.77691
338.94520,1.75978
338.70413,1.74542
338.46306,1.75293
338.22199,1.79553
337.98092,1.86658
337.73985,1.92720
337.49878,1.92906
337.25771,1.86685
337.01664,1.80136
336.77557,1.77759
336.53450,1.79106
336.29343,1.81278
336.05236,1.81256
335.81129,1.79341
335.57021,1.79347
335.32914,1.83901
335.08807,1.90982
334.84700,1.99874
334.60593,2.09582
334.36486,2.11770
334.12379,2.08657
333.88272,2.10225
333.64165,2.05813
333.40058,1.91041
333.15951,1.81480
332.91844,1.78836
332.67737,1.79006
332.43630,1.78320
332.19523,1.74578
331.95416,1.68789
331.71309,1.64897
331.47202,1.65379
331.23094,1.67635
330.98987,1.66733
330.74880,1.63727
330.50773,1.63921
330.26666,1.68124
330.02559,1.70833
329.78452,1.67102
329.54345,1.59852
329.30238,1.54659
329.06131,1.53765
328.82024,1.56245
328.57917,1.59973
328.33810,1.63529
328.09703,1.67462
327.85596,1.73089
327.61489,1.79393
327.37382,1.85204
327.13275,1.89902
326.89167,1.90227
326.65060,1.85012
326.40953,1.76186
326.16846,1.68392
325.92739,1.66771
325.68632,1.71368
325.44525,1.77642
325.20418,1.82733
324.96311,1.88310
324.72204,1.92704
324.48097,1.91534
324.23990,1.87979
323.99883,1.84124
323.75776,1.83463
323.51669,1.86425
323.27562,1.86555
323.03455,1.82887
322.79348,1.80754
322.55240,1.81162
322.31133,1.84324
322.07026,1.90650
321.82919,1.98990
321.58812,2.10088
321.34705,2.26450
321.10598,2.51416
320.86491,2.61898
320.62384,2.46730
320.38277,2.16755
320.14170,2.00548
319.90063,1.93517
319.65956,1.95695
319.41849,1.87058
319.17742,1.89692
318.93635,1.97376
318.69528,2.00692
318.45421,2.13759
318.21313,2.14122
317.97206,2.04855
317.73099,2.05205
317.48992,2.07725
317.24885,2.07140
317.00778,2.00833
316.76671,1.93787
316.52564,1.89218
316.28457,1.92834
316.04350,2.06706
315.80243,2.13893
315.56136,2.01759
315.32029,1.90536
315.07922,1.88614
314.83815,1.89979
314.59708,1.89610
314.35601,1.95762
314.11494,2.08420
313.87386,2.10740
313.63279,2.07825
313.39172,2.05274
313.15065,1.97682
312.90958,1.90928
312.66851,1.91369
312.42744,1.95104
312.18637,2.02249
311.94530,2.19180
311.70423,2.23641
311.46316,2.14863
311.22209,2.10007
310.98102,2.07518
310.73995,2.05815
310.49888,2.05650
310.25781,2.04281
310.01674,2.04117
309.77567,2.08159
309.53459,2.15094
309.29352,2.09893
309.05245,2.00137
308.81138,1.96144
308.57031,1.92096
308.32924,1.91509
308.08817,1.99321
307.84710,2.10481
307.60603,2.08929
307.36496,1.96587
307.12389,1.87417
306.88282,1.81385
306.64175,1.75867
306.40068,1.71436
306.15961,1.68594
305.91854,1.66793
305.67747,1.66115
305.43640,1.63740
305.19532,1.58106
304.95425,1.52122
304.71318,1.47941
304.47211,1.47055
304.23104,1.49223
303.98997,1.52577
303.74890,1.55292
303.50783,1.55144
303.26676,1.50138
303.02569,1.43190
302.78462,1.39447
302.54355,1.40330
302.30248,1.42763
302.06141,1.42961
301.82034,1.40387
301.57927,1.37577
301.33820,1.36731
301.09713,1.37061
300.85605,1.36625
300.61498,1.35234
300.37391,1.33541
300.13284,1.31307
299.89177,1.28818
299.65070,1.27436
299.40963,1.27604
299.16856,1.28038
298.92749,1.27248
298.68642,1.25321
298.44535,1.23636
298.20428,1.23246
297.96321,1.24046
297.72214,1.24759
297.48107,1.23963
297.24000,1.21949
296.99893,1.20416
296.75786,1.20019
296.51678,1.19685
296.27571,1.18621
296.03464,1.17470
295.79357,1.16791
295.55250,1.16129
295.31143,1.15110
295.07036,1.14103
294.82929,1.13258
294.58822,1.11848
294.34715,1.09557
294.10608,1.07453
293.86501,1.06747
293.62394,1.07578
293.38287,1.09333
293.14180,1.11414
292.90073,1.13308
292.65966,1.14344
292.41859,1.14056
292.17751,1.12734
291.93644,1.11105
291.69537,1.09708
291.45430,1.08763
291.21323,1.08297
290.97216,1.08202
290.73109,1.08179
290.49002,1.07854
290.24895,1.07248
290.00788,1.06779
289.76681,1.06566
289.52574,1.06277
289.28467,1.05793
289.04360,1.05505
288.80253,1.05717
288.56146,1.06074
288.32039,1.06007
288.07932,1.05683
287.83824,1.05931
287.59717,1.07057
287.35610,1.08155
287.11503,1.08016
286.87396,1.06604
286.63289,1.04875
286.39182,1.03467
286.15075,1.02397
285.90968,1.01661
285.66861,1.01452
285.42754,1.01678
285.18647,1.01879
284.94540,1.01899
284.70433,1.02113
284.46326,1.02611
284.22219,1.02777
283.98112,1.02191
283.74005,1.01457
283.49897,1.01516
283.25790,1.02398
283.01683,1.03064
282.77576,1.02656
282.53469,1.01650
282.29362,1.01295
282.05255,1.02073
281.81148,1.03097
281.57041,1.03197
281.32934,1.02254
281.08827,1.01037
280.84720,1.00301
280.60613,1.00328
280.36506,1.00835
280.12399,1.01226
279.88292,1.01258
279.64185,1.01246
279.40078,1.01365
279.15970,1.01303
278.91863,1.00787
278.67756,0.99955
278.43649,0.99213
278.19542,0.98948
277.95435,0.99224
277.71328,0.99823
277.47221,1.00500
277.23114,1.00968
276.99007,1.00928
276.74900,1.00550
276.50793,1.00481
276.26686,1.00926
276.02579,1.01281
275.78472,1.01045
275.54365,1.00488
275.30258,1.00090
275.06151,0.99923
274.82043,0.99807
274.57936,0.99654
274.33829,0.99551
274.09722,0.99667
273.85615,1.00003
273.61508,1.00168
273.37401,0.99677
273.13294,0.98646
272.89187,0.97877
272.65080,0.98036
272.40973,0.99012
272.16866,1.00271
271.92759,1.01629
271.68652,1.03200
271.44545,1.04710
271.20438,1.05577
270.96331,1.05593
270.72224,1.05179
270.48116,1.04885
270.24009,1.04759
269.99902,1.04541
269.75795,1.04276
269.51688,1.04196
269.27581,1.04159
269.03474,1.03882
268.79367,1.03618
268.55260,1.03895
268.31153,1.04635
268.07046,1.05155
267.82939,1.05156
267.58832,1.05148
267.34725,1.05628
267.10618,1.06407
266.86511,1.07059
266.62404,1.07537
266.38297,1.08041
266.14189,1.08686
265.90082,1.09541
265.65975,1.10719
265.41868,1.12109
265.17761,1.13180
264.93654,1.13509
264.69547,1.13347
264.45440,1.13417
264.21333,1.14197
263.97226,1.15528
263.73119,1.16914
263.49012,1.17838
263.24905,1.18011
263.00798,1.17743
262.76691,1.17778
262.52584,1.18562
262.28477,1.19947
262.04370,1.21428
261.80262,1.22524
261.56155,1.23224
261.32048,1.24192
261.07941,1.26092
260.83834,1.28817
260.59727,1.31637
260.35620,1.33855
260.11513,1.35430
259.87406,1.36628
259.63299,1.37594
259.39192,1.38648
259.15085,1.40147
258.90978,1.42576
258.66871,1.46888
258.42764,1.53046
258.18657,1.58207
257.94550,1.59246
257.70443,1.58036
257.46335,1.58547
257.22228,1.60854
256.98121,1.62210
256.74014,1.61656
256.49907,1.62122
256.25800,1.65844
256.01693,1.71228
255.77586,1.75926
255.53479,1.80601
255.29372,1.87849
255.05265,1.95766
254.81158,1.98680
254.57051,1.97699
254.32944,1.95727
254.08837,1.94696
253.84730,1.94492
253.60623,1.95420
253.36516,2.01258
253.12408,2.12604
252.88301,2.20024
252.64194,2.29738
252.40087,2.38001
252.15980,2.28558
251.91873,2.20504
251.67766,2.13941
251.43659,2.11791
251.19552,2.19969
250.95445,2.33103
250.71338,2.35379
250.47231,2.39163
250.23124,2.33718
249.99017,2.09221
249.74910,1.97097
249.50803,1.99967
249.26696,2.05288
249.02589,2.06511
248.78481,2.08186
248.54374,2.06877
248.30267,2.06898
248.06160,2.10430
247.82053,2.21730
247.57946,2.49487
247.33839,2.69758
247.09732,2.48229
246.85625,2.34084
246.61518,2.33401
246.37411,2.40489
246.13304,2.12292
245.89197,1.91969
245.65090,1.84067
245.40983,1.86416
245.16876,1.97553
244.92769,2.04473
244.68661,1.96574
244.44554,1.83559
244.20447,1.74356
243.96340,1.69791
243.72233,1.66841
243.48126,1.62986
243.24019,1.58794
242.99912,1.55834
242.75805,1.53274
242.51698,1.48323
242.27591,1.40365
242.03484,1.31912
241.79377,1.25226
241.55270,1.20565
241.31163,1.17012
241.07056,1.13704
240.82949,1.10225
240.58842,1.06504
240.34734,1.02782
240.10627,0.99438
239.86520,0.96584
239.62413,0.93976
239.38306,0.91414
239.14199,0.89024
238.90092,0.87076
238.65985,0.85695
238.41878,0.84757
238.17771,0.84006
237.93664,0.83167
237.69557,0.82044
237.45450,0.80714
237.21343,0.79560
236.97236,0.78894
236.73129,0.78530
236.49022,0.77938
236.24915,0.76838
236.00807,0.75429
235.76700,0.74044
235.52593,0.72884
235.28486,0.72065
235.04379,0.71594
234.80272,0.71259
234.56165,0.70848
234.32058,0.70427
234.07951,0.70132
233.83844,0.69845
233.59737,0.69408
233.35630,0.68996
233.11523,0.68852
232.87416,0.68860
232.63309,0.68790
232.39202,0.68716
232.15095,0.68774
231.90988,0.68798
231.66880,0.68534
231.42773,0.68058
231.18666,0.67744
230.94559,0.67831
230.70452,0.68142
230.46345,0.68286
230.22238,0.68101
229.98131,0.67795
229.74024,0.67654
229.49917,0.67733
229.25810,0.67837
229.01703,0.67716
228.77596,0.67320
228.53489,0.66893
228.29382,0.66702
228.05275,0.66717
227.81168,0.66722
227.57061,0.66682
227.32953,0.66770
227.08846,0.67062
226.84739,0.67447
226.60632,0.67792
226.36525,0.67939
226.12418,0.67729
225.88311,0.67294
225.64204,0.67035
225.40097,0.67120
225.15990,0.67322
224.91883,0.67475
224.67776,0.67738
224.43669,0.68296
224.19562,0.69016
223.95455,0.69602
223.71348,0.69985
223.47241,0.70339
223.23134,0.70721
222.99026,0.70959
222.74919,0.71000
222.50812,0.71128
222.26705,0.71580
222.02598,0.72140
221.78491,0.72409
221.54384,0.72404
221.30277,0.72591
221.06170,0.73293
220.82063,0.74345
220.57956,0.75433
220.33849,0.76523
220.09742,0.77731
219.85635,0.79007
219.61528,0.80193
219.37421,0.81179
219.13314,0.81878
218.89207,0.82316
218.65099,0.82782
218.40992,0.83540
218.16885,0.84455
217.92778,0.85302
217.68671,0.86225
217.44564,0.87457
217.20457,0.88797
216.96350,0.89800
216.72243,0.90503
216.48136,0.91508
216.24029,0.93198
215.99922,0.95190
215.75815,0.96818
215.51708,0.97981
215.27601,0.98986
215.03494,0.99790
214.79387,1.00205
214.55280,1.00493
214.31172,1.01038
214.07065,1.01815
213.82958,1.02558
213.58851,1.03137
213.34744,1.03769
213.10637,1.04946
212.86530,1.06842
212.62423,1.08677
212.38316,1.09271
212.14209,1.08593
211.90102,1.07895
211.65995,1.08176
211.41888,1.09193
211.17781,1.10046
210.93674,1.10360
210.69567,1.10416
210.45460,1.10382
210.21353,1.10127
209.97245,1.09645
209.73138,1.08962
209.49031,1.07976
209.24924,1.06905
209.00817,1.06297
208.76710,1.06471
208.52603,1.07199
208.28496,1.07905
208.04389,1.08127
207.80282,1.07873
207.56175,1.07453
207.32068,1.07094
207.07961,1.06831
206.83854,1.06547
206.59747,1.05998
206.35640,1.05037
206.11533,1.03901
205.87426,1.02890
205.63318,1.01860
205.39211,1.00379
205.15104,0.98267
204.90997,0.95902
204.66890,0.93895
204.42783,0.92592
204.18676,0.91893
203.94569,0.91395
203.70462,0.90729
203.46355,0.89748
203.22248,0.88565
202.98141,0.87446
202.74034,0.86443
202.49927,0.85281
202.25820,0.83741
202.01713,0.81887
201.77606,0.79992
201.53499,0.78479
201.29391,0.77631
201.05284,0.77129
200.81177,0.76308
200.57070,0.75012
200.32963,0.73674
200.08856,0.72560
199.84749,0.71516
199.60642,0.70375
199.36535,0.69113
199.12428,0.67746
198.88321,0.66409
198.64214,0.65324
198.40107,0.64573
198.16000,0.64040
197.91893,0.63547
197.67786,0.63003
197.43679,0.62399
197.19572,0.61688
196.95464,0.60785
196.71357,0.59782
196.47250,0.58977
196.23143,0.58500
195.99036,0.58090
195.74929,0.57470
195.50822,0.56714
195.26715,0.56042
195.02608,0.55500
194.78501,0.54981
194.54394,0.54432
194.30287,0.53891
194.06180,0.53411
193.82073,0.53014
193.57966,0.52679
193.33859,0.52363
193.09752,0.52039
192.85645,0.51690
192.61537,0.51319
192.37430,0.50983
192.13323,0.50735
191.89216,0.50527
191.65109,0.50239
191.41002,0.49832
191.16895,0.49437
190.92788,0.49200
190.68681,0.49078
190.44574,0.48908
190.20467,0.48642
189.96360,0.48368
189.72253,0.48118
189.48146,0.47810
189.24039,0.47387
188.99932,0.46885
188.75825,0.46428
188.51718,0.46200
188.27610,0.46300
188.03503,0.46619
187.79396,0.46948
187.55289,0.47161
187.31182,0.47217
187.07075,0.47107
186.82968,0.46874
186.58861,0.46593
186.34754,0.46333
186.10647,0.46176
185.86540,0.46168
185.62433,0.46242
185.38326,0.46288
185.14219,0.46278
184.90112,0.46245
184.66005,0.46231
184.41898,0.46320
184.17791,0.46596
183.93683,0.47020
183.69576,0.47462
183.45469,0.47798
183.21362,0.47900
182.97255,0.47700
182.73148,0.47389
182.49041,0.47326
182.24934,0.47606
182.00827,0.47943
181.76720,0.48037
181.52613,0.47912
181.28506,0.47840
181.04399,0.48062
180.80292,0.48596
180.56185,0.49190
180.32078,0.49524
180.07971,0.49538
179.83864,0.49519
179.59756,0.49828
179.35649,0.50557
179.11542,0.51479
178.87435,0.52347
178.63328,0.53115
178.39221,0.53812
178.15114,0.54387
177.91007,0.54863
177.66900,0.55473
177.42793,0.56497
177.18686,0.58013
176.94579,0.59865
176.70472,0.61757
176.46365,0.63423
176.22258,0.64815
175.98151,0.66139
175.74044,0.67647
175.49937,0.69398
175.25829,0.71259
175.01722,0.73120
174.77615,0.75016
174.53508,0.76927
174.29401,0.78643
174.05294,0.80019
173.81187,0.81191
173.57080,0.82430
173.32973,0.83884
173.08866,0.85406
172.84759,0.86551
172.60652,0.86945
172.36545,0.86700
172.12438,0.86252
171.88331,0.85903
171.64224,0.85727
171.40117,0.85660
171.16010,0.85538
170.91902,0.85304
170.67795,0.85191
170.43688,0.85362
170.19581,0.85482
169.95474,0.85079
169.71367,0.84238
169.47260,0.83475
169.23153,0.83146
168.99046,0.83252
168.74939,0.83568
168.50832,0.83763
168.26725,0.83609
168.02618,0.83171
167.78511,0.82658
167.54404,0.82116
167.30297,0.81403
167.06190,0.80509
166.82083,0.79777
166.57975,0.79671
166.33868,0.80330
166.09761,0.81425
165.85654,0.82493
165.61547,0.83372
165.37440,0.84262
165.13333,0.85357
164.89226,0.86511
164.65119,0.87420
164.41012,0.88020
164.16905,0.88560
163.92798,0.89273
163.68691,0.90190
163.44584,0.91300
163.20477,0.92609
162.96370,0.93995
162.72263,0.95228
162.48156,0.96247
162.24048,0.97126
161.99941,0.97776
161.75834,0.97952
161.51727,0.97578
161.27620,0.96819
161.03513,0.95899
160.79406,0.95070
160.55299,0.94615
160.31192,0.94608
160.07085,0.94756
159.82978,0.94627
159.58871,0.93986
159.34764,0.92928
159.10657,0.91804
158.86550,0.90993
158.62443,0.90650
158.38336,0.90646
158.14229,0.90729
157.90121,0.90705
157.66014,0.90442
157.41907,0.89873
157.17800,0.89119
156.93693,0.88566
156.69586,0.88602
156.45479,0.89109
156.21372,0.89449
155.97265,0.89112
155.73158,0.88192
155.49051,0.87127
155.24944,0.86187
155.00837,0.85361
154.76730,0.84572
154.52623,0.83774
154.28516,0.82772
154.04409,0.81167
153.80302,0.78853
153.56194,0.76408
153.32087,0.74545
153.07980,0.73318
152.83873,0.72197
152.59766,0.70807
152.35659,0.69206
152.11552,0.67527
151.87445,0.65752
151.63338,0.63894
151.39231,0.62130
151.15124,0.60622
150.91017,0.59304
150.66910,0.57972
150.42803,0.56624
150.18696,0.55520
149.94589,0.54793
149.70482,0.54161
149.46375,0.53208
149.22267,0.51877
148.98160,0.50520
148.74053,0.49475
148.49946,0.48784
148.25839,0.48302
148.01732,0.47899
147.77625,0.47544
147.53518,0.47290
147.29411,0.47174
147.05304,0.47160
146.81197,0.47245
146.57090,0.47517
146.32983,0.47979
146.08876,0.48427
145.84769,0.48693
145.60662,0.48892
145.36555,0.49213
145.12448,0.49649
144.88340,0.50129
144.64233,0.50723
144.40126,0.51432
144.16019,0.51973
143.91912,0.52076
143.67805,0.51823
143.43698,0.51417
143.19591,0.50866
142.95484,0.50158
142.71377,0.49457
142.47270,0.48854
142.23163,0.48203
141.99056,0.47434
141.74949,0.46707
141.50842,0.46108
141.26735,0.45533
141.02628,0.44947
140.78521,0.44465
140.54413,0.44160
140.30306,0.44030
140.06199,0.44071
139.82092,0.44224
139.57985,0.44396
139.33878,0.44604
139.09771,0.44942
138.85664,0.45449
138.61557,0.46133
138.37450,0.46986
138.13343,0.47880
137.89236,0.48692
137.65129,0.49579
137.41022,0.50870
137.16915,0.52626
136.92808,0.54558
136.68701,0.56346
136.44594,0.57973
136.20486,0.59777
135.96379,0.62136
135.72272,0.65052
135.48165,0.68094
135.24058,0.70866
134.99951,0.73349
134.75844,0.75615
134.51737,0.77556
134.27630,0.79211
134.03523,0.80923
133.79416,0.82894
133.55309,0.85072
133.31202,0.87549
133.07095,0.90505
132.82988,0.93617
132.58881,0.95992
132.34774,0.97028
132.10667,0.96869
131.86559,0.95879
131.62452,0.94426
131.38345,0.93014
131.14238,0.91807
130.90131,0.90309
130.66024,0.88214
130.41917,0.86089
130.17810,0.84401
129.93703,0.82620
129.69596,0.80029
129.45489,0.76715
129.21382,0.73194
128.97275,0.69723
128.73168,0.66338
128.49061,0.63175
128.24954,0.60436
128.00847,0.58162
127.76740,0.56113
127.52632,0.54002
127.28525,0.51843
127.04418,0.49867
126.80311,0.48096
126.56204,0.46283
126.32097,0.44348
126.07990,0.42621
125.83883,0.41467
125.59776,0.40812
125.35669,0.40157
125.11562,0.39087
124.87455,0.37718
124.63348,0.36526
124.39241,0.35748
124.15134,0.35166
123.91027,0.34549
123.66920,0.34029
123.42812,0.33806
123.18705,0.33772
122.94598,0.33695
122.70491,0.33574
122.46384,0.33552
122.22277,0.33653
121.98170,0.33792
121.74063,0.33920
121.49956,0.34093
121.25849,0.34365
121.01742,0.34772
120.77635,0.35405
120.53528,0.36349
120.29421,0.37565
120.05314,0.38917
119.81207,0.40347
119.57100,0.41940
119.32993,0.43772
119.08885,0.45856
118.84778,0.48233
118.60671,0.50864
118.36564,0.53421
118.12457,0.55602
117.88350,0.57642
117.64243,0.59965
117.40136,0.62304
117.16029,0.63791
116.91922,0.64032
116.67815,0.63526
116.43708,0.62957
116.19601,0.62554
115.95494,0.62047
115.71387,0.60962
115.47280,0.59134
115.23173,0.57037
114.99066,0.55373
114.74958,0.54390
114.50851,0.53813
114.26744,0.53329
114.02637,0.52914
113.78530,0.52709
113.54423,0.52759
113.30316,0.53021
113.06209,0.53507
112.82102,0.54218
112.57995,0.55013
112.33888,0.55690
112.09781,0.56108
111.85674,0.56270
111.61567,0.56386
111.37460,0.56626
111.13353,0.56866
110.89246,0.56872
110.65139,0.56614
110.41031,0.56252
110.16924,0.56018
109.92817,0.56077
109.68710,0.56185
109.44603,0.55644
109.20496,0.53996
108.96389,0.51523
108.72282,0.48850
108.48175,0.46404
108.24068,0.44337
107.99961,0.42613
107.75854,0.41048
107.51747,0.39472
107.27640,0.37980
107.03533,0.36854
106.79426,0.36101
106.55319,0.35286
106.31212,0.34001
106.07104,0.32321
105.82997,0.30667
105.58890,0.29395
105.34783,0.28576
105.10676,0.28060
104.86569,0.27696
104.62462,0.27420
104.38355,0.27117
104.14248,0.26617
103.90141,0.25905
103.66034,0.25138
103.41927,0.24422
103.17820,0.23764
102.93713,0.23134
102.69606,0.22505
102.45499,0.21914
102.21392,0.21506
101.97285,0.21351
101.73177,0.21298
101.49070,0.21144
101.24963,0.20865
101.00856,0.20571
100.76749,0.20341
100.52642,0.20170
100.28535,0.20000
100.04428,0.19757
99.80321,0.19392
99.56214,0.18956
99.32107,0.18563
99.08000,0.18269
98.83893,0.18058
98.59786,0.17984
98.35679,0.18111
98.11572,0.18338
97.87465,0.18474
97.63358,0.18509
97.39250,0.18622
97.15143,0.18934
96.91036,0.19378
96.66929,0.19815
96.42822,0.20183
96.18715,0.20532
95.94608,0.20970
95.70501,0.21608
95.46394,0.22512
95.22287,0.23592
94.98180,0.24570
94.74073,0.25194
94.49966,0.25467
94.25859,0.25554
94.01752,0.25579
93.77645,0.25597
93.53538,0.25655
93.29431,0.25752
93.05323,0.25801
92.81216,0.25731
92.57109,0.25672
92.33002,0.25905
92.08895,0.26531
91.84788,0.27269
91.60681,0.27740
91.36574,0.27974
91.12467,0.28521
90.88360,0.29961
90.64253,0.32332
90.40146,0.35167
90.16039,0.38080
89.91932,0.41149
89.67825,0.44677
89.43718,0.48737
89.19611,0.52935
88.95504,0.56393
88.71396,0.58124
88.47289,0.57749
88.23182,0.55748
87.99075,0.52898
87.74968,0.49687
87.50861,0.46238
87.26754,0.42574
87.02647,0.38890
86.78540,0.35497
86.54433,0.32532
86.30326,0.29897
86.06219,0.27515
85.82112,0.25464
85.58005,0.23809
85.33898,0.22384
85.09791,0.20933
84.85684,0.19417
84.61577,0.18008
84.37469,0.16816
84.13362,0.15832
83.89255,0.15100
83.65148,0.14668
83.41041,0.14369
83.16934,0.13936
82.92827,0.13386
82.68720,0.13020
82.44613,0.13017
82.20506,0.13213
81.96399,0.13317
81.72292,0.13177
81.48185,0.12849
81.24078,0.12509
80.99971,0.12265
80.75864,0.12006
80.51757,0.11529
80.27650,0.10893
80.03542,0.10419
79.79435,0.10281
79.55328,0.10336
79.31221,0.10413
79.07114,0.10546
78.83007,0.10801
78.58900,0.11092
78.34793,0.11286
78.10686,0.11311
77.86579,0.11116
77.62472,0.10714
77.38365,0.10263
77.14258,0.09914
76.90151,0.09657
76.66044,0.09464
76.41937,0.09424
76.17830,0.09566
75.93723,0.09717
75.69615,0.09687
75.45508,0.09480
75.21401,0.09255
74.97294,0.09166
74.73187,0.09242
74.49080,0.09360
74.24973,0.09359
74.00866,0.09208
73.76759,0.09025
73.52652,0.08930
73.28545,0.08930
73.04438,0.08927
72.80331,0.08816
72.56224,0.08606
72.32117,0.08436
72.08010,0.08450
71.83903,0.08632
71.59796,0.08828
71.35688,0.08958
71.11581,0.09143
70.87474,0.09555
70.63367,0.10238
70.39260,0.11141
70.15153,0.12224
69.91046,0.13494
69.66939,0.14923
69.42832,0.16320
69.18725,0.17323
68.94618,0.17590
68.70511,0.17015
68.46404,0.15762
68.22297,0.14162
67.98190,0.12580
67.74083,0.11340
67.49976,0.10611
67.25869,0.10269
67.01761,0.09943
66.77654,0.09377
66.53547,0.08715
66.29440,0.08276
66.05333,0.08177
65.81226,0.08290
65.57119,0.08439
65.33012,0.08564
65.08905,0.08784
64.84798,0.09272
64.60691,0.10028
64.36584,0.10874
64.12477,0.11660
63.88370,0.12289
63.64263,0.12603
63.40156,0.12442
63.16049,0.11783
62.91942,0.10771
62.67834,0.09712
62.43727,0.08971
62.19620,0.08667
61.95513,0.08566
61.71406,0.08423
61.47299,0.08226
61.23192,0.07994
60.99085,0.07667
60.74978,0.07285
60.50871,0.07014
60.26764,0.06922
60.02657,0.06956
59.78550,0.07098
59.54443,0.07381
59.30336,0.07697
59.06229,0.07810
58.82122,0.07595
58.58015,0.07140
58.33907,0.06608
58.09800,0.06110
57.85693,0.05712
57.61586,0.05542
57.37479,0.05793
57.13372,0.06479
56.89265,0.07239
56.65158,0.07610
56.41051,0.07449
56.16944,0.06926
55.92837,0.06276
55.68730,0.05772
55.44623,0.05746
55.20516,0.06242
54.96409,0.06727
54.72302,0.06560
54.48195,0.05842
54.24088,0.05420
53.99980,0.05856
53.75873,0.06703
53.51766,0.07072
53.27659,0.06677
53.03552,0.05988
52.79445,0.05508
52.55338,0.05301
52.31231,0.05208
52.07124,0.05180
51.83017,0.05293
51.58910,0.05586
51.34803,0.05983
51.10696,0.06280
50.86589,0.06245
50.62482,0.05868
50.38375,0.05453
50.14268,0.05323
49.90161,0.05472
49.66053,0.05618
49.41946,0.05604
49.17839,0.05632
48.93732,0.05943
48.69625,0.06289
48.45518,0.06034
48.21411,0.05040
47.97304,0.04191
47.73197,0.04426
47.49090,0.05396
47.24983,0.05841
47.00876,0.05247
46.76769,0.04299
46.52662,0.03827
46.28555,0.03963
46.04448,0.04231
45.80341,0.04175
45.56234,0.03860
45.32126,0.03781
45.08019,0.04230
44.83912,0.04913
44.59805,0.05348
44.35698,0.05374
44.11591,0.05141
43.87484,0.04818
43.63377,0.04364
43.39270,0.03818
43.15163,0.03725
42.91056,0.04684
42.66949,0.06326
42.42842,0.07465
42.18735,0.07567
41.94628,0.07268
41.70521,0.07114
41.46414,0.06769
41.22307,0.05914
40.98199,0.04989
40.74092,0.04648
40.49985,0.04923
40.25878,0.05194
40.01771,0.04907
39.77664,0.04140
39.53557,0.03532
39.29450,0.03655
39.05343,0.04603
38.81236,0.06203
38.57129,0.07972
38.33022,0.09011
38.08915,0.08694
37.84808,0.07552
37.60701,0.06819
37.36594,0.07035
37.12487,0.07697
36.88380,0.08283
36.64272,0.08668
36.40165,0.08502
36.16058,0.07570
35.91951,0.06282
35.67844,0.05127
35.43737,0.04400
35.19630,0.04439
34.95523,0.05437
34.71416,0.07006
34.47309,0.08165
34.23202,0.08711
33.99095,0.09851
33.74988,0.12213
33.50881,0.14839
33.26774,0.16698
33.02667,0.17800
32.78560,0.18324
32.54453,0.17436
32.30345,0.14196
32.06238,0.09612
31.82131,0.06615
31.58024,0.06492
31.33917,0.07543
31.09810,0.08059
30.85703,0.08054
30.61596,0.07897
30.37489,0.06619
30.13382,0.03072
29.89275,-0.01450
29.65168,-0.03466
29.41061,-0.00976
29.16954,0.04901
28.92847,0.11916
28.68740,0.17604
28.44633,0.20318
28.20526,0.21094
27.96418,0.22246
27.72311,0.23945
27.48204,0.24678
27.24097,0.23684
26.99990,0.21045
26.75883,0.17982
26.51776,0.15766
26.27669,0.14959
26.03562,0.15844
25.79455,0.18365
25.55348,0.21544
25.31241,0.23507
25.07134,0.23943
24.83027,0.25394
24.58920,0.30596
24.34813,0.37989
24.10706,0.40767
23.86599,0.36750
23.62491,0.32077
23.38384,0.30297
23.14277,0.30873
22.90170,0.35293
22.66063,0.39081
22.41956,0.36745
22.17849,0.30062
21.93742,0.24013
21.69635,0.21410
21.45528,0.23451
21.21421,0.31373
20.97314,0.41929
20.73207,0.45971
20.49100,0.39839
20.24993,0.30336
20.00886,0.26596
19.76779,0.39007
19.52672,0.61151
19.28564,0.66863
19.04457,0.62886
18.80350,0.65881
18.56243,0.77221
18.32136,0.94632
18.08029,1.14881
17.83922,1.02505
17.59815,0.81074
17.35708,0.71941
17.11601,0.66976
16.87494,0.57860
16.63387,0.51635
16.39280,0.45493
16.15173,0.40023
15.91066,0.40111
15.66959,0.51567
15.42852,0.66853
15.18745,0.74972
14.94637,0.79203
14.70530,0.81185
14.46423,0.72944
14.22316,0.64916
13.98209,0.69645
13.74102,0.58439
13.49995,0.48346
13.25888,0.51964
13.01781,0.68612
12.77674,0.83562
12.53567,0.82989
12.29460,0.90183
12.05353,0.83042
11.81246,0.70134
11.57139,0.69301
11.33032,0.78514
11.08925,0.85943
10.84818,0.78216
10.60710,0.71164
10.36603,0.73664
10.12496,0.79148
9.88389,0.84780
9.64282,1.03012
9.40175,1.24420
9.16068,1.07222
8.91961,0.88887
8.67854,0.71191
8.43747,0.62144
8.19640,0.72956
7.95533,0.90974
7.71426,1.01860
7.47319,0.99540
7.23212,0.93127
6.99105,1.00203
6.74998,0.99806
6.50891,0.89818
6.26783,0.85801
6.02676,0.78580
5.78569,0.80022
5.54462,0.88926
5.30355,0.81117
5.06248,0.65107
4.82141,0.66947
4.58034,0.87635
4.33927,1.13291
4.09820,1.02280
3.85713,0.76391
3.61606,0.61110
3.37499,0.51579
3.13392,0.46001
2.89285,0.50902
2.65178,0.61082
2.41071,0.67178
2.16964,0.70411
1.92856,0.78444
1.68749,0.66587
1.44642,0.52373
1.20535,0.42683
0.96428,0.39139
0.72321,0.46147
0.48214,0.62060
0.24107,0.77222
-0.00000,0.50612
