399.69498,1.82388
399.45391,1.79249
399.21284,1.75471
398.97177,1.73704
398.73070,1.74730
398.48963,1.77895
398.24856,1.82824
398.00749,1.88773
397.76642,1.92427
397.52535,1.91328
397.28428,1.88554
397.04321,1.86101
396.80214,1.83866
396.56107,1.82748
396.32000,1.82404
396.07892,1.83401
395.83785,1.87568
395.59678,1.93324
395.35571,1.96744
395.11464,1.97027
394.87357,1.96780
394.63250,1.98171
394.39143,1.99838
394.15036,1.97780
393.90929,1.92973
393.66822,1.90480
393.42715,1.93672
393.18608,2.01092
392.94501,2.05949
392.70394,2.04627
392.46287,2.00998
392.22180,1.99891
391.98073,2.03606
391.73965,2.09986
391.49858,2.14056
391.25751,2.14245
391.01644,2.08078
390.77537,2.01441
390.53430,1.99980
390.29323,1.99826
390.05216,1.99454
389.81109,2.03743
389.57002,2.15055
389.32895,2.28346
389.08788,2.34004
388.84681,2.30856
388.60574,2.27594
388.36467,2.25749
388.12360,2.26490
387.88253,2.34124
387.64146,2.45640
387.40038,2.40672
387.15931,2.35119
386.91824,2.33160
386.67717,2.32102
386.43610,2.34992
386.19503,2.47634
385.95396,2.73894
385.71289,2.85872
385.47182,2.70789
385.23075,2.35406
384.98968,2.14240
384.74861,2.12726
384.50754,2.27700
384.26647,2.29183
384.02540,2.22928
383.78433,2.22516
383.54326,2.27112
383.30219,2.35675
383.06111,2.42641
382.82004,2.33870
382.57897,2.23128
382.33790,2.22035
382.09683,2.39040
381.85576,2.53890
381.61469,2.47035
381.37362,2.37410
381.13255,2.18407
380.89148,2.09818
380.65041,2.16446
380.40934,2.25725
380.16827,2.20127
379.92720,2.08114
379.68613,2.03812
379.44506,2.07660
379.20399,2.14631
378.96292,2.26505
378.72184,2.34073
378.48077,2.28018
378.23970,2.16182
377.99863,2.09254
377.75756,2.09259
377.51649,2.22548
377.27542,2.42342
377.03435,2.29537
376.79328,2.10690
376.55221,2.07641
376.31114,2.11034
376.07007,2.20333
375.82900,2.24777
375.58793,2.20722
375.34686,2.11313
375.10579,2.02059
374.86472,1.97951
374.62365,1.98562
374.38257,1.99282
374.14150,1.95839
373.90043,1.90529
373.65936,1.85654
373.41829,1.81856
373.17722,1.80734
372.93615,1.81256
372.69508,1.81019
372.45401,1.81059
372.21294,1.83012
371.97187,1.85761
371.73080,1.87122
371.48973,1.87148
371.24866,1.85212
371.00759,1.81339
370.76652,1.77367
370.52545,1.73438
370.28437,1.69889
370.04330,1.67748
369.80223,1.66544
369.56116,1.65006
369.32009,1.62578
369.07902,1.59753
368.83795,1.57552
368.59688,1.56499
368.35581,1.56273
368.11474,1.55449
367.87367,1.52660
367.63260,1.48426
367.39153,1.44512
367.15046,1.42250
366.90939,1.42002
366.66832,1.43258
366.42725,1.45028
366.18618,1.46509
365.94510,1.47319
365.70403,1.47315
365.46296,1.46613
365.22189,1.45347
364.98082,1.43583
364.73975,1.41819
364.49868,1.40963
364.25761,1.41339
364.01654,1.42163
363.77547,1.42279
363.53440,1.41420
363.29333,1.40540
363.05226,1.40683
362.81119,1.41668
362.57012,1.42328
362.32905,1.42260
362.08798,1.42257
361.84691,1.42915
361.60583,1.43905
361.36476,1.44368
361.12369,1.43728
360.88262,1.42435
360.64155,1.41555
360.40048,1.41379
360.15941,1.41015
359.91834,1.39852
359.67727,1.38540
359.43620,1.37655
359.19513,1.36778
358.95406,1.35621
358.71299,1.34761
358.47192,1.34748
358.23085,1.35481
357.98978,1.36409
357.74871,1.36678
357.50764,1.35912
357.26656,1.35090
357.02549,1.35450
356.78442,1.36929
356.54335,1.38389
356.30228,1.38972
356.06121,1.38755
355.82014,1.38303
355.57907,1.38115
355.33800,1.38226
355.09693,1.38218
354.85586,1.37862
354.61479,1.37368
354.37372,1.36843
354.13265,1.35916
353.89158,1.34397
353.65051,1.32909
353.40944,1.32356
353.16837,1.32997
352.92729,1.34240
352.68622,1.35324
352.44515,1.35938
352.20408,1.36300
351.96301,1.36983
351.72194,1.38300
351.48087,1.39808
351.23980,1.40800
350.99873,1.41120
350.75766,1.40998
350.51659,1.40467
350.27552,1.39746
350.03445,1.39746
349.79338,1.40988
349.55231,1.42675
349.31124,1.43640
349.07017,1.43658
348.82910,1.43421
348.58802,1.43392
348.34695,1.43107
348.10588,1.42112
347.86481,1.40736
347.62374,1.39717
347.38267,1.39409
347.14160,1.39367
346.90053,1.39193
346.65946,1.39456
346.41839,1.41238
346.17732,1.44775
345.93625,1.48871
345.69518,1.51761
345.45411,1.52190
345.21304,1.50417
344.97197,1.48304
344.73090,1.47661
344.48983,1.48838
344.24875,1.50888
344.00768,1.52779
343.76661,1.54136
343.52554,1.55099
343.28447,1.55857
343.04340,1.56156
342.80233,1.55855
342.56126,1.55712
342.32019,1.56363
342.07912,1.58024
341.83805,1.60919
341.59698,1.64758
341.35591,1.68096
341.11484,1.69143
340.87377,1.68245
340.63270,1.68101
340.39163,1.70523
340.15056,1.74843
339.90948,1.79142
339.66841,1.81105
339.42734,1.80494
339.18627,1.79890
338.94520,1.80087
338.70413,1.81434
338.46306,1.85452
338.22199,1.91985
337.98092,1.98122
337.73985,2.00705
337.49878,2.00973
337.25771,2.00303
337.01664,1.98002
336.77557,1.96980
336.53450,1.98796
336.29343,2.01853
336.05236,2.04886
335.81129,2.07775
335.57021,2.09610
335.32914,2.07400
335.08807,2.02470
334.84700,2.00033
334.60593,2.00800
334.36486,2.01508
334.12379,1.98782
333.88272,1.94501
333.64165,1.93039
333.40058,1.92045
333.15951,1.86711
332.91844,1.79433
332.67737,1.73866
332.43630,1.69586
332.19523,1.65681
331.95416,1.64111
331.71309,1.67352
331.47202,1.74071
331.23094,1.78238
330.98987,1.76239
330.74880,1.71770
330.50773,1.68472
330.26666,1.66187
330.02559,1.64205
329.78452,1.63196
329.54345,1.63402
329.30238,1.63802
329.06131,1.63589
328.82024,1.63058
328.57917,1.62651
328.33810,1.62120
328.09703,1.60982
327.85596,1.59221
327.61489,1.58198
327.37382,1.59693
327.13275,1.63645
326.89167,1.68006
326.65060,1.70625
326.40953,1.71011
326.16846,1.69893
325.92739,1.68104
325.68632,1.66805
325.44525,1.66727
325.20418,1.67672
324.96311,1.68983
324.72204,1.70228
324.48097,1.72199
324.23990,1.76037
323.99883,1.81842
323.75776,1.88502
323.51669,1.95566
323.27562,2.00542
323.03455,1.94706
322.79348,1.84770
322.55240,1.79212
322.31133,1.78193
322.07026,1.82788
321.82919,1.90873
321.58812,1.95397
321.34705,1.95981
321.10598,1.97508
320.86491,2.00231
320.62384,2.00188
320.38277,1.97120
320.14170,1.97840
319.90063,2.08843
319.65956,2.25869
319.41849,2.42629
319.17742,2.59494
318.93635,2.22385
318.69528,1.98546
318.45421,1.97809
318.21313,2.05813
317.97206,2.07209
317.73099,2.03647
317.48992,2.07011
317.24885,2.12576
317.00778,2.18163
316.76671,2.26731
316.52564,2.22371
316.28457,2.07429
316.04350,1.98724
315.80243,2.02128
315.56136,2.16987
315.32029,2.34379
315.07922,2.34970
314.83815,2.19876
314.59708,2.10522
314.35601,2.15051
314.11494,2.21973
313.87386,2.28535
313.63279,2.44263
313.39172,2.51191
313.15065,2.43454
312.90958,2.34070
312.66851,2.29421
312.42744,2.30509
312.18637,2.40895
311.94530,2.55551
311.70423,2.66014
311.46316,2.77245
311.22209,2.72500
310.98102,2.58413
310.73995,2.51415
310.49888,2.34224
310.25781,2.19545
310.01674,2.10987
309.77567,2.03403
309.53459,1.98203
309.29352,1.94029
309.05245,1.95059
308.81138,2.04784
308.57031,2.23529
308.32924,2.46000
308.08817,2.39207
307.84710,2.11828
307.60603,1.96096
307.36496,1.93450
307.12389,1.96997
306.88282,1.98384
306.64175,1.93235
306.40068,1.85645
306.15961,1.79496
305.91854,1.74561
305.67747,1.70435
305.43640,1.67841
305.19532,1.66833
304.95425,1.66621
304.71318,1.66554
304.47211,1.66655
304.23104,1.66259
303.98997,1.63311
303.74890,1.57459
303.50783,1.51448
303.26676,1.47597
303.02569,1.46052
302.78462,1.45848
302.54355,1.46022
302.30248,1.45967
302.06141,1.45339
301.82034,1.43888
301.57927,1.41867
301.33820,1.39959
301.09713,1.38375
300.85605,1.36700
300.61498,1.34650
300.37391,1.32355
300.13284,1.30095
299.89177,1.28172
299.65070,1.26883
299.40963,1.26312
299.16856,1.26049
298.92749,1.25421
298.68642,1.24106
298.44535,1.22423
298.20428,1.21078
297.96321,1.20533
297.72214,1.20531
297.48107,1.20463
297.24000,1.20301
296.99893,1.20657
296.75786,1.21664
296.51678,1.22424
296.27571,1.22021
296.03464,1.20688
295.79357,1.19374
295.55250,1.18534
295.31143,1.17922
295.07036,1.17216
294.82929,1.16470
294.58822,1.15815
294.34715,1.15006
294.10608,1.13877
293.86501,1.13013
293.62394,1.13169
293.38287,1.14175
293.14180,1.14972
292.90073,1.14779
292.65966,1.13789
292.41859,1.12686
292.17751,1.11946
291.93644,1.11630
291.69537,1.11538
291.45430,1.11451
291.21323,1.11294
290.97216,1.11077
290.73109,1.10806
290.49002,1.10494
290.24895,1.10168
290.00788,1.09798
289.76681,1.09342
289.52574,1.08859
289.28467,1.08430
289.04360,1.08000
288.80253,1.07499
288.56146,1.07030
288.32039,1.06659
288.07932,1.06286
287.83824,1.05836
287.59717,1.05376
287.35610,1.05060
287.11503,1.05058
286.87396,1.05410
286.63289,1.05928
286.39182,1.06306
286.15075,1.06311
285.90968,1.05897
285.66861,1.05225
285.42754,1.04630
285.18647,1.04438
284.94540,1.04686
284.70433,1.05002
284.46326,1.04896
284.22219,1.04324
283.98112,1.03805
283.74005,1.03820
283.49897,1.04264
283.25790,1.04640
283.01683,1.04712
282.77576,1.04715
282.53469,1.04829
282.29362,1.04881
282.05255,1.04733
281.81148,1.04509
281.57041,1.04303
281.32934,1.04017
281.08827,1.03635
280.84720,1.03395
280.60613,1.03513
280.36506,1.03822
280.12399,1.03900
279.88292,1.03635
279.64185,1.03317
279.40078,1.03103
279.15970,1.02824
278.91863,1.02446
278.67756,1.02291
278.43649,1.02589
278.19542,1.03119
277.95435,1.03459
277.71328,1.03423
277.47221,1.03113
277.23114,1.02698
276.99007,1.02357
276.74900,1.02269
276.50793,1.02451
276.26686,1.02694
276.02579,1.02877
275.78472,1.03135
275.54365,1.03451
275.30258,1.03435
275.06151,1.02888
274.82043,1.02210
274.57936,1.01911
274.33829,1.02075
274.09722,1.02452
273.85615,1.02791
273.61508,1.02955
273.37401,1.02900
273.13294,1.02752
272.89187,1.02767
272.65080,1.03050
272.40973,1.03470
272.16866,1.03935
271.92759,1.04528
271.68652,1.05233
271.44545,1.05763
271.20438,1.05868
270.96331,1.05629
270.72224,1.05288
270.48116,1.05057
270.24009,1.05056
269.99902,1.05328
269.75795,1.05908
269.51688,1.06851
269.27581,1.08077
269.03474,1.09293
268.79367,1.10227
268.55260,1.10802
268.31153,1.10961
268.07046,1.10659
267.82939,1.10103
267.58832,1.09651
267.34725,1.09482
267.10618,1.09567
266.86511,1.09894
266.62404,1.10534
266.38297,1.11520
266.14189,1.12732
265.90082,1.13871
265.65975,1.14495
265.41868,1.14325
265.17761,1.13774
264.93654,1.13789
264.69547,1.14862
264.45440,1.16516
264.21333,1.18033
263.97226,1.19293
263.73119,1.20383
263.49012,1.21140
263.24905,1.21731
263.00798,1.22792
262.76691,1.24435
262.52584,1.25860
262.28477,1.26498
262.04370,1.26975
261.80262,1.28186
261.56155,1.29863
261.32048,1.30825
261.07941,1.30672
260.83834,1.30454
260.59727,1.31313
260.35620,1.33242
260.11513,1.35363
259.87406,1.36931
259.63299,1.38039
259.39192,1.39468
259.15085,1.41924
258.90978,1.45433
258.66871,1.49346
258.42764,1.52647
258.18657,1.54621
257.94550,1.55879
257.70443,1.57937
257.46335,1.61615
257.22228,1.66425
256.98121,1.71040
256.74014,1.74640
256.49907,1.77787
256.25800,1.81077
256.01693,1.84266
255.77586,1.86676
255.53479,1.88933
255.29372,1.93647
255.05265,2.02311
254.81158,2.11213
254.57051,2.15354
254.32944,2.18890
254.08837,2.24886
253.84730,2.29504
253.60623,2.34438
253.36516,2.47371
253.12408,2.63640
252.88301,2.56933
252.64194,2.37779
252.40087,2.28446
252.15980,2.33093
251.91873,2.48677
251.67766,2.59836
251.43659,2.55506
251.19552,2.48538
250.95445,2.38601
250.71338,2.35075
250.47231,2.44772
250.23124,2.50329
249.99017,2.60425
249.74910,2.81449
249.50803,3.00730
249.26696,2.84532
249.02589,2.61665
248.78481,2.46411
248.54374,2.47144
248.30267,2.57519
248.06160,2.55515
247.82053,2.46408
247.57946,2.42250
247.33839,2.42564
247.09732,2.44896
246.85625,2.47022
246.61518,2.39691
246.37411,2.28617
246.13304,2.26779
245.89197,2.32656
245.65090,2.35189
245.40983,2.24358
245.16876,2.13550
244.92769,2.11166
244.68661,2.11227
244.44554,2.04177
244.20447,1.92651
243.96340,1.82932
243.72233,1.76121
243.48126,1.70343
243.24019,1.63948
242.99912,1.56890
242.75805,1.50111
242.51698,1.44411
242.27591,1.39665
242.03484,1.35321
241.79377,1.31160
241.55270,1.27121
241.31163,1.23083
241.07056,1.19080
240.82949,1.15254
240.58842,1.11556
240.34734,1.07910
240.10627,1.04524
239.86520,1.01594
239.62413,0.98936
239.38306,0.96256
239.14199,0.93578
238.90092,0.91194
238.65985,0.89318
238.41878,0.87911
238.17771,0.86680
237.93664,0.85276
237.69557,0.83635
237.45450,0.82022
237.21343,0.80680
236.97236,0.79632
236.73129,0.78810
236.49022,0.78132
236.24915,0.77440
236.00807,0.76584
235.76700,0.75608
235.52593,0.74697
235.28486,0.73984
235.04379,0.73474
234.80272,0.73080
234.56165,0.72726
234.32058,0.72454
234.07951,0.72352
233.83844,0.72372
233.59737,0.72336
233.35630,0.72154
233.11523,0.71866
232.87416,0.71490
232.63309,0.70972
232.39202,0.70352
232.15095,0.69832
231.90988,0.69566
231.66880,0.69485
231.42773,0.69415
231.18666,0.69323
230.94559,0.69286
230.70452,0.69261
230.46345,0.69115
230.22238,0.68872
229.98131,0.68725
229.74024,0.68772
229.49917,0.68924
229.25810,0.69059
229.01703,0.69103
228.77596,0.69004
228.53489,0.68791
228.29382,0.68620
228.05275,0.68584
227.81168,0.68540
227.57061,0.68281
227.32953,0.67852
227.08846,0.67539
226.84739,0.67579
226.60632,0.67928
226.36525,0.68308
226.12418,0.68481
225.88311,0.68482
225.64204,0.68468
225.40097,0.68474
225.15990,0.68447
224.91883,0.68443
224.67776,0.68603
224.43669,0.68956
224.19562,0.69338
223.95455,0.69595
223.71348,0.69833
223.47241,0.70311
223.23134,0.71048
222.99026,0.71759
222.74919,0.72243
222.50812,0.72601
222.26705,0.73005
222.02598,0.73512
221.78491,0.74107
221.54384,0.74736
221.30277,0.75363
221.06170,0.76045
220.82063,0.76798
220.57956,0.77415
220.33849,0.77725
220.09742,0.77936
219.85635,0.78461
219.61528,0.79431
219.37421,0.80589
219.13314,0.81675
218.89207,0.82747
218.65099,0.84002
218.40992,0.85429
218.16885,0.86799
217.92778,0.87979
217.68671,0.89103
217.44564,0.90372
217.20457,0.91720
216.96350,0.92773
216.72243,0.93334
216.48136,0.93768
216.24029,0.94612
215.99922,0.95948
215.75815,0.97433
215.51708,0.98802
215.27601,1.00075
215.03494,1.01293
214.79387,1.02393
214.55280,1.03367
214.31172,1.04337
214.07065,1.05413
213.82958,1.06583
213.58851,1.07788
213.34744,1.08969
213.10637,1.10014
212.86530,1.10786
212.62423,1.11216
212.38316,1.11315
212.14209,1.11143
211.90102,1.10921
211.65995,1.11109
211.41888,1.11993
211.17781,1.13254
210.93674,1.14182
210.69567,1.14348
210.45460,1.13970
210.21353,1.13578
209.97245,1.13435
209.73138,1.13354
209.49031,1.13142
209.24924,1.12993
209.00817,1.13094
208.76710,1.13163
208.52603,1.12835
208.28496,1.12260
208.04389,1.11794
207.80282,1.11342
207.56175,1.10626
207.32068,1.09729
207.07961,1.08908
206.83854,1.08150
206.59747,1.07277
206.35640,1.06293
206.11533,1.05368
205.87426,1.04562
205.63318,1.03786
205.39211,1.02959
205.15104,1.02000
204.90997,1.00799
204.66890,0.99351
204.42783,0.97862
204.18676,0.96603
203.94569,0.95552
203.70462,0.94410
203.46355,0.93097
203.22248,0.91931
202.98141,0.91062
202.74034,0.90127
202.49927,0.88823
202.25820,0.87344
202.01713,0.85954
201.77606,0.84609
201.53499,0.83195
201.29391,0.81730
201.05284,0.80293
200.81177,0.78938
200.57070,0.77653
200.32963,0.76397
200.08856,0.75200
199.84749,0.74137
199.60642,0.73166
199.36535,0.72116
199.12428,0.70912
198.88321,0.69693
198.64214,0.68642
198.40107,0.67769
198.16000,0.66953
197.91893,0.66120
197.67786,0.65276
197.43679,0.64423
197.19572,0.63556
196.95464,0.62703
196.71357,0.61897
196.47250,0.61136
196.23143,0.60394
195.99036,0.59654
195.74929,0.58926
195.50822,0.58235
195.26715,0.57588
195.02608,0.56957
194.78501,0.56325
194.54394,0.55724
194.30287,0.55216
194.06180,0.54857
193.82073,0.54642
193.57966,0.54492
193.33859,0.54282
193.09752,0.53922
192.85645,0.53397
192.61537,0.52745
192.37430,0.52036
192.13323,0.51384
191.89216,0.50922
191.65109,0.50713
191.41002,0.50677
191.16895,0.50634
190.92788,0.50443
190.68681,0.50111
190.44574,0.49751
190.20467,0.49448
189.96360,0.49224
189.72253,0.49067
189.48146,0.48912
189.24039,0.48668
188.99932,0.48353
188.75825,0.48105
188.51718,0.48004
188.27610,0.47982
188.03503,0.47909
187.79396,0.47701
187.55289,0.47407
187.31182,0.47205
187.07075,0.47226
186.82968,0.47400
186.58861,0.47545
186.34754,0.47560
186.10647,0.47453
185.86540,0.47295
185.62433,0.47182
185.38326,0.47186
185.14219,0.47315
184.90112,0.47544
184.66005,0.47847
184.41898,0.48188
184.17791,0.48506
183.93683,0.48725
183.69576,0.48799
183.45469,0.48776
183.21362,0.48754
182.97255,0.48797
182.73148,0.48909
182.49041,0.49066
182.24934,0.49265
182.00827,0.49542
181.76720,0.49903
181.52613,0.50244
181.28506,0.50426
181.04399,0.50460
180.80292,0.50493
180.56185,0.50618
180.32078,0.50818
180.07971,0.51073
179.83864,0.51423
179.59756,0.51905
179.35649,0.52500
179.11542,0.53097
178.87435,0.53561
178.63328,0.53914
178.39221,0.54425
178.15114,0.55381
177.91007,0.56766
177.66900,0.58250
177.42793,0.59533
177.18686,0.60621
176.94579,0.61685
176.70472,0.62795
176.46365,0.63946
176.22258,0.65244
175.98151,0.66855
175.74044,0.68771
175.49937,0.70751
175.25829,0.72579
175.01722,0.74317
174.77615,0.76214
174.53508,0.78383
174.29401,0.80634
174.05294,0.82660
173.81187,0.84328
173.57080,0.85717
173.32973,0.86979
173.08866,0.88259
172.84759,0.89653
172.60652,0.91017
172.36545,0.91955
172.12438,0.92260
171.88331,0.92250
171.64224,0.92331
171.40117,0.92426
171.16010,0.92169
170.91902,0.91530
170.67795,0.90834
170.43688,0.90254
170.19581,0.89658
169.95474,0.88940
169.71367,0.88214
169.47260,0.87613
169.23153,0.87127
168.99046,0.86659
168.74939,0.86150
168.50832,0.85643
168.26725,0.85211
168.02618,0.84844
167.78511,0.84519
167.54404,0.84366
167.30297,0.84510
167.06190,0.84755
166.82083,0.84763
166.57975,0.84556
166.33868,0.84514
166.09761,0.84880
165.85654,0.85579
165.61547,0.86447
165.37440,0.87375
165.13333,0.88271
164.89226,0.89105
164.65119,0.89992
164.41012,0.91036
164.16905,0.92133
163.92798,0.93100
163.68691,0.93933
163.44584,0.94764
163.20477,0.95710
162.96370,0.96808
162.72263,0.97893
162.48156,0.98669
162.24048,0.99200
161.99941,0.99963
161.75834,1.01075
161.51727,1.02034
161.27620,1.02402
161.03513,1.02254
160.79406,1.01849
160.55299,1.01327
160.31192,1.00725
160.07085,1.00009
159.82978,0.99130
159.58871,0.98217
159.34764,0.97527
159.10657,0.97093
158.86550,0.96669
158.62443,0.96088
158.38336,0.95394
158.14229,0.94622
157.90121,0.93771
157.66014,0.92977
157.41907,0.92477
157.17800,0.92396
156.93693,0.92668
156.69586,0.93022
156.45479,0.93080
156.21372,0.92710
155.97265,0.92138
155.73158,0.91504
155.49051,0.90606
155.24944,0.89326
155.00837,0.87953
154.76730,0.86912
154.52623,0.86302
154.28516,0.85729
154.04409,0.84667
153.80302,0.83013
153.56194,0.81075
153.32087,0.79103
153.07980,0.77183
152.83873,0.75436
152.59766,0.73940
152.35659,0.72498
152.11552,0.70803
151.87445,0.68844
151.63338,0.66928
151.39231,0.65303
151.15124,0.63935
150.91017,0.62613
150.66910,0.61156
150.42803,0.59501
150.18696,0.57775
149.94589,0.56248
149.70482,0.55096
149.46375,0.54211
149.22267,0.53342
148.98160,0.52373
148.74053,0.51405
148.49946,0.50604
148.25839,0.50065
148.01732,0.49775
147.77625,0.49639
147.53518,0.49569
147.29411,0.49519
147.05304,0.49460
146.81197,0.49387
146.57090,0.49340
146.32983,0.49372
146.08876,0.49517
145.84769,0.49772
145.60662,0.50094
145.36555,0.50440
145.12448,0.50840
144.88340,0.51349
144.64233,0.51949
144.40126,0.52570
144.16019,0.53145
143.91912,0.53593
143.67805,0.53813
143.43698,0.53744
143.19591,0.53376
142.95484,0.52725
142.71377,0.51822
142.47270,0.50733
142.23163,0.49572
141.99056,0.48493
141.74949,0.47610
141.50842,0.46915
141.26735,0.46327
141.02628,0.45812
140.78521,0.45399
140.54413,0.45101
140.30306,0.44900
140.06199,0.44830
139.82092,0.45003
139.57985,0.45474
139.33878,0.46132
139.09771,0.46775
138.85664,0.47298
138.61557,0.47766
138.37450,0.48338
138.13343,0.49163
137.89236,0.50301
137.65129,0.51684
137.41022,0.53151
137.16915,0.54602
136.92808,0.56111
136.68701,0.57842
136.44594,0.59872
136.20486,0.62136
135.96379,0.64538
135.72272,0.67033
135.48165,0.69606
135.24058,0.72272
134.99951,0.75078
134.75844,0.78035
134.51737,0.81050
134.27630,0.83987
134.03523,0.86795
133.79416,0.89475
133.55309,0.91917
133.31202,0.93899
133.07095,0.95301
132.82988,0.96261
132.58881,0.97067
132.34774,0.97874
132.10667,0.98538
131.86559,0.98726
131.62452,0.98191
131.38345,0.96969
131.14238,0.95378
130.90131,0.93791
130.66024,0.92247
130.41917,0.90350
130.17810,0.87745
129.93703,0.84592
129.69596,0.81332
129.45489,0.78221
129.21382,0.75305
128.97275,0.72572
128.73168,0.69933
128.49061,0.67187
128.24954,0.64199
128.00847,0.61111
127.76740,0.58223
127.52632,0.55712
127.28525,0.53550
127.04418,0.51622
126.80311,0.49822
126.56204,0.48109
126.32097,0.46531
126.07990,0.45170
125.83883,0.44014
125.59776,0.42912
125.35669,0.41736
125.11562,0.40537
124.87455,0.39463
124.63348,0.38556
124.39241,0.37746
124.15134,0.36998
123.91027,0.36357
123.66920,0.35828
123.42812,0.35328
123.18705,0.34805
122.94598,0.34343
122.70491,0.34088
122.46384,0.34065
122.22277,0.34181
121.98170,0.34406
121.74063,0.34817
121.49956,0.35425
121.25849,0.36089
121.01742,0.36678
120.77635,0.37234
120.53528,0.37921
120.29421,0.38850
120.05314,0.40001
119.81207,0.41332
119.57100,0.42889
119.32993,0.44778
119.08885,0.47045
118.84778,0.49617
118.60671,0.52339
118.36564,0.55079
118.12457,0.57794
117.88350,0.60489
117.64243,0.63094
117.40136,0.65340
117.16029,0.66848
116.91922,0.67511
116.67815,0.67593
116.43708,0.67273
116.19601,0.66405
115.95494,0.64927
115.71387,0.63211
115.47280,0.61751
115.23173,0.60693
114.99066,0.59791
114.74958,0.58775
114.50851,0.57693
114.26744,0.56799
114.02637,0.56130
113.78530,0.55464
113.54423,0.54765
113.30316,0.54366
113.06209,0.54549
112.82102,0.55169
112.57995,0.55854
112.33888,0.56414
112.09781,0.56909
111.85674,0.57400
111.61567,0.57897
111.37460,0.58441
111.13353,0.59038
110.89246,0.59548
110.65139,0.59745
110.41031,0.59498
110.16924,0.58893
109.92817,0.58159
109.68710,0.57403
109.44603,0.56450
109.20496,0.55023
108.96389,0.53097
108.72282,0.50930
108.48175,0.48780
108.24068,0.46751
107.99961,0.44842
107.75854,0.43007
107.51747,0.41223
107.27640,0.39542
107.03533,0.38041
106.79426,0.36724
106.55319,0.35586
106.31212,0.34671
106.07104,0.33916
105.82997,0.33108
105.58890,0.32169
105.34783,0.31293
105.10676,0.30594
104.86569,0.29878
104.62462,0.28940
104.38355,0.27866
104.14248,0.26893
103.90141,0.26139
103.66034,0.25591
103.41927,0.25194
103.17820,0.24856
102.93713,0.24444
102.69606,0.23873
102.45499,0.23214
102.21392,0.22648
101.97285,0.22277
101.73177,0.22013
101.49070,0.21716
101.24963,0.21374
101.00856,0.21071
100.76749,0.20813
100.52642,0.20497
100.28535,0.20055
100.04428,0.19562
99.80321,0.19167
99.56214,0.18955
99.32107,0.18885
99.08000,0.18846
98.83893,0.18776
98.59786,0.18712
98.35679,0.18712
98.11572,0.18782
97.87465,0.18932
97.63358,0.19207
97.39250,0.19589
97.15143,0.19977
96.91036,0.20316
96.66929,0.20672
96.42822,0.21125
96.18715,0.21677
95.94608,0.22284
95.70501,0.22903
95.46394,0.23509
95.22287,0.24115
94.98180,0.24753
94.74073,0.25381
94.49966,0.25877
94.25859,0.26180
94.01752,0.26373
93.77645,0.26549
93.53538,0.26664
93.29431,0.26607
93.05323,0.26415
92.81216,0.26271
92.57109,0.26271
92.33002,0.26332
92.08895,0.26432
91.84788,0.26736
91.60681,0.27398
91.36574,0.28395
91.12467,0.29667
90.88360,0.31268
90.64253,0.33348
90.40146,0.36075
90.16039,0.39537
89.91932,0.43557
89.67825,0.47665
89.43718,0.51422
89.19611,0.54713
88.95504,0.57515
88.71396,0.59485
88.47289,0.59986
88.23182,0.58579
87.99075,0.55458
87.74968,0.51358
87.50861,0.47078
87.26754,0.43126
87.02647,0.39627
86.78540,0.36467
86.54433,0.33557
86.30326,0.30960
86.06219,0.28739
85.82112,0.26795
85.58005,0.24958
85.33898,0.23165
85.09791,0.21491
84.85684,0.20021
84.61577,0.18760
84.37469,0.17680
84.13362,0.16790
83.89255,0.16076
83.65148,0.15468
83.41041,0.14912
83.16934,0.14419
82.92827,0.14010
82.68720,0.13690
82.44613,0.13457
82.20506,0.13273
81.96399,0.13065
81.72292,0.12810
81.48185,0.12545
81.24078,0.12299
80.99971,0.12096
80.75864,0.11994
80.51757,0.12015
80.27650,0.12037
80.03542,0.11900
79.79435,0.11580
79.55328,0.11178
79.31221,0.10783
79.07114,0.10479
78.83007,0.10354
78.58900,0.10376
78.34793,0.10344
78.10686,0.10118
77.86579,0.09799
77.62472,0.09557
77.38365,0.09431
77.14258,0.09387
76.90151,0.09404
76.66044,0.09443
76.41937,0.09435
76.17830,0.09363
75.93723,0.09249
75.69615,0.09092
75.45508,0.08907
75.21401,0.08771
74.97294,0.08737
74.73187,0.08746
74.49080,0.08690
74.24973,0.08520
74.00866,0.08293
73.76759,0.08158
73.52652,0.08226
73.28545,0.08439
73.04438,0.08627
72.80331,0.08701
72.56224,0.08690
72.32117,0.08635
72.08010,0.08583
71.83903,0.08622
71.59796,0.08834
71.35688,0.09214
71.11581,0.09716
70.87474,0.10339
70.63367,0.11133
70.39260,0.12097
70.15153,0.13154
69.91046,0.14277
69.66939,0.15534
69.42832,0.16887
69.18725,0.17982
68.94618,0.18342
68.70511,0.17812
68.46404,0.16681
68.22297,0.15335
67.98190,0.13974
67.74083,0.12689
67.49976,0.11614
67.25869,0.10849
67.01761,0.10308
66.77654,0.09822
66.53547,0.09346
66.29440,0.08949
66.05333,0.08668
65.81226,0.08529
65.57119,0.08598
65.33012,0.08881
65.08905,0.09261
64.84798,0.09616
64.60691,0.09921
64.36584,0.10199
64.12477,0.10456
63.88370,0.10679
63.64263,0.10819
63.40156,0.10768
63.16049,0.10465
62.91942,0.09999
62.67834,0.09537
62.43727,0.09158
62.19620,0.08805
61.95513,0.08420
61.71406,0.08076
61.47299,0.07876
61.23192,0.07787
60.99085,0.07695
60.74978,0.07587
60.50871,0.07535
60.26764,0.07574
60.02657,0.07691
59.78550,0.07829
59.54443,0.07834
59.30336,0.07596
59.06229,0.07259
58.82122,0.07054
58.58015,0.06986
58.33907,0.06935
58.09800,0.06921
57.85693,0.07029
57.61586,0.07195
57.37479,0.07235
57.13372,0.06997
56.89265,0.06482
56.65158,0.05875
56.41051,0.05452
56.16944,0.05372
55.92837,0.05568
55.68730,0.05844
55.44623,0.06043
55.20516,0.06124
54.96409,0.06106
54.72302,0.05995
54.48195,0.05836
54.24088,0.05764
53.99980,0.05902
53.75873,0.06228
53.51766,0.06598
53.27659,0.06897
53.03552,0.07136
52.79445,0.07335
52.55338,0.07384
52.31231,0.07172
52.07124,0.06784
51.83017,0.06415
51.58910,0.06156
51.34803,0.06002
51.10696,0.05972
50.86589,0.06097
50.62482,0.06317
50.38375,0.06473
50.14268,0.06420
49.90161,0.06179
49.66053,0.05914
49.41946,0.05721
49.17839,0.05544
48.93732,0.05327
48.69625,0.05150
48.45518,0.05113
48.21411,0.05135
47.97304,0.04998
47.73197,0.04615
47.49090,0.04144
47.24983,0.03753
47.00876,0.03401
46.76769,0.03009
46.52662,0.02700
46.28555,0.02705
46.04448,0.03056
45.80341,0.03508
45.56234,0.03836
45.32126,0.04126
45.08019,0.04579
44.83912,0.05061
44.59805,0.05196
44.35698,0.04979
44.11591,0.04826
43.87484,0.04889
43.63377,0.04804
43.39270,0.04249
43.15163,0.03396
42.91056,0.02659
42.66949,0.02230
42.42842,0.02069
42.18735,0.02163
41.94628,0.02571
41.70521,0.03187
41.46414,0.03626
41.22307,0.03657
40.98199,0.03591
40.74092,0.03752
40.49985,0.03793
40.25878,0.03215
40.01771,0.02328
39.77664,0.02005
39.53557,0.02654
39.29450,0.03888
39.05343,0.05012
38.81236,0.05479
38.57129,0.05219
38.33022,0.04746
38.08915,0.04678
37.84808,0.05166
37.60701,0.05908
37.36594,0.06514
37.12487,0.06881
36.88380,0.07133
36.64272,0.07234
36.40165,0.07048
36.16058,0.06824
35.91951,0.07027
35.67844,0.07562
35.43737,0.07814
35.19630,0.07617
34.95523,0.07502
34.71416,0.07834
34.47309,0.08373
34.23202,0.08727
33.99095,0.08809
33.74988,0.09005
33.50881,0.09998
33.26774,0.11920
33.02667,0.14048
32.78560,0.15844
32.54453,0.17241
32.30345,0.17968
32.06238,0.17425
31.82131,0.15386
31.58024,0.12244
31.33917,0.08736
31.09810,0.06024
30.85703,0.04888
30.61596,0.04815
30.37489,0.04877
30.13382,0.05026
29.89275,0.05627
29.65168,0.06601
29.41061,0.07662
29.16954,0.08657
28.92847,0.09435
28.68740,0.09815
28.44633,0.10148
28.20526,0.11505
27.96418,0.14460
27.72311,0.18045
27.48204,0.20492
27.24097,0.21004
26.99990,0.20302
26.75883,0.19232
26.51776,0.17581
26.27669,0.15202
26.03562,0.13920
25.79455,0.15790
25.55348,0.19444
25.31241,0.22200
25.07134,0.23503
24.83027,0.24027
24.58920,0.24376
24.34813,0.25354
24.10706,0.27317
23.86599,0.29619
23.62491,0.31709
23.38384,0.34561
23.14277,0.39236
22.90170,0.45645
22.66063,0.50731
22.41956,0.48524
22.17849,0.40448
21.93742,0.32018
21.69635,0.26462
21.45528,0.26281
21.21421,0.31756
20.97314,0.37980
20.73207,0.40514
20.49100,0.41038
20.24993,0.42570
20.00886,0.44926
19.76779,0.45639
19.52672,0.45034
19.28564,0.45068
19.04457,0.48139
18.80350,0.54744
18.56243,0.61078
18.32136,0.60959
18.08029,0.55598
17.83922,0.52690
17.59815,0.53422
17.35708,0.57540
17.11601,0.66707
16.87494,0.74648
16.63387,0.73788
16.39280,0.66765
16.15173,0.60592
15.91066,0.61179
15.66959,0.70082
15.42852,0.77273
15.18745,0.71245
14.94637,0.64197
14.70530,0.60568
14.46423,0.59465
14.22316,0.59394
13.98209,0.60295
13.74102,0.60313
13.49995,0.59719
13.25888,0.62974
13.01781,0.73694
12.77674,0.91980
12.53567,1.04191
12.29460,0.87751
12.05353,0.74487
11.81246,0.71691
11.57139,0.65598
11.33032,0.66341
11.08925,0.77905
10.84818,0.94124
10.60710,1.03582
10.36603,1.03909
10.12496,1.00067
9.88389,0.92200
9.64282,0.91844
9.40175,0.88180
9.16068,0.80646
8.91961,0.82873
8.67854,0.94626
8.43747,1.02476
8.19640,1.08124
7.95533,0.98270
7.71426,0.95044
7.47319,1.02313
7.23212,1.18701
6.99105,1.15096
6.74998,1.03030
6.50891,1.00818
6.26783,0.94906
6.02676,0.92492
5.78569,0.93993
5.54462,0.94977
5.30355,1.04035
5.06248,1.08447
4.82141,0.97547
4.58034,0.94951
4.33927,0.89773
4.09820,0.80942
3.85713,0.89027
3.61606,1.19472
3.37499,1.25103
3.13392,0.96122
2.89285,0.79468
2.65178,0.75215
2.41071,0.79153
2.16964,0.76843
1.92856,0.67667
1.68749,0.67184
1.44642,0.70433
1.20535,0.72232
0.96428,0.74920
0.72321,0.76173
0.48214,0.74833
0.24107,0.75646
-0.00000,0.72002
