399.69498,1.56299
399.45391,1.55120
399.21284,1.54199
398.97177,1.53585
398.73070,1.52899
398.48963,1.52402
398.24856,1.52882
398.00749,1.54118
397.76642,1.54782
397.52535,1.54663
397.28428,1.55206
397.04321,1.57007
396.80214,1.58441
396.56107,1.57782
396.32000,1.55656
396.07892,1.53731
395.83785,1.52569
395.59678,1.51888
395.35571,1.51511
395.11464,1.51384
394.87357,1.51286
394.63250,1.51304
394.39143,1.51981
394.15036,1.53244
393.90929,1.54224
393.66822,1.54603
393.42715,1.54775
393.18608,1.54253
392.94501,1.52560
392.70394,1.50838
392.46287,1.50676
392.22180,1.52531
391.98073,1.54668
391.73965,1.54765
391.49858,1.53042
391.25751,1.51930
391.01644,1.52947
390.77537,1.54613
390.53430,1.54328
390.29323,1.51795
390.05216,1.48873
389.81109,1.47578
389.57002,1.48620
389.32895,1.50691
389.08788,1.51285
388.84681,1.49543
388.60574,1.47071
388.36467,1.45781
388.12360,1.46168
387.88253,1.47161
387.64146,1.47626
387.40038,1.47868
387.15931,1.48993
386.91824,1.51152
386.67717,1.52518
386.43610,1.50978
386.19503,1.47374
385.95396,1.43164
385.71289,1.39147
385.47182,1.36411
385.23075,1.35693
384.98968,1.36559
384.74861,1.37403
384.50754,1.37093
384.26647,1.36169
384.02540,1.35799
383.78433,1.36110
383.54326,1.36137
383.30219,1.35469
383.06111,1.34777
382.82004,1.34469
382.57897,1.33701
382.33790,1.31668
382.09683,1.29405
381.85576,1.28942
381.61469,1.31012
381.37362,1.33567
381.13255,1.33786
380.89148,1.31904
380.65041,1.29440
380.40934,1.26815
380.16827,1.24461
379.92720,1.23509
379.68613,1.24901
379.44506,1.28147
379.20399,1.31246
378.96292,1.32473
378.72184,1.32274
378.48077,1.32242
378.23970,1.32811
377.99863,1.33092
377.75756,1.32496
377.51649,1.31735
377.27542,1.31658
377.03435,1.32022
376.79328,1.32445
376.55221,1.33385
376.31114,1.35472
376.07007,1.38594
375.82900,1.41551
375.58793,1.42729
375.34686,1.41451
375.10579,1.38581
374.86472,1.36220
374.62365,1.36275
374.38257,1.38539
374.14150,1.40681
373.90043,1.41103
373.65936,1.40728
373.41829,1.40886
373.17722,1.41638
372.93615,1.42302
372.69508,1.42237
372.45401,1.41436
372.21294,1.40919
371.97187,1.41687
371.73080,1.43304
371.48973,1.43999
371.24866,1.42826
371.00759,1.40973
370.76652,1.39681
370.52545,1.38493
370.28437,1.36496
370.04330,1.34085
369.80223,1.32571
369.56116,1.32456
369.32009,1.32816
369.07902,1.32644
368.83795,1.32119
368.59688,1.31576
368.35581,1.30529
368.11474,1.28980
367.87367,1.27956
367.63260,1.27962
367.39153,1.28076
367.15046,1.27214
366.90939,1.25674
366.66832,1.24578
366.42725,1.24413
366.18618,1.24867
365.94510,1.25645
365.70403,1.26634
365.46296,1.27432
365.22189,1.27467
364.98082,1.26669
364.73975,1.25668
364.49868,1.25133
364.25761,1.25265
364.01654,1.25799
363.77547,1.26142
363.53440,1.25853
363.29333,1.25122
363.05226,1.24443
362.81119,1.23939
362.57012,1.23532
362.32905,1.23400
362.08798,1.23650
361.84691,1.23911
361.60583,1.23750
361.36476,1.23257
361.12369,1.22844
360.88262,1.22732
360.64155,1.22942
360.40048,1.23438
360.15941,1.24012
359.91834,1.24314
359.67727,1.24192
359.43620,1.23781
359.19513,1.23262
358.95406,1.22801
358.71299,1.22526
358.47192,1.22242
358.23085,1.21552
357.98978,1.20554
357.74871,1.19965
357.50764,1.20156
357.26656,1.20780
357.02549,1.21534
356.78442,1.22367
356.54335,1.22971
356.30228,1.22857
356.06121,1.22096
355.82014,1.21376
355.57907,1.21097
355.33800,1.21031
355.09693,1.20968
354.85586,1.21060
354.61479,1.21324
354.37372,1.21439
354.13265,1.21267
353.89158,1.21089
353.65051,1.21031
353.40944,1.20712
353.16837,1.19958
352.92729,1.19412
352.68622,1.19720
352.44515,1.20607
352.20408,1.21492
351.96301,1.22408
351.72194,1.23427
351.48087,1.23759
351.23980,1.22684
350.99873,1.20885
350.75766,1.19597
350.51659,1.19172
350.27552,1.19255
350.03445,1.19820
349.79338,1.21180
349.55231,1.23080
349.31124,1.24476
349.07017,1.24552
348.82910,1.23687
348.58802,1.23006
348.34695,1.23212
348.10588,1.24048
347.86481,1.24631
347.62374,1.24469
347.38267,1.24137
347.14160,1.24469
346.90053,1.25357
346.65946,1.26097
346.41839,1.26712
346.17732,1.27834
345.93625,1.29397
345.69518,1.30575
345.45411,1.31015
345.21304,1.31223
344.97197,1.31516
344.73090,1.31413
344.48983,1.30335
344.24875,1.28521
344.00768,1.27018
343.76661,1.26749
343.52554,1.27678
343.28447,1.28891
343.04340,1.29553
342.80233,1.29851
342.56126,1.30452
342.32019,1.31273
342.07912,1.31694
341.83805,1.31813
341.59698,1.32341
341.35591,1.33412
341.11484,1.34502
340.87377,1.35181
340.63270,1.35494
340.39163,1.36070
340.15056,1.37515
339.90948,1.38995
339.66841,1.38796
339.42734,1.37097
339.18627,1.35975
338.94520,1.36629
338.70413,1.38264
338.46306,1.39606
338.22199,1.40688
337.98092,1.42380
337.73985,1.44448
337.49878,1.45058
337.25771,1.43293
337.01664,1.41154
336.77557,1.41091
336.53450,1.43054
336.29343,1.44812
336.05236,1.44843
335.81129,1.43935
335.57021,1.43194
335.32914,1.42343
335.08807,1.40665
334.84700,1.38526
334.60593,1.37281
334.36486,1.37657
334.12379,1.38901
333.88272,1.39663
333.64165,1.39500
333.40058,1.38988
333.15951,1.38692
332.91844,1.38641
332.67737,1.38432
332.43630,1.37660
332.19523,1.36198
331.95416,1.34264
331.71309,1.32208
331.47202,1.30495
331.23094,1.29693
330.98987,1.30081
330.74880,1.31347
330.50773,1.32605
330.26666,1.33056
330.02559,1.32739
329.78452,1.32271
329.54345,1.32068
329.30238,1.31906
329.06131,1.31160
328.82024,1.29766
328.57917,1.28521
328.33810,1.28015
328.09703,1.27880
327.85596,1.27577
327.61489,1.27272
327.37382,1.27462
327.13275,1.28261
326.89167,1.29137
326.65060,1.29771
326.40953,1.30721
326.16846,1.32113
325.92739,1.32808
325.68632,1.32282
325.44525,1.31935
325.20418,1.32891
324.96311,1.34012
324.72204,1.33366
324.48097,1.31298
324.23990,1.29883
323.99883,1.30035
323.75776,1.30739
323.51669,1.30838
323.27562,1.30767
323.03455,1.31525
322.79348,1.32789
322.55240,1.33354
322.31133,1.33161
322.07026,1.33220
321.82919,1.33808
321.58812,1.34339
321.34705,1.34834
321.10598,1.35942
320.86491,1.37375
320.62384,1.37792
320.38277,1.37110
320.14170,1.36814
319.90063,1.37390
319.65956,1.37794
319.41849,1.37044
319.17742,1.35166
318.93635,1.32776
318.69528,1.30458
318.45421,1.28765
318.21313,1.28121
317.97206,1.28154
317.73099,1.27991
317.48992,1.27553
317.24885,1.27396
317.00778,1.27668
316.76671,1.28162
316.52564,1.29078
316.28457,1.30827
316.04350,1.32794
315.80243,1.33563
315.56136,1.32739
315.32029,1.31486
315.07922,1.31359
314.83815,1.32816
314.59708,1.34944
314.35601,1.36179
314.11494,1.35470
313.87386,1.33334
313.63279,1.31266
313.39172,1.30189
313.15065,1.30232
312.90958,1.31433
312.66851,1.33726
312.42744,1.36280
312.18637,1.37906
311.94530,1.38102
311.70423,1.37148
311.46316,1.35611
311.22209,1.33901
310.98102,1.32395
310.73995,1.31742
310.49888,1.32291
310.25781,1.33627
310.01674,1.35056
309.77567,1.36308
309.53459,1.37685
309.29352,1.39384
309.05245,1.40887
308.81138,1.41579
308.57031,1.41720
308.32924,1.42090
308.08817,1.42583
307.84710,1.42093
307.60603,1.40503
307.36496,1.39264
307.12389,1.39317
306.88282,1.40064
306.64175,1.40425
306.40068,1.40054
306.15961,1.39340
305.91854,1.38739
305.67747,1.38135
305.43640,1.37012
305.19532,1.35400
304.95425,1.34328
304.71318,1.34799
304.47211,1.36343
304.23104,1.37533
303.98997,1.37836
303.74890,1.37666
303.50783,1.36875
303.26676,1.35018
303.02569,1.32694
302.78462,1.31093
302.54355,1.30983
302.30248,1.32489
302.06141,1.34696
301.82034,1.35682
301.57927,1.34322
301.33820,1.31641
301.09713,1.29485
300.85605,1.28754
300.61498,1.28906
300.37391,1.28902
300.13284,1.28540
299.89177,1.28341
299.65070,1.28284
299.40963,1.27818
299.16856,1.27048
298.92749,1.26610
298.68642,1.26684
298.44535,1.26739
298.20428,1.26298
297.96321,1.25722
297.72214,1.25578
297.48107,1.25670
297.24000,1.25361
296.99893,1.24552
296.75786,1.23706
296.51678,1.23143
296.27571,1.22653
296.03464,1.21697
295.79357,1.20214
295.55250,1.18972
295.31143,1.18785
295.07036,1.19564
294.82929,1.20230
294.58822,1.19897
294.34715,1.18931
294.10608,1.18351
293.86501,1.18607
293.62394,1.19256
293.38287,1.19506
293.14180,1.18990
292.90073,1.18140
292.65966,1.17677
292.41859,1.17794
292.17751,1.18085
291.93644,1.18142
291.69537,1.17929
291.45430,1.17525
291.21323,1.16972
290.97216,1.16374
290.73109,1.15830
290.49002,1.15403
290.24895,1.15116
290.00788,1.14960
289.76681,1.14939
289.52574,1.15070
289.28467,1.15301
289.04360,1.15388
288.80253,1.15022
288.56146,1.14203
288.32039,1.13261
288.07932,1.12559
287.83824,1.12346
287.59717,1.12703
287.35610,1.13372
287.11503,1.13779
286.87396,1.13523
286.63289,1.12750
286.39182,1.11869
286.15075,1.11150
285.90968,1.10697
285.66861,1.10506
285.42754,1.10436
285.18647,1.10227
284.94540,1.09770
284.70433,1.09356
284.46326,1.09373
284.22219,1.09864
283.98112,1.10567
283.74005,1.11159
283.49897,1.11356
283.25790,1.11082
283.01683,1.10691
282.77576,1.10675
282.53469,1.11093
282.29362,1.11510
282.05255,1.11473
281.81148,1.10983
281.57041,1.10532
281.32934,1.10611
281.08827,1.11178
280.84720,1.11728
280.60613,1.11896
280.36506,1.11823
280.12399,1.11824
279.88292,1.11943
279.64185,1.11948
279.40078,1.11637
279.15970,1.11162
278.91863,1.10983
278.67756,1.11423
278.43649,1.12204
278.19542,1.12507
277.95435,1.11857
277.71328,1.10836
277.47221,1.10402
277.23114,1.10747
276.99007,1.11305
276.74900,1.11785
276.50793,1.12497
276.26686,1.13430
276.02579,1.13930
275.78472,1.13704
275.54365,1.13236
275.30258,1.12913
275.06151,1.12639
274.82043,1.12344
274.57936,1.12207
274.33829,1.12399
274.09722,1.12947
273.85615,1.13719
273.61508,1.14499
273.37401,1.15195
273.13294,1.15821
272.89187,1.16239
272.65080,1.16255
272.40973,1.15961
272.16866,1.15615
271.92759,1.15406
271.68652,1.15363
271.44545,1.15327
271.20438,1.15223
270.96331,1.15328
270.72224,1.15920
270.48116,1.16787
270.24009,1.17528
269.99902,1.18153
269.75795,1.18756
269.51688,1.19050
269.27581,1.18917
269.03474,1.18904
268.79367,1.19454
268.55260,1.20224
268.31153,1.20775
268.07046,1.21254
267.82939,1.21714
267.58832,1.21689
267.34725,1.21193
267.10618,1.21055
266.86511,1.21776
266.62404,1.22901
266.38297,1.23786
266.14189,1.24465
265.90082,1.25378
265.65975,1.26531
265.41868,1.27467
265.17761,1.28103
264.93654,1.28914
264.69547,1.30138
264.45440,1.31470
264.21333,1.32705
263.97226,1.34098
263.73119,1.35812
263.49012,1.37615
263.24905,1.39311
263.00798,1.41096
262.76691,1.43344
262.52584,1.45982
262.28477,1.48222
262.04370,1.49394
261.80262,1.49842
261.56155,1.50427
261.32048,1.51584
261.07941,1.53333
260.83834,1.55479
260.59727,1.57445
260.35620,1.58779
260.11513,1.60031
259.87406,1.62283
259.63299,1.65784
259.39192,1.69183
259.15085,1.70372
258.90978,1.69207
258.66871,1.68585
258.42764,1.70984
258.18657,1.75622
257.94550,1.80147
257.70443,1.83869
257.46335,1.86892
257.22228,1.88159
256.98121,1.87040
256.74014,1.84728
256.49907,1.82680
256.25800,1.81430
256.01693,1.80311
255.77586,1.77785
255.53479,1.73479
255.29372,1.68831
255.05265,1.65151
254.81158,1.63129
254.57051,1.63158
254.32944,1.64641
254.08837,1.66250
253.84730,1.67179
253.60623,1.67062
253.36516,1.65664
253.12408,1.63481
252.88301,1.61762
252.64194,1.61464
252.40087,1.62230
252.15980,1.62432
251.91873,1.61402
251.67766,1.60307
251.43659,1.60082
251.19552,1.60565
250.95445,1.61063
250.71338,1.60877
250.47231,1.59663
250.23124,1.57164
249.99017,1.53683
249.74910,1.51198
249.50803,1.51382
249.26696,1.53839
249.02589,1.56743
248.78481,1.58503
248.54374,1.58723
248.30267,1.57875
248.06160,1.56492
247.82053,1.54912
247.57946,1.53574
247.33839,1.53270
247.09732,1.54619
246.85625,1.56998
246.61518,1.58501
246.37411,1.57812
246.13304,1.55591
245.89197,1.53368
245.65090,1.52286
245.40983,1.52932
245.16876,1.55229
244.92769,1.58588
244.68661,1.62402
244.44554,1.66139
244.20447,1.69720
243.96340,1.73644
243.72233,1.78549
243.48126,1.84824
243.24019,1.92397
242.99912,1.99717
242.75805,1.99380
242.51698,1.85993
242.27591,1.74471
242.03484,1.66612
241.79377,1.59913
241.55270,1.52879
241.31163,1.45514
241.07056,1.38827
240.82949,1.33313
240.58842,1.28680
240.34734,1.24531
240.10627,1.20760
239.86520,1.17375
239.62413,1.14242
239.38306,1.11125
239.14199,1.07945
238.90092,1.04893
238.65985,1.02237
238.41878,1.00053
238.17771,0.98188
237.93664,0.96468
237.69557,0.94882
237.45450,0.93519
237.21343,0.92321
236.97236,0.91084
236.73129,0.89748
236.49022,0.88470
236.24915,0.87354
236.00807,0.86341
235.76700,0.85378
235.52593,0.84548
235.28486,0.84005
235.04379,0.83846
234.80272,0.83933
234.56165,0.83920
234.32058,0.83583
234.07951,0.83061
233.83844,0.82652
233.59737,0.82448
233.35630,0.82287
233.11523,0.81992
232.87416,0.81560
232.63309,0.81087
232.39202,0.80656
232.15095,0.80359
231.90988,0.80280
231.66880,0.80402
231.42773,0.80663
231.18666,0.80928
230.94559,0.80866
230.70452,0.80248
230.46345,0.79395
230.22238,0.78858
229.98131,0.78772
229.74024,0.78906
229.49917,0.79063
229.25810,0.79153
229.01703,0.79157
228.77596,0.79199
228.53489,0.79457
228.29382,0.79910
228.05275,0.80278
227.81168,0.80223
227.57061,0.79692
227.32953,0.79041
227.08846,0.78612
226.84739,0.78366
226.60632,0.78103
226.36525,0.77843
226.12418,0.77804
225.88311,0.78069
225.64204,0.78481
225.40097,0.78819
225.15990,0.78975
224.91883,0.79044
224.67776,0.79252
224.43669,0.79658
224.19562,0.80009
223.95455,0.80115
223.71348,0.80192
223.47241,0.80557
223.23134,0.81186
222.99026,0.81869
222.74919,0.82485
222.50812,0.82941
222.26705,0.83177
222.02598,0.83365
221.78491,0.83827
221.54384,0.84646
221.30277,0.85570
221.06170,0.86392
220.82063,0.87261
220.57956,0.88441
220.33849,0.89876
220.09742,0.91213
219.85635,0.92216
219.61528,0.92917
219.37421,0.93478
219.13314,0.94112
218.89207,0.94965
218.65099,0.95988
218.40992,0.97124
218.16885,0.98562
217.92778,1.00528
217.68671,1.02843
217.44564,1.04918
217.20457,1.06232
216.96350,1.06817
216.72243,1.07325
216.48136,1.08452
216.24029,1.10300
215.99922,1.12471
215.75815,1.14649
215.51708,1.16697
215.27601,1.18383
215.03494,1.19644
214.79387,1.20891
214.55280,1.22382
214.31172,1.23738
214.07065,1.24691
213.82958,1.25655
213.58851,1.27000
213.34744,1.28652
213.10637,1.30468
212.86530,1.32172
212.62423,1.33246
212.38316,1.33446
212.14209,1.33296
211.90102,1.33600
211.65995,1.34452
211.41888,1.35228
211.17781,1.35713
210.93674,1.36352
210.69567,1.36974
210.45460,1.36559
210.21353,1.34888
209.97245,1.33151
209.73138,1.32683
209.49031,1.33731
209.24924,1.35394
209.00817,1.36567
208.76710,1.36630
208.52603,1.35325
208.28496,1.32947
208.04389,1.30532
207.80282,1.29122
207.56175,1.28855
207.32068,1.29090
207.07961,1.29092
206.83854,1.28283
206.59747,1.26477
206.35640,1.24216
206.11533,1.22388
205.87426,1.21385
205.63318,1.20814
205.39211,1.19949
205.15104,1.18350
204.90997,1.16193
204.66890,1.13936
204.42783,1.11878
204.18676,1.10202
203.94569,1.08986
203.70462,1.07940
203.46355,1.06483
203.22248,1.04352
202.98141,1.01932
202.74034,0.99846
202.49927,0.98519
202.25820,0.97782
202.01713,0.96839
201.77606,0.95101
201.53499,0.92832
201.29391,0.90705
201.05284,0.89123
200.81177,0.88053
200.57070,0.87147
200.32963,0.86002
200.08856,0.84517
199.84749,0.83013
199.60642,0.81815
199.36535,0.80868
199.12428,0.79866
198.88321,0.78603
198.64214,0.77164
198.40107,0.75840
198.16000,0.74851
197.91893,0.74139
197.67786,0.73395
197.43679,0.72383
197.19572,0.71197
196.95464,0.70126
196.71357,0.69393
196.47250,0.69042
196.23143,0.68844
195.99036,0.68376
195.74929,0.67502
195.50822,0.66625
195.26715,0.66138
195.02608,0.65823
194.78501,0.65164
194.54394,0.64134
194.30287,0.63212
194.06180,0.62653
193.82073,0.62232
193.57966,0.61659
193.33859,0.60977
193.09752,0.60465
192.85645,0.60241
192.61537,0.60064
192.37430,0.59577
192.13323,0.58776
191.89216,0.58085
191.65109,0.57835
191.41002,0.57874
191.16895,0.57807
190.92788,0.57518
190.68681,0.57227
190.44574,0.57083
190.20467,0.56975
189.96360,0.56753
189.72253,0.56434
189.48146,0.56117
189.24039,0.55843
188.99932,0.55642
188.75825,0.55606
188.51718,0.55734
188.27610,0.55841
188.03503,0.55777
187.79396,0.55662
187.55289,0.55675
187.31182,0.55716
187.07075,0.55554
186.82968,0.55259
186.58861,0.55133
186.34754,0.55197
186.10647,0.55183
185.86540,0.55036
185.62433,0.54976
185.38326,0.55038
185.14219,0.55023
184.90112,0.54897
184.66005,0.54808
184.41898,0.54789
184.17791,0.54807
183.93683,0.54977
183.69576,0.55406
183.45469,0.55948
183.21362,0.56330
182.97255,0.56494
182.73148,0.56636
182.49041,0.56890
182.24934,0.57161
182.00827,0.57344
181.76720,0.57545
181.52613,0.57868
181.28506,0.58155
181.04399,0.58230
180.80292,0.58230
180.56185,0.58355
180.32078,0.58499
180.07971,0.58526
179.83864,0.58602
179.59756,0.58923
179.35649,0.59456
179.11542,0.60152
178.87435,0.61035
178.63328,0.62003
178.39221,0.62977
178.15114,0.64078
177.91007,0.65295
177.66900,0.66366
177.42793,0.67279
177.18686,0.68320
176.94579,0.69560
176.70472,0.70886
176.46365,0.72375
176.22258,0.74114
175.98151,0.75952
175.74044,0.77776
175.49937,0.79707
175.25829,0.81854
175.01722,0.84135
174.77615,0.86456
174.53508,0.88939
174.29401,0.91800
174.05294,0.94929
173.81187,0.97806
173.57080,1.00022
173.32973,1.01514
173.08866,1.02312
172.84759,1.02676
172.60652,1.03133
172.36545,1.03948
172.12438,1.04913
171.88331,1.05762
171.64224,1.06367
171.40117,1.06587
171.16010,1.06294
170.91902,1.05560
170.67795,1.04612
170.43688,1.03594
170.19581,1.02471
169.95474,1.01257
169.71367,1.00236
169.47260,0.99672
169.23153,0.99395
168.99046,0.98943
168.74939,0.98137
168.50832,0.97268
168.26725,0.96632
168.02618,0.96167
167.78511,0.95718
167.54404,0.95426
167.30297,0.95510
167.06190,0.95898
166.82083,0.96334
166.57975,0.96670
166.33868,0.96947
166.09761,0.97310
165.85654,0.97807
165.61547,0.98328
165.37440,0.98806
165.13333,0.99396
164.89226,1.00332
164.65119,1.01672
164.41012,1.03264
164.16905,1.04919
163.92798,1.06555
163.68691,1.08179
163.44584,1.09747
163.20477,1.11170
162.96370,1.12337
162.72263,1.13077
162.48156,1.13401
162.24048,1.13755
161.99941,1.14736
161.75834,1.16585
161.51727,1.18828
161.27620,1.20359
161.03513,1.20332
160.79406,1.19148
160.55299,1.17925
160.31192,1.17077
160.07085,1.16104
159.82978,1.14746
159.58871,1.13629
159.34764,1.13451
159.10657,1.14002
158.86550,1.14298
158.62443,1.13588
158.38336,1.11937
158.14229,1.09887
157.90121,1.08058
157.66014,1.06996
157.41907,1.06873
157.17800,1.07256
156.93693,1.07417
156.69586,1.06925
156.45479,1.05871
156.21372,1.04654
155.97265,1.03634
155.73158,1.02952
155.49051,1.02604
155.24944,1.02433
155.00837,1.01958
154.76730,1.00600
154.52623,0.98287
154.28516,0.95678
154.04409,0.93655
153.80302,0.92508
153.56194,0.91593
153.32087,0.89985
153.07980,0.87534
152.83873,0.84839
152.59766,0.82382
152.35659,0.80281
152.11552,0.78518
151.87445,0.76932
151.63338,0.75215
151.39231,0.73246
151.15124,0.71294
150.91017,0.69673
150.66910,0.68348
150.42803,0.66962
150.18696,0.65256
149.94589,0.63384
149.70482,0.61750
149.46375,0.60607
149.22267,0.59902
148.98160,0.59373
148.74053,0.58702
148.49946,0.57718
148.25839,0.56605
148.01732,0.55789
147.77625,0.55505
147.53518,0.55510
147.29411,0.55383
147.05304,0.55065
146.81197,0.54891
146.57090,0.55066
146.32983,0.55402
146.08876,0.55605
145.84769,0.55676
145.60662,0.55907
145.36555,0.56511
145.12448,0.57364
144.88340,0.58128
144.64233,0.58624
144.40126,0.59014
144.16019,0.59573
143.91912,0.60274
143.67805,0.60723
143.43698,0.60612
143.19591,0.60075
142.95484,0.59388
142.71377,0.58565
142.47270,0.57489
142.23163,0.56246
141.99056,0.55045
141.74949,0.54014
141.50842,0.53210
141.26735,0.52643
141.02628,0.52205
140.78521,0.51783
140.54413,0.51452
140.30306,0.51341
140.06199,0.51397
139.82092,0.51490
139.57985,0.51678
139.33878,0.52119
139.09771,0.52791
138.85664,0.53505
138.61557,0.54180
138.37450,0.54975
138.13343,0.56091
137.89236,0.57550
137.65129,0.59215
137.41022,0.60966
137.16915,0.62782
136.92808,0.64662
136.68701,0.66636
136.44594,0.68896
136.20486,0.71678
135.96379,0.74853
135.72272,0.77900
135.48165,0.80607
135.24058,0.83424
134.99951,0.86776
134.75844,0.90548
134.51737,0.94410
134.27630,0.98126
134.03523,1.01562
133.79416,1.04833
133.55309,1.08262
133.31202,1.11836
133.07095,1.15158
132.82988,1.18031
132.58881,1.20380
132.34774,1.21794
132.10667,1.22030
131.86559,1.21426
131.62452,1.20361
131.38345,1.18999
131.14238,1.17452
130.90131,1.15451
130.66024,1.12463
130.41917,1.08571
130.17810,1.04556
129.93703,1.00971
129.69596,0.97572
129.45489,0.93725
129.21382,0.89275
128.97275,0.84670
128.73168,0.80367
128.49061,0.76501
128.24954,0.73036
128.00847,0.69895
127.76740,0.66988
127.52632,0.64289
127.28525,0.61817
127.04418,0.59511
126.80311,0.57308
126.56204,0.55314
126.32097,0.53713
126.07990,0.52491
125.83883,0.51397
125.59776,0.50194
125.35669,0.48856
125.11562,0.47494
124.87455,0.46229
124.63348,0.45152
124.39241,0.44305
124.15134,0.43651
123.91027,0.43125
123.66920,0.42689
123.42812,0.42307
123.18705,0.41952
122.94598,0.41661
122.70491,0.41500
122.46384,0.41466
122.22277,0.41499
121.98170,0.41592
121.74063,0.41812
121.49956,0.42246
121.25849,0.42931
121.01742,0.43812
120.77635,0.44785
120.53528,0.45817
120.29421,0.46955
120.05314,0.48224
119.81207,0.49646
119.57100,0.51299
119.32993,0.53240
119.08885,0.55411
118.84778,0.57756
118.60671,0.60374
118.36564,0.63373
118.12457,0.66662
117.88350,0.70067
117.64243,0.73540
117.40136,0.77038
117.16029,0.80259
116.91922,0.82674
116.67815,0.83773
116.43708,0.83423
116.19601,0.82056
115.95494,0.80248
115.71387,0.78127
115.47280,0.75574
115.23173,0.72860
114.99066,0.70608
114.74958,0.69127
114.50851,0.68116
114.26744,0.67211
114.02637,0.66525
113.78530,0.66266
113.54423,0.66162
113.30316,0.65785
113.06209,0.65236
112.82102,0.65029
112.57995,0.65474
112.33888,0.66470
112.09781,0.67776
111.85674,0.69306
111.61567,0.71115
111.37460,0.73084
111.13353,0.74775
110.89246,0.75819
110.65139,0.76223
110.41031,0.76078
110.16924,0.75275
109.92817,0.73729
109.68710,0.71673
109.44603,0.69589
109.20496,0.67785
108.96389,0.66109
108.72282,0.64181
108.48175,0.61806
108.24068,0.59058
107.99961,0.56142
107.75854,0.53252
107.51747,0.50542
107.27640,0.48190
107.03533,0.46430
106.79426,0.45406
106.55319,0.44925
106.31212,0.44455
106.07104,0.43522
105.82997,0.42034
105.58890,0.40184
105.34783,0.38236
105.10676,0.36521
104.86569,0.35368
104.62462,0.34887
104.38355,0.34842
104.14248,0.34715
103.90141,0.34019
103.66034,0.32729
103.41927,0.31316
103.17820,0.30324
102.93713,0.30021
102.69606,0.30288
102.45499,0.30604
102.21392,0.30377
101.97285,0.29537
101.73177,0.28600
101.49070,0.28081
101.24963,0.28076
101.00856,0.28281
100.76749,0.28226
100.52642,0.27636
100.28535,0.26731
100.04428,0.26083
99.80321,0.26117
99.56214,0.26700
99.32107,0.27112
99.08000,0.26652
98.83893,0.25468
98.59786,0.24441
98.35679,0.24285
98.11572,0.24871
97.87465,0.25344
97.63358,0.25144
97.39250,0.24743
97.15143,0.24914
96.91036,0.25704
96.66929,0.26449
96.42822,0.26692
96.18715,0.26914
95.94608,0.27862
95.70501,0.29427
95.46394,0.30668
95.22287,0.31119
94.98180,0.31504
94.74073,0.32524
94.49966,0.33741
94.25859,0.34203
94.01752,0.33867
93.77645,0.33522
93.53538,0.33528
93.29431,0.33563
93.05323,0.33508
92.81216,0.33684
92.57109,0.34047
92.33002,0.34103
92.08895,0.33877
91.84788,0.33991
91.60681,0.34625
91.36574,0.35369
91.12467,0.36318
90.88360,0.38236
90.64253,0.41278
90.40146,0.44777
90.16039,0.48697
89.91932,0.53716
89.67825,0.59364
89.43718,0.64335
89.19611,0.68871
88.95504,0.73496
88.71396,0.76557
88.47289,0.76460
88.23182,0.74040
87.99075,0.70237
87.74968,0.65273
87.50861,0.59785
87.26754,0.54437
87.02647,0.49397
86.78540,0.44800
86.54433,0.40900
86.30326,0.37709
86.06219,0.34995
85.82112,0.32623
85.58005,0.30618
85.33898,0.28963
85.09791,0.27476
84.85684,0.25951
84.61577,0.24376
84.37469,0.22895
84.13362,0.21631
83.89255,0.20681
83.65148,0.20141
83.41041,0.19875
83.16934,0.19515
82.92827,0.18911
82.68720,0.18332
82.44613,0.18072
82.20506,0.18132
81.96399,0.18320
81.72292,0.18459
81.48185,0.18479
81.24078,0.18428
80.99971,0.18382
80.75864,0.18368
80.51757,0.18356
80.27650,0.18269
80.03542,0.18008
79.79435,0.17576
79.55328,0.17127
79.31221,0.16844
79.07114,0.16782
78.83007,0.16874
78.58900,0.17009
78.34793,0.17068
78.10686,0.16950
77.86579,0.16672
77.62472,0.16392
77.38365,0.16237
77.14258,0.16175
76.90151,0.16139
76.66044,0.16145
76.41937,0.16165
76.17830,0.16045
75.93723,0.15699
75.69615,0.15217
75.45508,0.14737
75.21401,0.14340
74.97294,0.14068
74.73187,0.13928
74.49080,0.13913
74.24973,0.14078
74.00866,0.14505
73.76759,0.15131
73.52652,0.15682
73.28545,0.15877
73.04438,0.15716
72.80331,0.15513
72.56224,0.15568
72.32117,0.15825
72.08010,0.15953
71.83903,0.15747
71.59796,0.15287
71.35688,0.14799
71.11581,0.14561
70.87474,0.14879
70.63367,0.15961
70.39260,0.17804
70.15153,0.20230
69.91046,0.22965
69.66939,0.25631
69.42832,0.27683
69.18725,0.28443
68.94618,0.27500
68.70511,0.25196
68.46404,0.22421
68.22297,0.19924
67.98190,0.17990
67.74083,0.16647
67.49976,0.15864
67.25869,0.15511
67.01761,0.15320
66.77654,0.15044
66.53547,0.14631
66.29440,0.14179
66.05333,0.13787
65.81226,0.13556
65.57119,0.13618
65.33012,0.14073
65.08905,0.14911
64.84798,0.16024
64.60691,0.17258
64.36584,0.18426
64.12477,0.19314
63.88370,0.19720
63.64263,0.19545
63.40156,0.18874
63.16049,0.17907
62.91942,0.16867
62.67834,0.15978
62.43727,0.15397
62.19620,0.15100
61.95513,0.14906
61.71406,0.14691
61.47299,0.14536
61.23192,0.14594
60.99085,0.14811
60.74978,0.14893
60.50871,0.14597
60.26764,0.13902
60.02657,0.12928
59.78550,0.11827
59.54443,0.10736
59.30336,0.09788
59.06229,0.09174
58.82122,0.09089
58.58015,0.09638
58.33907,0.10842
58.09800,0.12667
57.85693,0.14912
57.61586,0.17150
57.37479,0.18861
57.13372,0.19551
56.89265,0.18888
56.65158,0.17068
56.41051,0.14783
56.16944,0.12751
55.92837,0.11424
55.68730,0.10966
55.44623,0.11393
55.20516,0.12769
54.96409,0.15057
54.72302,0.17486
54.48195,0.18380
54.24088,0.16668
53.99980,0.13291
53.75873,0.10192
53.51766,0.08807
53.27659,0.09574
53.03552,0.12311
52.79445,0.16677
52.55338,0.21251
52.31231,0.22093
52.07124,0.17612
51.83017,0.12107
51.58910,0.08774
51.34803,0.08428
51.10696,0.11139
50.86589,0.16208
50.62482,0.19875
50.38375,0.17304
50.14268,0.12058
49.90161,0.09181
49.66053,0.10437
49.41946,0.14851
49.17839,0.16752
48.93732,0.12210
48.69625,0.07599
48.45518,0.07440
48.21411,0.11590
47.97304,0.15475
47.73197,0.13528
47.49090,0.09945
47.24983,0.10048
47.00876,0.13009
46.76769,0.13755
46.52662,0.11519
46.28555,0.10955
46.04448,0.12819
45.80341,0.13042
45.56234,0.10857
45.32126,0.10300
45.08019,0.11592
44.83912,0.11730
44.59805,0.11246
44.35698,0.12348
44.11591,0.13495
43.87484,0.12609
43.63377,0.11537
43.39270,0.11667
43.15163,0.11857
42.91056,0.11715
42.66949,0.11943
42.42842,0.12116
42.18735,0.11672
41.94628,0.11187
41.70521,0.11201
41.46414,0.11574
41.22307,0.12091
40.98199,0.12754
40.74092,0.13730
40.49985,0.14954
40.25878,0.15835
40.01771,0.15883
39.77664,0.15111
39.53557,0.13923
39.29450,0.13371
39.05343,0.14314
38.81236,0.15975
38.57129,0.16880
38.33022,0.16988
38.08915,0.17281
37.84808,0.17958
37.60701,0.18305
37.36594,0.18149
37.12487,0.18169
36.88380,0.18417
36.64272,0.17798
36.40165,0.16026
36.16058,0.14334
35.91951,0.13584
35.67844,0.13322
35.43737,0.12922
35.19630,0.12749
34.95523,0.13513
34.71416,0.14754
34.47309,0.14878
34.23202,0.13181
33.99095,0.10746
33.74988,0.08998
33.50881,0.08479
33.26774,0.09276
33.02667,0.11533
32.78560,0.15159
32.54453,0.19144
32.30345,0.21434
32.06238,0.20853
31.82131,0.18446
31.58024,0.15881
31.33917,0.14061
31.09810,0.12916
30.85703,0.11610
30.61596,0.09247
30.37489,0.06076
30.13382,0.03228
29.89275,0.00994
29.65168,-0.00866
29.41061,-0.01531
29.16954,-0.00080
28.92847,0.02618
28.68740,0.04292
28.44633,0.03550
28.20526,0.01097
27.96418,-0.01768
27.72311,-0.04479
27.48204,-0.06686
27.24097,-0.07835
26.99990,-0.07523
26.75883,-0.05812
26.51776,-0.03820
26.27669,-0.03440
26.03562,-0.05224
25.79455,-0.07472
25.55348,-0.08530
25.31241,-0.09335
25.07134,-0.11076
24.83027,-0.13867
24.58920,-0.18174
24.34813,-0.23525
24.10706,-0.27005
23.86599,-0.25820
23.62491,-0.21197
23.38384,-0.16405
23.14277,-0.13627
22.90170,-0.13240
22.66063,-0.14038
22.41956,-0.15016
22.17849,-0.15892
21.93742,-0.16766
21.69635,-0.18467
21.45528,-0.21514
21.21421,-0.24668
20.97314,-0.25939
20.73207,-0.25960
20.49100,-0.25702
20.24993,-0.26466
20.00886,-0.29638
19.76779,-0.33906
19.52672,-0.35373
19.28564,-0.32446
19.04457,-0.27915
18.80350,-0.24726
18.56243,-0.24590
18.32136,-0.26621
18.08029,-0.28582
17.83922,-0.29240
17.59815,-0.29502
17.35708,-0.30248
17.11601,-0.31212
16.87494,-0.30227
16.63387,-0.29574
16.39280,-0.30859
16.15173,-0.32036
15.91066,-0.31732
15.66959,-0.30252
15.42852,-0.28786
15.18745,-0.28435
14.94637,-0.30540
14.70530,-0.34812
14.46423,-0.38411
14.22316,-0.38643
13.98209,-0.36091
13.74102,-0.33365
13.49995,-0.31728
13.25888,-0.31189
13.01781,-0.31981
12.77674,-0.34137
12.53567,-0.37258
12.29460,-0.40682
12.05353,-0.41765
11.81246,-0.39209
11.57139,-0.36814
11.33032,-0.35135
11.08925,-0.35234
10.84818,-0.34429
10.60710,-0.30824
10.36603,-0.27539
10.12496,-0.26452
9.88389,-0.26878
9.64282,-0.27512
9.40175,-0.27893
9.16068,-0.28377
8.91961,-0.28773
8.67854,-0.28233
8.43747,-0.27072
8.19640,-0.26220
7.95533,-0.26418
7.71426,-0.28878
7.47319,-0.32227
7.23212,-0.33359
6.99105,-0.31600
6.74998,-0.28917
6.50891,-0.27319
6.26783,-0.27514
6.02676,-0.27775
5.78569,-0.25984
5.54462,-0.23201
5.30355,-0.22066
5.06248,-0.22700
4.82141,-0.22998
4.58034,-0.22149
4.33927,-0.21043
4.09820,-0.20162
3.85713,-0.20158
3.61606,-0.21755
3.37499,-0.23942
3.13392,-0.24850
2.89285,-0.23748
2.65178,-0.21387
2.41071,-0.19785
2.16964,-0.20888
1.92856,-0.23832
1.68749,-0.26249
1.44642,-0.28043
1.20535,-0.28521
0.96428,-0.27723
0.72321,-0.28697
0.48214,-0.33053
0.24107,-0.33546
-0.00000,-0.21242
