399.69498,1.61996
399.45391,1.60830
399.21284,1.60274
398.97177,1.61790
398.73070,1.65617
398.48963,1.69331
398.24856,1.69973
398.00749,1.67951
397.76642,1.66223
397.52535,1.66632
397.28428,1.68753
397.04321,1.70933
396.80214,1.71363
396.56107,1.68916
396.32000,1.64426
396.07892,1.60173
395.83785,1.58095
395.59678,1.58540
395.35571,1.60819
395.11464,1.64600
394.87357,1.69541
394.63250,1.73746
394.39143,1.75053
394.15036,1.74017
393.90929,1.72915
393.66822,1.73021
393.42715,1.74557
393.18608,1.77397
392.94501,1.81160
392.70394,1.83530
392.46287,1.80434
392.22180,1.74377
391.98073,1.71979
391.73965,1.75315
391.49858,1.81756
391.25751,1.87308
391.01644,1.90755
390.77537,1.93082
390.53430,1.94206
390.29323,1.94351
390.05216,1.93838
389.81109,1.92148
389.57002,1.94956
389.32895,2.04998
389.08788,2.16114
388.84681,2.21307
388.60574,2.19495
388.36467,2.16218
388.12360,2.21431
387.88253,2.35285
387.64146,2.53877
387.40038,2.82306
387.15931,2.57112
386.91824,2.26925
386.67717,2.22183
386.43610,2.32092
386.19503,2.39683
385.95396,2.34483
385.71289,2.23506
385.47182,2.23162
385.23075,2.28832
384.98968,2.20347
384.74861,2.09500
384.50754,2.04341
384.26647,2.04937
384.02540,2.11319
383.78433,2.23928
383.54326,2.34319
383.30219,2.27024
383.06111,2.11531
382.82004,2.05225
382.57897,2.12625
382.33790,2.20812
382.09683,2.09630
381.85576,2.09640
381.61469,2.17754
381.37362,2.02048
381.13255,1.98528
380.89148,2.10099
380.65041,2.14969
380.40934,2.09458
380.16827,1.97893
379.92720,1.90994
379.68613,1.96746
379.44506,2.07891
379.20399,2.20258
378.96292,2.12679
378.72184,2.15808
378.48077,2.07054
378.23970,2.03367
377.99863,2.08024
377.75756,2.16535
377.51649,2.24025
377.27542,2.28520
377.03435,2.27869
376.79328,2.33293
376.55221,2.41313
376.31114,2.23574
376.07007,2.07833
375.82900,2.09397
375.58793,2.18479
375.34686,2.22644
375.10579,2.24040
374.86472,2.25166
374.62365,2.21487
374.38257,2.11226
374.14150,1.99894
373.90043,1.87364
373.65936,1.77601
373.41829,1.74833
373.17722,1.76095
372.93615,1.75371
372.69508,1.71187
372.45401,1.66833
372.21294,1.64763
371.97187,1.64659
371.73080,1.65153
371.48973,1.65634
371.24866,1.65715
371.00759,1.63762
370.76652,1.58207
370.52545,1.50753
370.28437,1.45237
370.04330,1.43386
369.80223,1.43617
369.56116,1.43635
369.32009,1.43381
369.07902,1.43955
368.83795,1.45270
368.59688,1.45723
368.35581,1.44114
368.11474,1.41377
367.87367,1.39136
367.63260,1.37550
367.39153,1.35893
367.15046,1.33872
366.90939,1.31762
366.66832,1.29942
366.42725,1.28647
366.18618,1.28050
365.94510,1.28254
365.70403,1.29137
365.46296,1.30181
365.22189,1.30514
364.98082,1.29519
364.73975,1.27519
364.49868,1.25594
364.25761,1.24760
364.01654,1.25334
363.77547,1.26709
363.53440,1.27620
363.29333,1.27201
363.05226,1.25901
362.81119,1.24815
362.57012,1.24471
362.32905,1.24661
362.08798,1.25058
361.84691,1.25788
361.60583,1.26957
361.36476,1.27771
361.12369,1.27205
360.88262,1.25440
360.64155,1.23628
360.40048,1.22642
360.15941,1.22592
359.91834,1.23009
359.67727,1.23397
359.43620,1.23677
359.19513,1.23922
358.95406,1.23967
358.71299,1.23713
358.47192,1.23389
358.23085,1.23378
357.98978,1.23831
357.74871,1.24575
357.50764,1.25355
357.26656,1.25825
357.02549,1.25524
356.78442,1.24158
356.54335,1.22037
356.30228,1.20132
356.06121,1.19438
355.82014,1.20043
355.57907,1.21123
355.33800,1.21882
355.09693,1.22158
354.85586,1.22112
354.61479,1.21866
354.37372,1.21694
354.13265,1.22158
353.89158,1.23587
353.65051,1.25293
353.40944,1.25830
353.16837,1.24841
352.92729,1.23712
352.68622,1.23606
352.44515,1.24250
352.20408,1.24838
351.96301,1.25120
351.72194,1.25363
351.48087,1.25910
351.23980,1.26866
350.99873,1.27843
350.75766,1.28202
350.51659,1.27771
350.27552,1.26991
350.03445,1.26304
349.79338,1.25929
349.55231,1.25903
349.31124,1.25888
349.07017,1.25580
348.82910,1.25065
348.58802,1.24800
348.34695,1.25257
348.10588,1.26346
347.86481,1.27410
347.62374,1.27859
347.38267,1.27885
347.14160,1.28065
346.90053,1.28257
346.65946,1.27828
346.41839,1.27057
346.17732,1.27131
345.93625,1.28608
345.69518,1.31033
345.45411,1.34005
345.21304,1.37360
344.97197,1.40232
344.73090,1.41685
344.48983,1.42245
344.24875,1.42809
344.00768,1.43256
343.76661,1.43565
343.52554,1.44357
343.28447,1.45720
343.04340,1.47018
342.80233,1.47726
342.56126,1.47676
342.32019,1.46840
342.07912,1.45474
341.83805,1.44250
341.59698,1.43724
341.35591,1.43846
341.11484,1.44229
340.87377,1.44852
340.63270,1.46252
340.39163,1.48968
340.15056,1.52539
339.90948,1.55295
339.66841,1.56760
339.42734,1.58186
339.18627,1.59392
338.94520,1.59317
338.70413,1.58727
338.46306,1.59833
338.22199,1.63828
337.98092,1.69196
337.73985,1.72828
337.49878,1.73683
337.25771,1.74411
337.01664,1.77902
336.77557,1.83993
336.53450,1.90481
336.29343,1.96281
336.05236,2.02035
335.81129,2.06286
335.57021,2.04064
335.32914,1.97766
335.08807,1.91728
334.84700,1.87914
334.60593,1.86157
334.36486,1.84683
334.12379,1.82003
333.88272,1.76728
333.64165,1.70386
333.40058,1.66818
333.15951,1.66418
332.91844,1.66947
332.67737,1.66716
332.43630,1.65887
332.19523,1.65362
331.95416,1.66186
331.71309,1.68512
331.47202,1.70194
331.23094,1.68906
330.98987,1.64972
330.74880,1.59898
330.50773,1.54977
330.26666,1.51525
330.02559,1.50584
329.78452,1.52375
329.54345,1.55465
329.30238,1.56944
329.06131,1.55065
328.82024,1.51904
328.57917,1.50758
328.33810,1.51636
328.09703,1.52563
327.85596,1.52895
327.61489,1.52594
327.37382,1.51306
327.13275,1.50195
326.89167,1.51457
326.65060,1.55264
326.40953,1.57458
326.16846,1.54743
325.92739,1.50551
325.68632,1.49251
325.44525,1.51786
325.20418,1.56582
324.96311,1.60307
324.72204,1.60715
324.48097,1.60017
324.23990,1.61038
323.99883,1.64057
323.75776,1.67323
323.51669,1.69562
323.27562,1.70532
323.03455,1.71545
322.79348,1.75330
322.55240,1.81420
322.31133,1.86120
322.07026,1.87551
321.82919,1.88762
321.58812,1.93396
321.34705,1.96855
321.10598,1.94343
320.86491,1.90333
320.62384,1.89522
320.38277,1.91539
320.14170,1.94115
319.90063,1.95631
319.65956,1.96873
319.41849,2.01768
319.17742,2.09034
318.93635,2.05643
318.69528,1.94693
318.45421,1.84878
318.21313,1.81364
317.97206,1.84223
317.73099,1.89344
317.48992,1.91854
317.24885,1.89452
317.00778,1.82416
316.76671,1.74981
316.52564,1.70776
316.28457,1.70353
316.04350,1.72380
315.80243,1.76238
315.56136,1.82271
315.32029,1.89965
315.07922,1.96447
314.83815,1.96931
314.59708,1.92570
314.35601,1.88016
314.11494,1.90056
313.87386,2.01310
313.63279,2.16610
313.39172,2.24726
313.15065,2.25690
312.90958,2.19296
312.66851,2.08958
312.42744,2.04922
312.18637,2.05457
311.94530,2.06694
311.70423,2.04432
311.46316,1.98259
311.22209,1.98567
310.98102,2.07364
310.73995,2.15724
310.49888,2.15222
310.25781,2.09845
310.01674,2.08726
309.77567,2.11634
309.53459,2.12210
309.29352,2.09936
309.05245,2.09005
308.81138,2.04290
308.57031,1.95924
308.32924,1.93004
308.08817,1.95751
307.84710,1.96730
307.60603,1.91650
307.36496,1.84389
307.12389,1.79377
306.88282,1.77527
306.64175,1.77190
306.40068,1.76755
306.15961,1.75406
305.91854,1.71645
305.67747,1.65773
305.43640,1.60766
305.19532,1.58233
304.95425,1.56866
304.71318,1.54747
304.47211,1.52102
304.23104,1.49947
303.98997,1.48094
303.74890,1.45833
303.50783,1.43156
303.26676,1.40610
303.02569,1.38724
302.78462,1.37707
302.54355,1.37557
302.30248,1.37837
302.06141,1.37245
301.82034,1.34484
301.57927,1.30009
301.33820,1.25998
301.09713,1.24228
300.85605,1.24572
300.61498,1.25605
300.37391,1.25953
300.13284,1.24780
299.89177,1.22077
299.65070,1.19103
299.40963,1.17287
299.16856,1.16878
298.92749,1.17075
298.68642,1.17020
298.44535,1.16517
298.20428,1.15792
297.96321,1.14960
297.72214,1.14140
297.48107,1.13647
297.24000,1.13626
296.99893,1.13720
296.75786,1.13333
296.51678,1.12313
296.27571,1.11098
296.03464,1.10089
295.79357,1.09235
295.55250,1.08381
295.31143,1.07633
295.07036,1.07102
294.82929,1.06603
294.58822,1.05974
294.34715,1.05477
294.10608,1.05508
293.86501,1.06035
293.62394,1.06599
293.38287,1.06773
293.14180,1.06414
292.90073,1.05559
292.65966,1.04438
292.41859,1.03585
292.17751,1.03561
291.93644,1.04336
291.69537,1.05102
291.45430,1.04995
291.21323,1.04013
290.97216,1.02822
290.73109,1.01892
290.49002,1.01294
290.24895,1.01010
290.00788,1.01027
289.76681,1.01205
289.52574,1.01241
289.28467,1.00906
289.04360,1.00248
288.80253,0.99465
288.56146,0.98649
288.32039,0.97815
288.07932,0.97128
287.83824,0.96867
287.59717,0.97122
287.35610,0.97655
287.11503,0.98012
286.87396,0.97822
286.63289,0.97186
286.39182,0.96678
286.15075,0.96768
285.90968,0.97341
285.66861,0.97867
285.42754,0.97980
285.18647,0.97760
284.94540,0.97514
284.70433,0.97386
284.46326,0.97264
284.22219,0.97061
283.98112,0.96945
283.74005,0.97100
283.49897,0.97362
283.25790,0.97298
283.01683,0.96640
282.77576,0.95580
282.53469,0.94649
282.29362,0.94220
282.05255,0.94143
281.81148,0.94032
281.57041,0.93845
281.32934,0.93855
281.08827,0.94150
280.84720,0.94512
280.60613,0.94705
280.36506,0.94683
280.12399,0.94633
279.88292,0.94822
279.64185,0.95207
279.40078,0.95341
279.15970,0.94977
278.91863,0.94519
278.67756,0.94504
278.43649,0.94943
278.19542,0.95361
277.95435,0.95307
277.71328,0.94760
277.47221,0.94085
277.23114,0.93659
276.99007,0.93645
276.74900,0.93997
276.50793,0.94541
276.26686,0.95024
276.02579,0.95241
275.78472,0.95255
275.54365,0.95348
275.30258,0.95653
275.06151,0.95969
274.82043,0.96057
274.57936,0.95894
274.33829,0.95564
274.09722,0.95182
273.85615,0.94940
273.61508,0.94984
273.37401,0.95231
273.13294,0.95468
272.89187,0.95581
272.65080,0.95665
272.40973,0.95955
272.16866,0.96586
271.92759,0.97407
271.68652,0.98031
271.44545,0.98131
271.20438,0.97713
270.96331,0.97124
270.72224,0.96822
270.48116,0.97080
270.24009,0.97757
269.99902,0.98417
269.75795,0.98706
269.51688,0.98603
269.27581,0.98393
269.03474,0.98476
268.79367,0.99077
268.55260,0.99979
268.31153,1.00609
268.07046,1.00557
267.82939,0.99976
267.58832,0.99403
267.34725,0.99319
267.10618,0.99897
266.86511,1.00936
266.62404,1.02037
266.38297,1.03074
266.14189,1.04404
265.90082,1.06217
265.65975,1.07847
265.41868,1.08380
265.17761,1.07890
264.93654,1.07386
264.69547,1.07684
264.45440,1.08855
264.21333,1.10444
263.97226,1.11780
263.73119,1.12370
263.49012,1.12290
263.24905,1.12095
263.00798,1.12313
262.76691,1.13071
262.52584,1.14153
262.28477,1.15389
262.04370,1.16740
261.80262,1.18072
261.56155,1.19317
261.32048,1.20751
261.07941,1.22569
260.83834,1.24285
260.59727,1.25229
260.35620,1.25559
260.11513,1.26185
259.87406,1.27799
259.63299,1.30322
259.39192,1.33088
259.15085,1.35434
258.90978,1.37246
258.66871,1.39235
258.42764,1.42224
258.18657,1.46103
257.94550,1.50041
257.70443,1.53679
257.46335,1.57195
257.22228,1.60321
256.98121,1.62581
256.74014,1.64078
256.49907,1.65760
256.25800,1.68403
256.01693,1.70672
255.77586,1.70443
255.53479,1.68647
255.29372,1.68325
255.05265,1.70830
254.81158,1.75187
254.57051,1.79611
254.32944,1.83477
254.08837,1.88100
253.84730,1.95414
253.60623,2.05039
253.36516,2.15193
253.12408,2.28002
252.88301,2.43399
252.64194,2.51450
252.40087,2.44714
252.15980,2.33315
251.91873,2.26673
251.67766,2.25906
251.43659,2.35228
251.19552,2.42594
250.95445,2.46083
250.71338,2.37509
250.47231,2.28475
250.23124,2.23933
249.99017,2.24748
249.74910,2.30815
249.50803,2.33012
249.26696,2.36790
249.02589,2.35953
248.78481,2.25648
248.54374,2.24609
248.30267,2.32340
248.06160,2.30032
247.82053,2.26594
247.57946,2.23359
247.33839,2.20499
247.09732,2.20250
246.85625,2.20838
246.61518,2.20691
246.37411,2.24059
246.13304,2.22112
245.89197,2.12305
245.65090,2.06191
245.40983,2.03705
245.16876,2.02102
244.92769,1.97505
244.68661,1.89364
244.44554,1.80912
244.20447,1.74195
243.96340,1.68798
243.72233,1.63445
243.48126,1.57900
243.24019,1.52613
242.99912,1.47536
242.75805,1.42554
242.51698,1.38075
242.27591,1.34322
242.03484,1.30729
241.79377,1.26744
241.55270,1.22453
241.31163,1.18051
241.07056,1.13553
240.82949,1.09108
240.58842,1.05009
240.34734,1.01434
240.10627,0.98420
239.86520,0.95919
239.62413,0.93761
239.38306,0.91706
239.14199,0.89630
238.90092,0.87564
238.65985,0.85586
238.41878,0.83780
238.17771,0.82194
237.93664,0.80727
237.69557,0.79178
237.45450,0.77529
237.21343,0.76038
236.97236,0.74926
236.73129,0.74129
236.49022,0.73410
236.24915,0.72608
236.00807,0.71728
235.76700,0.70893
235.52593,0.70233
235.28486,0.69736
235.04379,0.69249
234.80272,0.68697
234.56165,0.68176
234.32058,0.67766
234.07951,0.67405
233.83844,0.67036
233.59737,0.66759
233.35630,0.66690
233.11523,0.66738
232.87416,0.66680
232.63309,0.66414
232.39202,0.66026
232.15095,0.65604
231.90988,0.65151
231.66880,0.64734
231.42773,0.64564
231.18666,0.64757
230.94559,0.65066
230.70452,0.65088
230.46345,0.64786
230.22238,0.64538
229.98131,0.64582
229.74024,0.64719
229.49917,0.64668
229.25810,0.64457
229.01703,0.64262
228.77596,0.64126
228.53489,0.64030
228.29382,0.64000
228.05275,0.64025
227.81168,0.64022
227.57061,0.63994
227.32953,0.64087
227.08846,0.64395
226.84739,0.64782
226.60632,0.64991
226.36525,0.64928
226.12418,0.64727
225.88311,0.64571
225.64204,0.64565
225.40097,0.64735
225.15990,0.65020
224.91883,0.65287
224.67776,0.65434
224.43669,0.65464
224.19562,0.65467
223.95455,0.65587
223.71348,0.65920
223.47241,0.66375
223.23134,0.66781
222.99026,0.67119
222.74919,0.67464
222.50812,0.67766
222.26705,0.67943
222.02598,0.68114
221.78491,0.68532
221.54384,0.69295
221.30277,0.70234
221.06170,0.71065
220.82063,0.71644
220.57956,0.72114
220.33849,0.72780
220.09742,0.73839
219.85635,0.75218
219.61528,0.76686
219.37421,0.78054
219.13314,0.79221
218.89207,0.80157
218.65099,0.80971
218.40992,0.81885
218.16885,0.82968
217.92778,0.84011
217.68671,0.84877
217.44564,0.85801
217.20457,0.87105
216.96350,0.88675
216.72243,0.90009
216.48136,0.90828
216.24029,0.91398
215.99922,0.92182
215.75815,0.93365
215.51708,0.94788
215.27601,0.96149
215.03494,0.97254
214.79387,0.98164
214.55280,0.99016
214.31172,0.99706
214.07065,1.00003
213.82958,1.00062
213.58851,1.00417
213.34744,1.01289
213.10637,1.02287
212.86530,1.03039
212.62423,1.03702
212.38316,1.04587
212.14209,1.05715
211.90102,1.06902
211.65995,1.07939
211.41888,1.08653
211.17781,1.09083
210.93674,1.09483
210.69567,1.09933
210.45460,1.10195
210.21353,1.09997
209.97245,1.09322
209.73138,1.08403
209.49031,1.07457
209.24924,1.06673
209.00817,1.06305
208.76710,1.06446
208.52603,1.06798
208.28496,1.06922
208.04389,1.06585
207.80282,1.05776
207.56175,1.04655
207.32068,1.03555
207.07961,1.02792
206.83854,1.02367
206.59747,1.01973
206.35640,1.01327
206.11533,1.00391
205.87426,0.99341
205.63318,0.98367
205.39211,0.97478
205.15104,0.96510
204.90997,0.95381
204.66890,0.94258
204.42783,0.93386
204.18676,0.92802
203.94569,0.92262
203.70462,0.91434
203.46355,0.90182
203.22248,0.88668
202.98141,0.87150
202.74034,0.85754
202.49927,0.84451
202.25820,0.83192
202.01713,0.81989
201.77606,0.80838
201.53499,0.79660
201.29391,0.78394
201.05284,0.77087
200.81177,0.75833
200.57070,0.74661
200.32963,0.73547
200.08856,0.72485
199.84749,0.71495
199.60642,0.70554
199.36535,0.69594
199.12428,0.68563
198.88321,0.67442
198.64214,0.66249
198.40107,0.65073
198.16000,0.64030
197.91893,0.63134
197.67786,0.62276
197.43679,0.61394
197.19572,0.60574
196.95464,0.59899
196.71357,0.59293
196.47250,0.58605
196.23143,0.57787
195.99036,0.56920
195.74929,0.56124
195.50822,0.55469
195.26715,0.54968
195.02608,0.54586
194.78501,0.54253
194.54394,0.53888
194.30287,0.53429
194.06180,0.52858
193.82073,0.52211
193.57966,0.51570
193.33859,0.51045
193.09752,0.50727
192.85645,0.50606
192.61537,0.50526
192.37430,0.50288
192.13323,0.49871
191.89216,0.49469
191.65109,0.49246
191.41002,0.49140
191.16895,0.48956
190.92788,0.48572
190.68681,0.48027
190.44574,0.47484
190.20467,0.47091
189.96360,0.46854
189.72253,0.46640
189.48146,0.46361
189.24039,0.46077
188.99932,0.45900
188.75825,0.45839
188.51718,0.45816
188.27610,0.45787
188.03503,0.45763
187.79396,0.45735
187.55289,0.45644
187.31182,0.45475
187.07075,0.45296
186.82968,0.45180
186.58861,0.45126
186.34754,0.45096
186.10647,0.45094
185.86540,0.45164
185.62433,0.45322
185.38326,0.45532
185.14219,0.45760
184.90112,0.46003
184.66005,0.46217
184.41898,0.46314
184.17791,0.46316
183.93683,0.46413
183.69576,0.46745
183.45469,0.47171
183.21362,0.47441
182.97255,0.47527
182.73148,0.47597
182.49041,0.47720
182.24934,0.47783
182.00827,0.47715
181.76720,0.47594
181.52613,0.47554
181.28506,0.47653
181.04399,0.47857
180.80292,0.48088
180.56185,0.48309
180.32078,0.48559
180.07971,0.48911
179.83864,0.49401
179.59756,0.50003
179.35649,0.50665
179.11542,0.51345
178.87435,0.52042
178.63328,0.52796
178.39221,0.53630
178.15114,0.54497
177.91007,0.55295
177.66900,0.55990
177.42793,0.56723
177.18686,0.57686
176.94579,0.58900
176.70472,0.60253
176.46365,0.61699
176.22258,0.63257
175.98151,0.64904
175.74044,0.66632
175.49937,0.68474
175.25829,0.70376
175.01722,0.72202
174.77615,0.73946
174.53508,0.75713
174.29401,0.77504
174.05294,0.79188
173.81187,0.80682
173.57080,0.82054
173.32973,0.83438
173.08866,0.84826
172.84759,0.85965
172.60652,0.86648
172.36545,0.87008
172.12438,0.87313
171.88331,0.87513
171.64224,0.87344
171.40117,0.86869
171.16010,0.86531
170.91902,0.86533
170.67795,0.86568
170.43688,0.86302
170.19581,0.85769
169.95474,0.85146
169.71367,0.84451
169.47260,0.83694
169.23153,0.83050
168.99046,0.82632
168.74939,0.82277
168.50832,0.81766
168.26725,0.81117
168.02618,0.80496
167.78511,0.80005
167.54404,0.79705
167.30297,0.79674
167.06190,0.79857
166.82083,0.80071
166.57975,0.80266
166.33868,0.80588
166.09761,0.81146
165.85654,0.81926
165.61547,0.82914
165.37440,0.84088
165.13333,0.85269
164.89226,0.86167
164.65119,0.86669
164.41012,0.87037
164.16905,0.87628
163.92798,0.88486
163.68691,0.89430
163.44584,0.90423
163.20477,0.91564
162.96370,0.92817
162.72263,0.94007
162.48156,0.95026
162.24048,0.95963
161.99941,0.97022
161.75834,0.98167
161.51727,0.98954
161.27620,0.99014
161.03513,0.98553
160.79406,0.97954
160.55299,0.97281
160.31192,0.96611
160.07085,0.96191
159.82978,0.95916
159.58871,0.95327
159.34764,0.94345
159.10657,0.93512
158.86550,0.93242
158.62443,0.93185
158.38336,0.92648
158.14229,0.91522
157.90121,0.90392
157.66014,0.89747
157.41907,0.89510
157.17800,0.89330
156.93693,0.89040
156.69586,0.88745
156.45479,0.88621
156.21372,0.88646
155.97265,0.88531
155.73158,0.88037
155.49051,0.87266
155.24944,0.86400
155.00837,0.85361
154.76730,0.84065
154.52623,0.82720
154.28516,0.81511
154.04409,0.80276
153.80302,0.78826
153.56194,0.77307
153.32087,0.75984
153.07980,0.74859
152.83873,0.73709
152.59766,0.72299
152.35659,0.70534
152.11552,0.68566
151.87445,0.66689
151.63338,0.65048
151.39231,0.63542
151.15124,0.62074
150.91017,0.60666
150.66910,0.59278
150.42803,0.57803
150.18696,0.56327
149.94589,0.55079
149.70482,0.54125
149.46375,0.53332
149.22267,0.52544
148.98160,0.51673
148.74053,0.50715
148.49946,0.49779
148.25839,0.49019
148.01732,0.48529
147.77625,0.48291
147.53518,0.48177
147.29411,0.48035
147.05304,0.47871
146.81197,0.47839
146.57090,0.48003
146.32983,0.48267
146.08876,0.48556
145.84769,0.48904
145.60662,0.49351
145.36555,0.49878
145.12448,0.50444
144.88340,0.51014
144.64233,0.51550
144.40126,0.51987
144.16019,0.52245
143.91912,0.52306
143.67805,0.52247
143.43698,0.52136
143.19591,0.51904
142.95484,0.51385
142.71377,0.50530
142.47270,0.49515
142.23163,0.48535
141.99056,0.47630
141.74949,0.46789
141.50842,0.46047
141.26735,0.45402
141.02628,0.44822
140.78521,0.44357
140.54413,0.44092
140.30306,0.44006
140.06199,0.44025
139.82092,0.44161
139.57985,0.44476
139.33878,0.44969
139.09771,0.45560
138.85664,0.46133
138.61557,0.46597
138.37450,0.47003
138.13343,0.47611
137.89236,0.48717
137.65129,0.50347
137.41022,0.52171
137.16915,0.53804
136.92808,0.55195
136.68701,0.56629
136.44594,0.58396
136.20486,0.60565
135.96379,0.63041
135.72272,0.65655
135.48165,0.68214
135.24058,0.70643
134.99951,0.73111
134.75844,0.75805
134.51737,0.78639
134.27630,0.81363
134.03523,0.83854
133.79416,0.86099
133.55309,0.88001
133.31202,0.89470
133.07095,0.90687
132.82988,0.92011
132.58881,0.93558
132.34774,0.94964
132.10667,0.95697
131.86559,0.95618
131.62452,0.95030
131.38345,0.94191
131.14238,0.93081
130.90131,0.91645
130.66024,0.89903
130.41917,0.87835
130.17810,0.85448
129.93703,0.82867
129.69596,0.80129
129.45489,0.77085
129.21382,0.73684
128.97275,0.70210
128.73168,0.67048
128.49061,0.64371
128.24954,0.62072
128.00847,0.59857
127.76740,0.57468
127.52632,0.54957
127.28525,0.52601
127.04418,0.50541
126.80311,0.48703
126.56204,0.47066
126.32097,0.45682
126.07990,0.44466
125.83883,0.43219
125.59776,0.41872
125.35669,0.40539
125.11562,0.39362
124.87455,0.38401
124.63348,0.37645
124.39241,0.37032
124.15134,0.36461
123.91027,0.35861
123.66920,0.35260
123.42812,0.34740
123.18705,0.34350
122.94598,0.34142
122.70491,0.34178
122.46384,0.34391
122.22277,0.34561
121.98170,0.34572
121.74063,0.34564
121.49956,0.34749
121.25849,0.35202
121.01742,0.35864
120.77635,0.36627
120.53528,0.37426
120.29421,0.38279
120.05314,0.39254
119.81207,0.40427
119.57100,0.41895
119.32993,0.43737
119.08885,0.45943
118.84778,0.48469
118.60671,0.51281
118.36564,0.54222
118.12457,0.56942
117.88350,0.59198
117.64243,0.61137
117.40136,0.63015
117.16029,0.64694
116.91922,0.65709
116.67815,0.65839
116.43708,0.65271
116.19601,0.64265
115.95494,0.63021
115.71387,0.61694
115.47280,0.60278
115.23173,0.58695
114.99066,0.57124
114.74958,0.55921
114.50851,0.55199
114.26744,0.54730
114.02637,0.54287
113.78530,0.53888
113.54423,0.53696
113.30316,0.53851
113.06209,0.54376
112.82102,0.55083
112.57995,0.55608
112.33888,0.55750
112.09781,0.55752
111.85674,0.56054
111.61567,0.56776
111.37460,0.57639
111.13353,0.58310
110.89246,0.58669
110.65139,0.58743
110.41031,0.58566
110.16924,0.58165
109.92817,0.57562
109.68710,0.56660
109.44603,0.55254
109.20496,0.53361
108.96389,0.51393
108.72282,0.49731
108.48175,0.48280
108.24068,0.46742
107.99961,0.45093
107.75854,0.43527
107.51747,0.42094
107.27640,0.40600
107.03533,0.38869
106.79426,0.37025
106.55319,0.35446
106.31212,0.34389
106.07104,0.33729
105.82997,0.33103
105.58890,0.32259
105.34783,0.31250
105.10676,0.30273
104.86569,0.29392
104.62462,0.28541
104.38355,0.27739
104.14248,0.27084
103.90141,0.26572
103.66034,0.26099
103.41927,0.25628
103.17820,0.25170
102.93713,0.24695
102.69606,0.24181
102.45499,0.23694
102.21392,0.23322
101.97285,0.23052
101.73177,0.22765
101.49070,0.22377
101.24963,0.21927
101.00856,0.21510
100.76749,0.21180
100.52642,0.20952
100.28535,0.20827
100.04428,0.20782
99.80321,0.20762
99.56214,0.20679
99.32107,0.20441
99.08000,0.20054
98.83893,0.19684
98.59786,0.19536
98.35679,0.19627
98.11572,0.19768
97.87465,0.19800
97.63358,0.19768
97.39250,0.19849
97.15143,0.20180
96.91036,0.20755
96.66929,0.21417
96.42822,0.21988
96.18715,0.22439
95.94608,0.22898
95.70501,0.23498
95.46394,0.24301
95.22287,0.25256
94.98180,0.26135
94.74073,0.26672
94.49966,0.26852
94.25859,0.26912
94.01752,0.27020
93.77645,0.27118
93.53538,0.27073
93.29431,0.26893
93.05323,0.26749
92.81216,0.26810
92.57109,0.27095
92.33002,0.27511
92.08895,0.27967
91.84788,0.28400
91.60681,0.28797
91.36574,0.29287
91.12467,0.30140
90.88360,0.31598
90.64253,0.33728
90.40146,0.36449
90.16039,0.39652
89.91932,0.43246
89.67825,0.47106
89.43718,0.51050
89.19611,0.54811
88.95504,0.57887
88.71396,0.59556
88.47289,0.59373
88.23182,0.57599
87.99075,0.54825
87.74968,0.51391
87.50861,0.47465
87.26754,0.43403
87.02647,0.39667
86.78540,0.36483
86.54433,0.33795
86.30326,0.31503
86.06219,0.29554
85.82112,0.27809
85.58005,0.26035
85.33898,0.24144
85.09791,0.22308
84.85684,0.20778
84.61577,0.19660
84.37469,0.18849
84.13362,0.18123
83.89255,0.17314
83.65148,0.16467
83.41041,0.15783
83.16934,0.15390
82.92827,0.15237
82.68720,0.15196
82.44613,0.15134
82.20506,0.14921
81.96399,0.14522
81.72292,0.14058
81.48185,0.13686
81.24078,0.13445
80.99971,0.13274
80.75864,0.13141
80.51757,0.13080
80.27650,0.13074
80.03542,0.13014
79.79435,0.12842
79.55328,0.12668
79.31221,0.12606
79.07114,0.12577
78.83007,0.12429
78.58900,0.12166
78.34793,0.11918
78.10686,0.11747
77.86579,0.11636
77.62472,0.11544
77.38365,0.11385
77.14258,0.11063
76.90151,0.10624
76.66044,0.10282
76.41937,0.10201
76.17830,0.10311
75.93723,0.10410
75.69615,0.10377
75.45508,0.10230
75.21401,0.10046
74.97294,0.09889
74.73187,0.09792
74.49080,0.09796
74.24973,0.09971
74.00866,0.10310
73.76759,0.10631
73.52652,0.10731
73.28545,0.10604
73.04438,0.10424
72.80331,0.10366
72.56224,0.10484
72.32117,0.10696
72.08010,0.10840
71.83903,0.10830
71.59796,0.10753
71.35688,0.10763
71.11581,0.10948
70.87474,0.11325
70.63367,0.11894
70.39260,0.12660
70.15153,0.13629
69.91046,0.14765
69.66939,0.15975
69.42832,0.17095
69.18725,0.17924
68.94618,0.18292
68.70511,0.18128
68.46404,0.17405
68.22297,0.16146
67.98190,0.14566
67.74083,0.13062
67.49976,0.11936
67.25869,0.11219
67.01761,0.10773
66.77654,0.10460
66.53547,0.10180
66.29440,0.09892
66.05333,0.09672
65.81226,0.09647
65.57119,0.09808
65.33012,0.09982
65.08905,0.10062
64.84798,0.10176
64.60691,0.10544
64.36584,0.11191
64.12477,0.11916
63.88370,0.12491
63.64263,0.12763
63.40156,0.12662
63.16049,0.12233
62.91942,0.11641
62.67834,0.11050
62.43727,0.10527
62.19620,0.10047
61.95513,0.09505
61.71406,0.08795
61.47299,0.07992
61.23192,0.07361
60.99085,0.07096
60.74978,0.07125
60.50871,0.07275
60.26764,0.07499
60.02657,0.07786
59.78550,0.08000
59.54443,0.08026
59.30336,0.07967
59.06229,0.07973
58.82122,0.08020
58.58015,0.08014
58.33907,0.07941
58.09800,0.07838
57.85693,0.07775
57.61586,0.07788
57.37479,0.07738
57.13372,0.07435
56.89265,0.06981
56.65158,0.06669
56.41051,0.06554
56.16944,0.06489
55.92837,0.06484
55.68730,0.06665
55.44623,0.06966
55.20516,0.07154
54.96409,0.07156
54.72302,0.07150
54.48195,0.07278
54.24088,0.07450
53.99980,0.07493
53.75873,0.07374
53.51766,0.07226
53.27659,0.07197
53.03552,0.07293
52.79445,0.07390
52.55338,0.07422
52.31231,0.07462
52.07124,0.07524
51.83017,0.07440
51.58910,0.07118
51.34803,0.06754
51.10696,0.06544
50.86589,0.06359
50.62482,0.05963
50.38375,0.05471
50.14268,0.05295
49.90161,0.05562
49.66053,0.05885
49.41946,0.05896
49.17839,0.05670
48.93732,0.05473
48.69625,0.05411
48.45518,0.05410
48.21411,0.05281
47.97304,0.04863
47.73197,0.04331
47.49090,0.04176
47.24983,0.04574
47.00876,0.05047
46.76769,0.05056
46.52662,0.04638
46.28555,0.04259
46.04448,0.04239
45.80341,0.04427
45.56234,0.04491
45.32126,0.04430
45.08019,0.04551
44.83912,0.04897
44.59805,0.05003
44.35698,0.04471
44.11591,0.03568
43.87484,0.03001
43.63377,0.03076
43.39270,0.03292
43.15163,0.03004
42.91056,0.02260
42.66949,0.01666
42.42842,0.01540
42.18735,0.01765
41.94628,0.02269
41.70521,0.02963
41.46414,0.03519
41.22307,0.03654
40.98199,0.03366
40.74092,0.02898
40.49985,0.02599
40.25878,0.02657
40.01771,0.02839
39.77664,0.02752
39.53557,0.02538
39.29450,0.02689
39.05343,0.03015
38.81236,0.02792
38.57129,0.02180
38.33022,0.02358
38.08915,0.03800
37.84808,0.05559
37.60701,0.06514
37.36594,0.06219
37.12487,0.04767
36.88380,0.02995
36.64272,0.02333
36.40165,0.03326
36.16058,0.04840
35.91951,0.05433
35.67844,0.05079
35.43737,0.05015
35.19630,0.06012
34.95523,0.07420
34.71416,0.08112
34.47309,0.07609
34.23202,0.06487
33.99095,0.06092
33.74988,0.07486
33.50881,0.10384
33.26774,0.13087
33.02667,0.14290
32.78560,0.14782
32.54453,0.15659
32.30345,0.16952
32.06238,0.18053
31.82131,0.17738
31.58024,0.15524
31.33917,0.12449
31.09810,0.09855
30.85703,0.08210
30.61596,0.07401
30.37489,0.07403
30.13382,0.08005
29.89275,0.08909
29.65168,0.10312
29.41061,0.12382
29.16954,0.14610
28.92847,0.16164
28.68740,0.16392
28.44633,0.15183
28.20526,0.13261
27.96418,0.12033
27.72311,0.12480
27.48204,0.14602
27.24097,0.17497
26.99990,0.19428
26.75883,0.19190
26.51776,0.17835
26.27669,0.17817
26.03562,0.19374
25.79455,0.20174
25.55348,0.19447
25.31241,0.18718
25.07134,0.18803
24.83027,0.19815
24.58920,0.22236
24.34813,0.26064
24.10706,0.30468
23.86599,0.35048
23.62491,0.39679
23.38384,0.42997
23.14277,0.43011
22.90170,0.39362
22.66063,0.34598
22.41956,0.31555
22.17849,0.29156
21.93742,0.25708
21.69635,0.24249
21.45528,0.27354
21.21421,0.33083
20.97314,0.37209
20.73207,0.37766
20.49100,0.35846
20.24993,0.34708
20.00886,0.36370
19.76779,0.38248
19.52672,0.38899
19.28564,0.41022
19.04457,0.47496
18.80350,0.56122
18.56243,0.54239
18.32136,0.51706
18.08029,0.57294
17.83922,0.61310
17.59815,0.53034
17.35708,0.41853
17.11601,0.40873
16.87494,0.50295
16.63387,0.59457
16.39280,0.66812
16.15173,0.64067
15.91066,0.61808
15.66959,0.59801
15.42852,0.52864
15.18745,0.52755
14.94637,0.64713
14.70530,0.62964
14.46423,0.52468
14.22316,0.51343
13.98209,0.54618
13.74102,0.61900
13.49995,0.71648
13.25888,0.72847
13.01781,0.78574
12.77674,0.93531
12.53567,0.92975
12.29460,0.77559
12.05353,0.70740
11.81246,0.79509
11.57139,0.93715
11.33032,0.75487
11.08925,0.69592
10.84818,0.82826
10.60710,1.03366
10.36603,0.98077
10.12496,0.85178
9.88389,0.75126
9.64282,0.68631
9.40175,0.70376
9.16068,0.82911
8.91961,1.02067
8.67854,0.93846
8.43747,0.68120
8.19640,0.53922
7.95533,0.50607
7.71426,0.54749
7.47319,0.66936
7.23212,0.86300
6.99105,0.79793
6.74998,0.60664
6.50891,0.53458
6.26783,0.56694
6.02676,0.65645
5.78569,0.74092
5.54462,0.72676
5.30355,0.70730
5.06248,0.78667
4.82141,0.84276
4.58034,0.73285
4.33927,0.62514
4.09820,0.62507
3.85713,0.71124
3.61606,0.81124
3.37499,0.85965
3.13392,0.95857
2.89285,1.07128
2.65178,0.93261
2.41071,0.96843
2.16964,0.98765
1.92856,0.88099
1.68749,0.74628
1.44642,0.74523
1.20535,0.80025
0.96428,0.75090
0.72321,0.66889
0.48214,0.60262
0.24107,0.60561
-0.00000,0.72636
