399.69498,1.51496
399.45391,1.50950
399.21284,1.50991
398.97177,1.52021
398.73070,1.53135
398.48963,1.53547
398.24856,1.53793
398.00749,1.54756
397.76642,1.56546
397.52535,1.58488
397.28428,1.59611
397.04321,1.59339
396.80214,1.58170
396.56107,1.56990
396.32000,1.56156
396.07892,1.55464
395.83785,1.54850
395.59678,1.54873
395.35571,1.55562
395.11464,1.55808
394.87357,1.54919
394.63250,1.53428
394.39143,1.52155
394.15036,1.51333
393.90929,1.50795
393.66822,1.50473
393.42715,1.50247
393.18608,1.49988
392.94501,1.49929
392.70394,1.50874
392.46287,1.53566
392.22180,1.56739
391.98073,1.57445
391.73965,1.54647
391.49858,1.50804
391.25751,1.48897
391.01644,1.49639
390.77537,1.51176
390.53430,1.51404
390.29323,1.50582
390.05216,1.49968
389.81109,1.49751
389.57002,1.49410
389.32895,1.48658
389.08788,1.47985
388.84681,1.48377
388.60574,1.49976
388.36467,1.51550
388.12360,1.52098
387.88253,1.51944
387.64146,1.51833
387.40038,1.51425
387.15931,1.49382
386.91824,1.45528
386.67717,1.41799
386.43610,1.39857
386.19503,1.39454
385.95396,1.39915
385.71289,1.41288
385.47182,1.43087
385.23075,1.43720
384.98968,1.42475
384.74861,1.40326
384.50754,1.38373
384.26647,1.36888
384.02540,1.35835
383.78433,1.34780
383.54326,1.33214
383.30219,1.31885
383.06111,1.31208
382.82004,1.30466
382.57897,1.29469
382.33790,1.29032
382.09683,1.29495
381.85576,1.29740
381.61469,1.28882
381.37362,1.27700
381.13255,1.27029
380.89148,1.26905
380.65041,1.26773
380.40934,1.26211
380.16827,1.25650
379.92720,1.26116
379.68613,1.28086
379.44506,1.30299
379.20399,1.30673
378.96292,1.29161
378.72184,1.27621
378.48077,1.27533
378.23970,1.28796
377.99863,1.29858
377.75756,1.29673
377.51649,1.29186
377.27542,1.30018
377.03435,1.32054
376.79328,1.33533
376.55221,1.33759
376.31114,1.33916
376.07007,1.34916
375.82900,1.36302
375.58793,1.37239
375.34686,1.37472
375.10579,1.37246
374.86472,1.36949
374.62365,1.36758
374.38257,1.36681
374.14150,1.36588
373.90043,1.36384
373.65936,1.36600
373.41829,1.37902
373.17722,1.39670
372.93615,1.40454
372.69508,1.40078
372.45401,1.39762
372.21294,1.40262
371.97187,1.41181
371.73080,1.41619
371.48973,1.40853
371.24866,1.38962
371.00759,1.36775
370.76652,1.34935
370.52545,1.33775
370.28437,1.33194
370.04330,1.32546
369.80223,1.31511
369.56116,1.30684
369.32009,1.30756
369.07902,1.31420
368.83795,1.31706
368.59688,1.31287
368.35581,1.30621
368.11474,1.29910
367.87367,1.28784
367.63260,1.27316
367.39153,1.26515
367.15046,1.26877
366.90939,1.27246
366.66832,1.26455
366.42725,1.25361
366.18618,1.25485
365.94510,1.26684
365.70403,1.27473
365.46296,1.27103
365.22189,1.26226
364.98082,1.25659
364.73975,1.25488
364.49868,1.25362
364.25761,1.25205
364.01654,1.25224
363.77547,1.25228
363.53440,1.24767
363.29333,1.24131
363.05226,1.24259
362.81119,1.25409
362.57012,1.26545
362.32905,1.26401
362.08798,1.24943
361.84691,1.23210
361.60583,1.22288
361.36476,1.22707
361.12369,1.24077
360.88262,1.25276
360.64155,1.25528
360.40048,1.25237
360.15941,1.25317
359.91834,1.25926
359.67727,1.26337
359.43620,1.25941
359.19513,1.24831
358.95406,1.23396
358.71299,1.22023
358.47192,1.21117
358.23085,1.20879
357.98978,1.21137
357.74871,1.21611
357.50764,1.22162
357.26656,1.22784
357.02549,1.23538
356.78442,1.24368
356.54335,1.24822
356.30228,1.24327
356.06121,1.23125
355.82014,1.22255
355.57907,1.22274
355.33800,1.22567
355.09693,1.22170
354.85586,1.21015
354.61479,1.19936
354.37372,1.19738
354.13265,1.20507
353.89158,1.21473
353.65051,1.21782
353.40944,1.21578
353.16837,1.21631
352.92729,1.22069
352.68622,1.22291
352.44515,1.22092
352.20408,1.21968
351.96301,1.22194
351.72194,1.22647
351.48087,1.23282
351.23980,1.23840
350.99873,1.23725
350.75766,1.23048
350.51659,1.22631
350.27552,1.22722
350.03445,1.22900
349.79338,1.23068
349.55231,1.23594
349.31124,1.24560
349.07017,1.25520
348.82910,1.25900
348.58802,1.25422
348.34695,1.24340
348.10588,1.23274
347.86481,1.22790
347.62374,1.23201
347.38267,1.24433
347.14160,1.25798
346.90053,1.26459
346.65946,1.26579
346.41839,1.27180
346.17732,1.28546
345.93625,1.29639
345.69518,1.29488
345.45411,1.28394
345.21304,1.27291
344.97197,1.26856
344.73090,1.27326
344.48983,1.28410
344.24875,1.29443
344.00768,1.30106
343.76661,1.30689
343.52554,1.31372
343.28447,1.31918
343.04340,1.32333
342.80233,1.33060
342.56126,1.34168
342.32019,1.34897
342.07912,1.34518
341.83805,1.33435
341.59698,1.32785
341.35591,1.33103
341.11484,1.33870
340.87377,1.34485
340.63270,1.35138
340.39163,1.36301
340.15056,1.37698
339.90948,1.38337
339.66841,1.37837
339.42734,1.37132
339.18627,1.37301
338.94520,1.37944
338.70413,1.37872
338.46306,1.37271
338.22199,1.37332
337.98092,1.38423
337.73985,1.39921
337.49878,1.41121
337.25771,1.41658
337.01664,1.41246
336.77557,1.40059
336.53450,1.39407
336.29343,1.40607
336.05236,1.43234
335.81129,1.45357
335.57021,1.45729
335.32914,1.44835
335.08807,1.43373
334.84700,1.41259
334.60593,1.38754
334.36486,1.36769
334.12379,1.35751
333.88272,1.35437
333.64165,1.35469
333.40058,1.35928
333.15951,1.36967
332.91844,1.37977
332.67737,1.37740
332.43630,1.36340
332.19523,1.35351
331.95416,1.35646
331.71309,1.36378
331.47202,1.36341
331.23094,1.35650
330.98987,1.35583
330.74880,1.36705
330.50773,1.37743
330.26666,1.37116
330.02559,1.34835
329.78452,1.32157
329.54345,1.30287
329.30238,1.30018
329.06131,1.31570
328.82024,1.34401
328.57917,1.37399
328.33810,1.39081
328.09703,1.38080
327.85596,1.34777
327.61489,1.31494
327.37382,1.29981
327.13275,1.29983
326.89167,1.30519
326.65060,1.31084
326.40953,1.31396
326.16846,1.30711
325.92739,1.28941
325.68632,1.27641
325.44525,1.28073
325.20418,1.29634
324.96311,1.30954
324.72204,1.31351
324.48097,1.30965
324.23990,1.30347
323.99883,1.30215
323.75776,1.30918
323.51669,1.31936
323.27562,1.32337
323.03455,1.32025
322.79348,1.31841
322.55240,1.32105
322.31133,1.32167
322.07026,1.31619
321.82919,1.31084
321.58812,1.31456
321.34705,1.33036
321.10598,1.35272
320.86491,1.36844
320.62384,1.36302
320.38277,1.33734
320.14170,1.30918
319.90063,1.29258
319.65956,1.28839
319.41849,1.29202
319.17742,1.30187
318.93635,1.31640
318.69528,1.32639
318.45421,1.32108
318.21313,1.30446
317.97206,1.29181
317.73099,1.29156
317.48992,1.30022
317.24885,1.30765
317.00778,1.30749
316.76671,1.30592
316.52564,1.31405
316.28457,1.33485
316.04350,1.35866
315.80243,1.36805
315.56136,1.35499
315.32029,1.33172
315.07922,1.31494
314.83815,1.30998
314.59708,1.31474
314.35601,1.33005
314.11494,1.35564
313.87386,1.37847
313.63279,1.38490
313.39172,1.37983
313.15065,1.37238
312.90958,1.37113
312.66851,1.38855
312.42744,1.42021
312.18637,1.43669
311.94530,1.42598
311.70423,1.41121
311.46316,1.40690
311.22209,1.40727
310.98102,1.40903
310.73995,1.41163
310.49888,1.40506
310.25781,1.38766
310.01674,1.37778
309.77567,1.38515
309.53459,1.39797
309.29352,1.40053
309.05245,1.39132
308.81138,1.38117
308.57031,1.38077
308.32924,1.38968
308.08817,1.39639
307.84710,1.39495
307.60603,1.39040
307.36496,1.38422
307.12389,1.37357
306.88282,1.36477
306.64175,1.36930
306.40068,1.38696
306.15961,1.40482
305.91854,1.41385
305.67747,1.41716
305.43640,1.41677
305.19532,1.41148
304.95425,1.40878
304.71318,1.41694
304.47211,1.42852
304.23104,1.42645
303.98997,1.40414
303.74890,1.36876
303.50783,1.33383
303.26676,1.31271
303.02569,1.31284
302.78462,1.32858
302.54355,1.34175
302.30248,1.34125
302.06141,1.33404
301.82034,1.33076
301.57927,1.33349
301.33820,1.33882
301.09713,1.34250
300.85605,1.34063
300.61498,1.33401
300.37391,1.32944
300.13284,1.32870
299.89177,1.32304
299.65070,1.30664
299.40963,1.28710
299.16856,1.27421
298.92749,1.27002
298.68642,1.27153
298.44535,1.27156
298.20428,1.26208
297.96321,1.24557
297.72214,1.23244
297.48107,1.22763
297.24000,1.22884
296.99893,1.23174
296.75786,1.23247
296.51678,1.22900
296.27571,1.22246
296.03464,1.21694
295.79357,1.21487
295.55250,1.21287
295.31143,1.20734
295.07036,1.20061
294.82929,1.19619
294.58822,1.19294
294.34715,1.18906
294.10608,1.18710
293.86501,1.18926
293.62394,1.19230
293.38287,1.19094
293.14180,1.18315
292.90073,1.17173
292.65966,1.16233
292.41859,1.15893
292.17751,1.15941
291.93644,1.15788
291.69537,1.15164
291.45430,1.14389
291.21323,1.14052
290.97216,1.14471
290.73109,1.15316
290.49002,1.15815
290.24895,1.15592
290.00788,1.15045
289.76681,1.14686
289.52574,1.14549
289.28467,1.14369
289.04360,1.13989
288.80253,1.13539
288.56146,1.13346
288.32039,1.13561
288.07932,1.13909
287.83824,1.14009
287.59717,1.13913
287.35610,1.13904
287.11503,1.13894
286.87396,1.13512
286.63289,1.12687
286.39182,1.11794
286.15075,1.11220
285.90968,1.10890
285.66861,1.10415
285.42754,1.09722
285.18647,1.09184
284.94540,1.09146
284.70433,1.09668
284.46326,1.10596
284.22219,1.11602
283.98112,1.12238
283.74005,1.12235
283.49897,1.11793
283.25790,1.11425
283.01683,1.11434
282.77576,1.11625
282.53469,1.11618
282.29362,1.11449
282.05255,1.11533
281.81148,1.11940
281.57041,1.12166
281.32934,1.11877
281.08827,1.11460
280.84720,1.11438
280.60613,1.11723
280.36506,1.11842
280.12399,1.11590
279.88292,1.11131
279.64185,1.10706
279.40078,1.10520
279.15970,1.10689
278.91863,1.11184
278.67756,1.11812
278.43649,1.12250
278.19542,1.12229
277.95435,1.11855
277.71328,1.11589
277.47221,1.11736
277.23114,1.12176
276.99007,1.12609
276.74900,1.12840
276.50793,1.12770
276.26686,1.12362
276.02579,1.11724
275.78472,1.11046
275.54365,1.10527
275.30258,1.10480
275.06151,1.11239
274.82043,1.12745
274.57936,1.14284
274.33829,1.14928
274.09722,1.14510
273.85615,1.13782
273.61508,1.13377
273.37401,1.13233
273.13294,1.13135
272.89187,1.13218
272.65080,1.13704
272.40973,1.14541
272.16866,1.15414
271.92759,1.15922
271.68652,1.15837
271.44545,1.15421
271.20438,1.15294
270.96331,1.15829
270.72224,1.16824
270.48116,1.17732
270.24009,1.18212
269.99902,1.18432
269.75795,1.18791
269.51688,1.19435
269.27581,1.20090
269.03474,1.20342
268.79367,1.20084
268.55260,1.19654
268.31153,1.19431
268.07046,1.19544
267.82939,1.20133
267.58832,1.21416
267.34725,1.23119
267.10618,1.24374
266.86511,1.24726
266.62404,1.24777
266.38297,1.25290
266.14189,1.26329
265.90082,1.27556
265.65975,1.28641
265.41868,1.29370
265.17761,1.29761
264.93654,1.30087
264.69547,1.30693
264.45440,1.31728
264.21333,1.32983
263.97226,1.33983
263.73119,1.34554
263.49012,1.35129
263.24905,1.36091
263.00798,1.37288
262.76691,1.38645
262.52584,1.40708
262.28477,1.43863
262.04370,1.47359
261.80262,1.50002
261.56155,1.51676
261.32048,1.53382
261.07941,1.55833
260.83834,1.58369
260.59727,1.59966
260.35620,1.61197
260.11513,1.62824
259.87406,1.64438
259.63299,1.66225
259.39192,1.69446
259.15085,1.74380
258.90978,1.78879
258.66871,1.80475
258.42764,1.79705
258.18657,1.78936
257.94550,1.79502
257.70443,1.81000
257.46335,1.81687
257.22228,1.80231
256.98121,1.77400
256.74014,1.74881
256.49907,1.73203
256.25800,1.71515
256.01693,1.69190
255.77586,1.66704
255.53479,1.64998
255.29372,1.64667
255.05265,1.65296
254.81158,1.65769
254.57051,1.65255
254.32944,1.63896
254.08837,1.62982
253.84730,1.63990
253.60623,1.66448
253.36516,1.67595
253.12408,1.65168
252.88301,1.60416
252.64194,1.56597
252.40087,1.55177
252.15980,1.55367
251.91873,1.55848
251.67766,1.55975
251.43659,1.55843
251.19552,1.55710
250.95445,1.55592
250.71338,1.55476
250.47231,1.55482
250.23124,1.55602
249.99017,1.55897
249.74910,1.56408
249.50803,1.56563
249.26696,1.55806
249.02589,1.54822
248.78481,1.54646
248.54374,1.55045
248.30267,1.55031
248.06160,1.54456
247.82053,1.53947
247.57946,1.53772
247.33839,1.53813
247.09732,1.54154
246.85625,1.55049
246.61518,1.56548
246.37411,1.58456
246.13304,1.60357
245.89197,1.61566
245.65090,1.61646
245.40983,1.61289
245.16876,1.61938
244.92769,1.64502
244.68661,1.68438
244.44554,1.72262
244.20447,1.75398
243.96340,1.78962
243.72233,1.84014
243.48126,1.90651
243.24019,1.99093
242.99912,2.07944
242.75805,2.10237
242.51698,1.98490
242.27591,1.84949
242.03484,1.72444
241.79377,1.61709
241.55270,1.52815
241.31163,1.45187
241.07056,1.38536
240.82949,1.32717
240.58842,1.27691
240.34734,1.23441
240.10627,1.19758
239.86520,1.16390
239.62413,1.13356
239.38306,1.10848
239.14199,1.08770
238.90092,1.06647
238.65985,1.04151
238.41878,1.01525
238.17771,0.99337
237.93664,0.97860
237.69557,0.96807
237.45450,0.95665
237.21343,0.94267
236.97236,0.92959
236.73129,0.92102
236.49022,0.91474
236.24915,0.90463
236.00807,0.88918
235.76700,0.87392
235.52593,0.86339
235.28486,0.85549
235.04379,0.84608
234.80272,0.83537
234.56165,0.82648
234.32058,0.82087
234.07951,0.81794
233.83844,0.81727
233.59737,0.81863
233.35630,0.82054
233.11523,0.82082
232.87416,0.81889
232.63309,0.81629
232.39202,0.81390
232.15095,0.81017
231.90988,0.80415
231.66880,0.79826
231.42773,0.79521
231.18666,0.79427
230.94559,0.79292
230.70452,0.79019
230.46345,0.78660
230.22238,0.78296
229.98131,0.78126
229.74024,0.78359
229.49917,0.78851
229.25810,0.79150
229.01703,0.79062
228.77596,0.78850
228.53489,0.78782
228.29382,0.78882
228.05275,0.79111
227.81168,0.79372
227.57061,0.79408
227.32953,0.79121
227.08846,0.78834
226.84739,0.78858
226.60632,0.79063
226.36525,0.79117
226.12418,0.78958
225.88311,0.78806
225.64204,0.78787
225.40097,0.78827
225.15990,0.78937
224.91883,0.79280
224.67776,0.79820
224.43669,0.80207
224.19562,0.80250
223.95455,0.80140
223.71348,0.80118
223.47241,0.80300
223.23134,0.80745
222.99026,0.81416
222.74919,0.82212
222.50812,0.83094
222.26705,0.84003
222.02598,0.84730
221.78491,0.85184
221.54384,0.85564
221.30277,0.86019
221.06170,0.86491
220.82063,0.86998
220.57956,0.87722
220.33849,0.88784
220.09742,0.90128
219.85635,0.91569
219.61528,0.92841
219.37421,0.93659
219.13314,0.93940
218.89207,0.93992
218.65099,0.94399
218.40992,0.95605
218.16885,0.97607
217.92778,0.99999
217.68671,1.02242
217.44564,1.04000
217.20457,1.05315
216.96350,1.06447
216.72243,1.07734
216.48136,1.09490
216.24029,1.11613
215.99922,1.13471
215.75815,1.14599
215.51708,1.15258
215.27601,1.15959
215.03494,1.17046
214.79387,1.18802
214.55280,1.21164
214.31172,1.23322
214.07065,1.24399
213.82958,1.24512
213.58851,1.24446
213.34744,1.24871
213.10637,1.26275
212.86530,1.28883
212.62423,1.32282
212.38316,1.35436
212.14209,1.37265
211.90102,1.37243
211.65995,1.35843
211.41888,1.34470
211.17781,1.34337
210.93674,1.35507
210.69567,1.37054
210.45460,1.37822
210.21353,1.37400
209.97245,1.36428
209.73138,1.35546
209.49031,1.34807
209.24924,1.34107
209.00817,1.33509
208.76710,1.33125
208.52603,1.32976
208.28496,1.32948
208.04389,1.32743
207.80282,1.32152
207.56175,1.31391
207.32068,1.30850
207.07961,1.30383
206.83854,1.29204
206.59747,1.26993
206.35640,1.24542
206.11533,1.22723
205.87426,1.21371
205.63318,1.19729
205.39211,1.17658
205.15104,1.15615
204.90997,1.13794
204.66890,1.12175
204.42783,1.10871
204.18676,1.09807
203.94569,1.08505
203.70462,1.06640
203.46355,1.04519
203.22248,1.02726
202.98141,1.01545
202.74034,1.00822
202.49927,1.00089
202.25820,0.98769
202.01713,0.96634
201.77606,0.94128
201.53499,0.92013
201.29391,0.90702
201.05284,0.89890
200.81177,0.88821
200.57070,0.87060
200.32963,0.85021
200.08856,0.83474
199.84749,0.82621
199.60642,0.81911
199.36535,0.80779
199.12428,0.79314
198.88321,0.78015
198.64214,0.77194
198.40107,0.76732
198.16000,0.76166
197.91893,0.75130
197.67786,0.73816
197.43679,0.72718
197.19572,0.71989
196.95464,0.71328
196.71357,0.70416
196.47250,0.69288
196.23143,0.68224
195.99036,0.67445
195.74929,0.66945
195.50822,0.66510
195.26715,0.65913
195.02608,0.65123
194.78501,0.64304
194.54394,0.63600
194.30287,0.62963
194.06180,0.62287
193.82073,0.61627
193.57966,0.61129
193.33859,0.60771
193.09752,0.60367
192.85645,0.59833
192.61537,0.59342
192.37430,0.59126
192.13323,0.59126
191.89216,0.58993
191.65109,0.58533
191.41002,0.57961
191.16895,0.57536
190.92788,0.57189
190.68681,0.56685
190.44574,0.56022
190.20467,0.55507
189.96360,0.55404
189.72253,0.55602
189.48146,0.55736
189.24039,0.55688
188.99932,0.55700
188.75825,0.55871
188.51718,0.55933
188.27610,0.55671
188.03503,0.55325
187.79396,0.55297
187.55289,0.55566
187.31182,0.55700
187.07075,0.55452
186.82968,0.55068
186.58861,0.54849
186.34754,0.54767
186.10647,0.54699
185.86540,0.54688
185.62433,0.54723
185.38326,0.54592
185.14219,0.54242
184.90112,0.54000
184.66005,0.54154
184.41898,0.54595
184.17791,0.55096
183.93683,0.55611
183.69576,0.56097
183.45469,0.56410
183.21362,0.56601
182.97255,0.56898
182.73148,0.57263
182.49041,0.57370
182.24934,0.57129
182.00827,0.56863
181.76720,0.56881
181.52613,0.57153
181.28506,0.57466
181.04399,0.57710
180.80292,0.57868
180.56185,0.57912
180.32078,0.57925
180.07971,0.58103
179.83864,0.58470
179.59756,0.58862
179.35649,0.59212
179.11542,0.59569
178.87435,0.59990
178.63328,0.60662
178.39221,0.61825
178.15114,0.63411
177.91007,0.65116
177.66900,0.66733
177.42793,0.68080
177.18686,0.69004
176.94579,0.69762
176.70472,0.70853
176.46365,0.72334
176.22258,0.73889
175.98151,0.75448
175.74044,0.77268
175.49937,0.79504
175.25829,0.82086
175.01722,0.84936
174.77615,0.87979
174.53508,0.90947
174.29401,0.93433
174.05294,0.95259
173.81187,0.96631
173.57080,0.97948
173.32973,0.99524
173.08866,1.01296
172.84759,1.02837
172.60652,1.03865
172.36545,1.04454
172.12438,1.04713
171.88331,1.04738
171.64224,1.04681
171.40117,1.04500
171.16010,1.04028
170.91902,1.03387
170.67795,1.02860
170.43688,1.02358
170.19581,1.01571
169.95474,1.00569
169.71367,0.99749
169.47260,0.99271
169.23153,0.98901
168.99046,0.98394
168.74939,0.97743
168.50832,0.97024
168.26725,0.96292
168.02618,0.95670
167.78511,0.95270
167.54404,0.95079
167.30297,0.95151
167.06190,0.95698
166.82083,0.96789
166.57975,0.98059
166.33868,0.98877
166.09761,0.98844
165.85654,0.98184
165.61547,0.97584
165.37440,0.97594
165.13333,0.98300
164.89226,0.99565
164.65119,1.01362
164.41012,1.03560
164.16905,1.05491
163.92798,1.06396
163.68691,1.06442
163.44584,1.06539
163.20477,1.07346
162.96370,1.08968
162.72263,1.11216
162.48156,1.13781
162.24048,1.16213
161.99941,1.18001
161.75834,1.18804
161.51727,1.18596
161.27620,1.17782
161.03513,1.17057
160.79406,1.16834
160.55299,1.16859
160.31192,1.16453
160.07085,1.15208
159.82978,1.13561
159.58871,1.12325
159.34764,1.11887
159.10657,1.12108
158.86550,1.12552
158.62443,1.12733
158.38336,1.12241
158.14229,1.10882
157.90121,1.08962
157.66014,1.07346
157.41907,1.06840
157.17800,1.07370
156.93693,1.07771
156.69586,1.06814
156.45479,1.04671
156.21372,1.02630
155.97265,1.01591
155.73158,1.01467
155.49051,1.01559
155.24944,1.01153
155.00837,0.99927
154.76730,0.98037
154.52623,0.95953
154.28516,0.94212
154.04409,0.93094
153.80302,0.92250
153.56194,0.90842
153.32087,0.88445
153.07980,0.85666
152.83873,0.83460
152.59766,0.82124
152.35659,0.81134
152.11552,0.79684
151.87445,0.77428
151.63338,0.74780
151.39231,0.72448
151.15124,0.70772
150.91017,0.69567
150.66910,0.68411
150.42803,0.66974
150.18696,0.65225
149.94589,0.63433
149.70482,0.61893
149.46375,0.60645
149.22267,0.59494
148.98160,0.58350
148.74053,0.57363
148.49946,0.56658
148.25839,0.56178
148.01732,0.55804
147.77625,0.55454
147.53518,0.55099
147.29411,0.54819
147.05304,0.54740
146.81197,0.54848
146.57090,0.54965
146.32983,0.55005
146.08876,0.55145
145.84769,0.55604
145.60662,0.56335
145.36555,0.57045
145.12448,0.57522
144.88340,0.57844
144.64233,0.58251
144.40126,0.58864
144.16019,0.59561
143.91912,0.60123
143.67805,0.60418
143.43698,0.60389
143.19591,0.59979
142.95484,0.59224
142.71377,0.58291
142.47270,0.57292
142.23163,0.56185
141.99056,0.54969
141.74949,0.53860
141.50842,0.53146
141.26735,0.52851
141.02628,0.52627
140.78521,0.52138
140.54413,0.51496
140.30306,0.51099
140.06199,0.51082
139.82092,0.51211
139.57985,0.51324
139.33878,0.51601
139.09771,0.52252
138.85664,0.53160
138.61557,0.54016
138.37450,0.54754
138.13343,0.55634
137.89236,0.56872
137.65129,0.58391
137.41022,0.60006
137.16915,0.61694
136.92808,0.63529
136.68701,0.65508
136.44594,0.67627
136.20486,0.70020
135.96379,0.72849
135.72272,0.76113
135.48165,0.79586
135.24058,0.82894
134.99951,0.85841
134.75844,0.88671
134.51737,0.91834
134.27630,0.95581
134.03523,0.99798
133.79416,1.03871
133.55309,1.06905
133.31202,1.08840
133.07095,1.10854
132.82988,1.13710
132.58881,1.16594
132.34774,1.18543
132.10667,1.19935
131.86559,1.21258
131.62452,1.21776
131.38345,1.20573
131.14238,1.17854
130.90131,1.14404
130.66024,1.10716
130.41917,1.07033
130.17810,1.03505
129.93703,1.00027
129.69596,0.96268
129.45489,0.92035
129.21382,0.87492
128.97275,0.83034
128.73168,0.78953
128.49061,0.75267
128.24954,0.71867
128.00847,0.68733
127.76740,0.65898
127.52632,0.63332
127.28525,0.61002
127.04418,0.58948
126.80311,0.57187
126.56204,0.55603
126.32097,0.54027
126.07990,0.52387
125.83883,0.50756
125.59776,0.49259
125.35669,0.48005
125.11562,0.47052
124.87455,0.46316
124.63348,0.45546
124.39241,0.44568
124.15134,0.43514
123.91027,0.42666
123.66920,0.42126
123.42812,0.41774
123.18705,0.41472
122.94598,0.41181
122.70491,0.40953
122.46384,0.40893
122.22277,0.41079
121.98170,0.41478
121.74063,0.41934
121.49956,0.42305
121.25849,0.42654
121.01742,0.43232
120.77635,0.44182
120.53528,0.45365
120.29421,0.46545
120.05314,0.47656
119.81207,0.48791
119.57100,0.50118
119.32993,0.51861
119.08885,0.54205
118.84778,0.57171
118.60671,0.60674
118.36564,0.64581
118.12457,0.68655
117.88350,0.72584
117.64243,0.76138
117.40136,0.79113
117.16029,0.81185
116.91922,0.82025
116.67815,0.81518
116.43708,0.79880
116.19601,0.77693
115.95494,0.75654
115.71387,0.74101
115.47280,0.72947
115.23173,0.72021
114.99066,0.71169
114.74958,0.70175
114.50851,0.68971
114.26744,0.67833
114.02637,0.67022
113.78530,0.66390
113.54423,0.65599
113.30316,0.64604
113.06209,0.63780
112.82102,0.63636
112.57995,0.64489
112.33888,0.66293
112.09781,0.68590
111.85674,0.70570
111.61567,0.71477
111.37460,0.71285
111.13353,0.70766
110.89246,0.70654
110.65139,0.71030
110.41031,0.71649
110.16924,0.72505
109.92817,0.73578
109.68710,0.74057
109.44603,0.72691
109.20496,0.69377
108.96389,0.65295
108.72282,0.61563
108.48175,0.58744
108.24068,0.56918
107.99961,0.55662
107.75854,0.54274
107.51747,0.52281
107.27640,0.49757
107.03533,0.47164
106.79426,0.44977
106.55319,0.43479
106.31212,0.42667
106.07104,0.42170
105.82997,0.41419
105.58890,0.40082
105.34783,0.38386
105.10676,0.36876
104.86569,0.35930
104.62462,0.35548
104.38355,0.35344
104.14248,0.34787
103.90141,0.33687
103.66034,0.32354
103.41927,0.31242
103.17820,0.30632
102.93713,0.30573
102.69606,0.30845
102.45499,0.30922
102.21392,0.30347
101.97285,0.29292
101.73177,0.28427
101.49070,0.28230
101.24963,0.28532
101.00856,0.28647
100.76749,0.28082
100.52642,0.27083
100.28535,0.26296
100.04428,0.26086
99.80321,0.26252
99.56214,0.26248
99.32107,0.25771
99.08000,0.25112
98.83893,0.24765
98.59786,0.24847
98.35679,0.25020
98.11572,0.24861
97.87465,0.24412
97.63358,0.24219
97.39250,0.24675
97.15143,0.25523
96.91036,0.26112
96.66929,0.26184
96.42822,0.26206
96.18715,0.26746
95.94608,0.27803
95.70501,0.28848
95.46394,0.29545
95.22287,0.30218
94.98180,0.31284
94.74073,0.32481
94.49966,0.33077
94.25859,0.33010
94.01752,0.33002
93.77645,0.33332
93.53538,0.33429
93.29431,0.33102
93.05323,0.33117
92.81216,0.33887
92.57109,0.34727
92.33002,0.34878
92.08895,0.34711
91.84788,0.34977
91.60681,0.35634
91.36574,0.36242
91.12467,0.37068
90.88360,0.38811
90.64253,0.41499
90.40146,0.44727
90.16039,0.48625
89.91932,0.53380
89.67825,0.58445
89.43718,0.63329
89.19611,0.67881
88.95504,0.71199
88.71396,0.72624
88.47289,0.72970
88.23182,0.72408
87.99075,0.69913
87.74968,0.65353
87.50861,0.59697
87.26754,0.53810
87.02647,0.48316
86.78540,0.43755
86.54433,0.40271
86.30326,0.37578
86.06219,0.35349
85.82112,0.33383
85.58005,0.31504
85.33898,0.29563
85.09791,0.27584
84.85684,0.25736
84.61577,0.24149
84.37469,0.22872
84.13362,0.21940
83.89255,0.21331
83.65148,0.20903
83.41041,0.20497
83.16934,0.20051
82.92827,0.19594
82.68720,0.19205
82.44613,0.18939
82.20506,0.18760
81.96399,0.18599
81.72292,0.18459
81.48185,0.18365
81.24078,0.18292
80.99971,0.18194
80.75864,0.18055
80.51757,0.17912
80.27650,0.17809
80.03542,0.17711
79.79435,0.17530
79.55328,0.17298
79.31221,0.17138
79.07114,0.17046
78.83007,0.16938
78.58900,0.16877
78.34793,0.17002
78.10686,0.17217
77.86579,0.17210
77.62472,0.16780
77.38365,0.16048
77.14258,0.15343
76.90151,0.14975
76.66044,0.15049
76.41937,0.15412
76.17830,0.15757
75.93723,0.15862
75.69615,0.15720
75.45508,0.15435
75.21401,0.15072
74.97294,0.14689
74.73187,0.14398
74.49080,0.14308
74.24973,0.14443
74.00866,0.14776
73.76759,0.15286
73.52652,0.15848
73.28545,0.16169
73.04438,0.16054
72.80331,0.15695
72.56224,0.15467
72.32117,0.15492
72.08010,0.15550
71.83903,0.15424
71.59796,0.15178
71.35688,0.15037
71.11581,0.15183
70.87474,0.15756
70.63367,0.16831
70.39260,0.18351
70.15153,0.20214
69.91046,0.22413
69.66939,0.24854
69.42832,0.27085
69.18725,0.28413
68.94618,0.28375
68.70511,0.27032
68.46404,0.24830
68.22297,0.22292
67.98190,0.19820
67.74083,0.17687
67.49976,0.16104
67.25869,0.15167
67.01761,0.14758
66.77654,0.14534
66.53547,0.14140
66.29440,0.13587
66.05333,0.13305
65.81226,0.13661
65.57119,0.14548
65.33012,0.15581
65.08905,0.16501
64.84798,0.17308
64.60691,0.18138
64.36584,0.19079
64.12477,0.20045
63.88370,0.20823
63.64263,0.21223
63.40156,0.21066
63.16049,0.20230
62.91942,0.18890
62.67834,0.17429
62.43727,0.16004
62.19620,0.14533
61.95513,0.13033
61.71406,0.11698
61.47299,0.10703
61.23192,0.10158
60.99085,0.10166
60.74978,0.10725
60.50871,0.11639
60.26764,0.12659
60.02657,0.13704
59.78550,0.14837
59.54443,0.15998
59.30336,0.16869
59.06229,0.17017
58.82122,0.16183
58.58015,0.14568
58.33907,0.12797
58.09800,0.11443
57.85693,0.10724
57.61586,0.10676
57.37479,0.11369
57.13372,0.12927
56.89265,0.15377
56.65158,0.18291
56.41051,0.20354
56.16944,0.19979
55.92837,0.17163
55.68730,0.13497
55.44623,0.10574
55.20516,0.09371
54.96409,0.10245
54.72302,0.12982
54.48195,0.16686
54.24088,0.19328
53.99980,0.18683
53.75873,0.15476
53.51766,0.12430
53.27659,0.11136
53.03552,0.11993
52.79445,0.14913
52.55338,0.19049
52.31231,0.21593
52.07124,0.19527
51.83017,0.15132
51.58910,0.12211
51.34803,0.12135
51.10696,0.14808
50.86589,0.18146
50.62482,0.17849
50.38375,0.14013
50.14268,0.11216
49.90161,0.12018
49.66053,0.16425
49.41946,0.21045
49.17839,0.19489
48.93732,0.13658
48.69625,0.10560
48.45518,0.12410
48.21411,0.16389
47.97304,0.16310
47.73197,0.12376
47.49090,0.10934
47.24983,0.13836
47.00876,0.16563
46.76769,0.14000
46.52662,0.10623
46.28555,0.10913
46.04448,0.12688
45.80341,0.11685
45.56234,0.09693
45.32126,0.10386
45.08019,0.12685
44.83912,0.13255
44.59805,0.13001
44.35698,0.13751
44.11591,0.14232
43.87484,0.13705
43.63377,0.13265
43.39270,0.12964
43.15163,0.12527
42.91056,0.13058
42.66949,0.14802
42.42842,0.16183
42.18735,0.16476
41.94628,0.16415
41.70521,0.16319
41.46414,0.16143
41.22307,0.15983
40.98199,0.15733
40.74092,0.15313
40.49985,0.15199
40.25878,0.15881
40.01771,0.16950
39.77664,0.17448
39.53557,0.17227
39.29450,0.17086
39.05343,0.17492
38.81236,0.18477
38.57129,0.20180
38.33022,0.22119
38.08915,0.23033
37.84808,0.22717
37.60701,0.22510
37.36594,0.23088
37.12487,0.23740
36.88380,0.23643
36.64272,0.22887
36.40165,0.22584
36.16058,0.23525
35.91951,0.24752
35.67844,0.24629
35.43737,0.23144
35.19630,0.21389
34.95523,0.19940
34.71416,0.18960
34.47309,0.18605
34.23202,0.18672
33.99095,0.18426
33.74988,0.17618
33.50881,0.17220
33.26774,0.18316
33.02667,0.20871
32.78560,0.23578
32.54453,0.25120
32.30345,0.24968
32.06238,0.23655
31.82131,0.22568
31.58024,0.22192
31.33917,0.21524
31.09810,0.19686
30.85703,0.16988
30.61596,0.14475
30.37489,0.12854
30.13382,0.11799
29.89275,0.10339
29.65168,0.08118
29.41061,0.05973
29.16954,0.05136
28.92847,0.05722
28.68740,0.06133
28.44633,0.04788
28.20526,0.01600
27.96418,-0.02454
27.72311,-0.06055
27.48204,-0.07947
27.24097,-0.07516
26.99990,-0.06086
26.75883,-0.06612
26.51776,-0.10355
26.27669,-0.14494
26.03562,-0.14903
25.79455,-0.11923
25.55348,-0.09550
25.31241,-0.09383
25.07134,-0.10030
24.83027,-0.10617
24.58920,-0.11825
24.34813,-0.13960
24.10706,-0.16178
23.86599,-0.17535
23.62491,-0.18057
23.38384,-0.18686
23.14277,-0.19735
22.90170,-0.19977
22.66063,-0.18169
22.41956,-0.15233
22.17849,-0.14121
21.93742,-0.16556
21.69635,-0.20853
21.45528,-0.24074
21.21421,-0.25003
20.97314,-0.23998
20.73207,-0.22301
20.49100,-0.21762
20.24993,-0.23497
20.00886,-0.26812
19.76779,-0.29865
19.52672,-0.31353
19.28564,-0.31550
19.04457,-0.31118
18.80350,-0.29909
18.56243,-0.28575
18.32136,-0.28889
18.08029,-0.30809
17.83922,-0.31622
17.59815,-0.30146
17.35708,-0.28640
17.11601,-0.29173
16.87494,-0.30984
16.63387,-0.31637
16.39280,-0.30515
16.15173,-0.29766
15.91066,-0.31189
15.66959,-0.34161
15.42852,-0.36569
15.18745,-0.37882
14.94637,-0.38115
14.70530,-0.36571
14.46423,-0.34748
14.22316,-0.34709
13.98209,-0.36085
13.74102,-0.37943
13.49995,-0.39472
13.25888,-0.39643
13.01781,-0.38511
12.77674,-0.37919
12.53567,-0.38474
12.29460,-0.37036
12.05353,-0.33650
11.81246,-0.31693
11.57139,-0.30889
11.33032,-0.30562
11.08925,-0.33904
10.84818,-0.39041
10.60710,-0.42485
10.36603,-0.45054
10.12496,-0.46897
9.88389,-0.48100
9.64282,-0.47466
9.40175,-0.44404
9.16068,-0.40183
8.91961,-0.37552
8.67854,-0.37865
8.43747,-0.40281
8.19640,-0.42810
7.95533,-0.43924
7.71426,-0.43548
7.47319,-0.42238
7.23212,-0.41218
6.99105,-0.40997
6.74998,-0.41572
6.50891,-0.41898
6.26783,-0.40986
6.02676,-0.39545
5.78569,-0.38648
5.54462,-0.38393
5.30355,-0.38037
5.06248,-0.36736
4.82141,-0.35959
4.58034,-0.36961
4.33927,-0.39177
4.09820,-0.40836
3.85713,-0.41044
3.61606,-0.40080
3.37499,-0.37909
3.13392,-0.35177
2.89285,-0.33860
2.65178,-0.34531
2.41071,-0.36178
2.16964,-0.37444
1.92856,-0.36322
1.68749,-0.33637
1.44642,-0.32962
1.20535,-0.33595
0.96428,-0.32682
0.72321,-0.33926
0.48214,-0.40691
0.24107,-0.39627
-0.00000,-0.16640
