399.69498,1.49818
399.45391,1.49267
399.21284,1.50656
398.97177,1.52257
398.73070,1.52123
398.48963,1.50636
398.24856,1.49321
398.00749,1.48837
397.76642,1.49134
397.52535,1.50083
397.28428,1.51205
397.04321,1.51680
396.80214,1.51005
396.56107,1.49449
396.32000,1.47943
396.07892,1.47557
395.83785,1.48879
395.59678,1.51158
395.35571,1.52318
395.11464,1.51200
394.87357,1.49248
394.63250,1.48378
394.39143,1.48618
394.15036,1.49009
393.90929,1.49528
393.66822,1.50508
393.42715,1.51231
393.18608,1.50778
392.94501,1.49585
392.70394,1.48979
392.46287,1.49670
392.22180,1.51127
391.98073,1.52202
391.73965,1.52413
391.49858,1.52360
391.25751,1.52460
391.01644,1.52232
390.77537,1.51289
390.53430,1.50144
390.29323,1.49708
390.05216,1.50271
389.81109,1.51103
389.57002,1.51142
389.32895,1.50210
389.08788,1.49327
388.84681,1.49377
388.60574,1.49924
388.36467,1.49979
388.12360,1.49424
387.88253,1.49046
387.64146,1.49097
387.40038,1.48754
387.15931,1.47318
386.91824,1.45358
386.67717,1.43975
386.43610,1.43116
386.19503,1.41972
385.95396,1.40501
385.71289,1.39564
385.47182,1.39966
385.23075,1.41457
384.98968,1.42744
384.74861,1.42388
384.50754,1.39980
384.26647,1.36818
384.02540,1.34558
383.78433,1.33491
383.54326,1.32684
383.30219,1.31506
383.06111,1.30267
382.82004,1.29308
382.57897,1.28524
382.33790,1.28064
382.09683,1.28381
381.85576,1.29140
381.61469,1.29256
381.37362,1.28438
381.13255,1.27501
380.89148,1.27306
380.65041,1.28131
380.40934,1.29518
380.16827,1.30449
379.92720,1.30237
379.68613,1.29369
379.44506,1.28859
379.20399,1.28873
378.96292,1.28626
378.72184,1.27609
378.48077,1.26336
378.23970,1.25879
377.99863,1.27021
377.75756,1.29529
377.51649,1.32296
377.27542,1.34259
377.03435,1.35128
376.79328,1.35251
376.55221,1.35095
376.31114,1.35204
376.07007,1.36101
375.82900,1.38334
375.58793,1.42099
375.34686,1.46314
375.10579,1.48733
374.86472,1.48102
374.62365,1.45649
374.38257,1.43092
374.14150,1.40830
373.90043,1.38710
373.65936,1.36960
373.41829,1.35992
373.17722,1.36038
372.93615,1.37135
372.69508,1.39008
372.45401,1.40417
372.21294,1.39660
371.97187,1.36705
371.73080,1.33380
371.48973,1.31269
371.24866,1.30692
371.00759,1.30998
370.76652,1.31147
370.52545,1.30529
370.28437,1.29393
370.04330,1.28320
369.80223,1.27643
369.56116,1.27358
369.32009,1.27134
369.07902,1.26505
368.83795,1.25463
368.59688,1.24640
368.35581,1.24569
368.11474,1.25052
367.87367,1.25487
367.63260,1.25698
367.39153,1.25972
367.15046,1.26305
366.90939,1.26301
366.66832,1.25742
366.42725,1.24895
366.18618,1.24197
365.94510,1.23781
365.70403,1.23375
365.46296,1.22750
365.22189,1.22096
364.98082,1.21668
364.73975,1.21418
364.49868,1.21281
364.25761,1.21419
364.01654,1.21789
363.77547,1.21875
363.53440,1.21240
363.29333,1.20124
363.05226,1.19173
362.81119,1.18805
362.57012,1.18903
362.32905,1.18948
362.08798,1.18560
361.84691,1.17907
361.60583,1.17409
361.36476,1.17224
361.12369,1.17266
360.88262,1.17520
360.64155,1.18050
360.40048,1.18781
360.15941,1.19461
359.91834,1.19842
359.67727,1.19852
359.43620,1.19693
359.19513,1.19785
358.95406,1.20266
358.71299,1.20630
358.47192,1.20270
358.23085,1.19317
357.98978,1.18480
357.74871,1.18198
357.50764,1.18313
357.26656,1.18431
357.02549,1.18325
356.78442,1.17964
356.54335,1.17399
356.30228,1.16892
356.06121,1.16848
355.82014,1.17265
355.57907,1.17508
355.33800,1.17143
355.09693,1.16622
354.85586,1.16570
354.61479,1.16938
354.37372,1.17256
354.13265,1.17317
353.89158,1.17266
353.65051,1.17245
353.40944,1.17240
353.16837,1.17244
352.92729,1.17414
352.68622,1.17881
352.44515,1.18462
352.20408,1.18812
351.96301,1.18822
351.72194,1.18630
351.48087,1.18351
351.23980,1.17950
350.99873,1.17356
350.75766,1.16744
350.51659,1.16534
350.27552,1.16838
350.03445,1.17228
349.79338,1.17359
349.55231,1.17497
349.31124,1.17993
349.07017,1.18689
348.82910,1.19250
348.58802,1.19642
348.34695,1.20073
348.10588,1.20672
347.86481,1.21365
347.62374,1.22040
347.38267,1.22674
347.14160,1.23180
346.90053,1.23337
346.65946,1.23090
346.41839,1.22727
346.17732,1.22424
345.93625,1.22092
345.69518,1.21798
345.45411,1.21809
345.21304,1.22216
344.97197,1.22847
344.73090,1.23537
344.48983,1.24259
344.24875,1.24961
344.00768,1.25587
343.76661,1.26368
343.52554,1.27506
343.28447,1.28474
343.04340,1.28442
342.80233,1.27659
342.56126,1.27330
342.32019,1.27971
342.07912,1.28838
341.83805,1.29154
341.59698,1.29257
341.35591,1.30046
341.11484,1.31536
340.87377,1.32527
340.63270,1.32187
340.39163,1.31323
340.15056,1.31328
339.90948,1.32757
339.66841,1.34986
339.42734,1.36597
339.18627,1.36504
338.94520,1.35215
338.70413,1.34382
338.46306,1.35027
338.22199,1.36919
337.98092,1.38968
337.73985,1.39941
337.49878,1.39614
337.25771,1.39059
337.01664,1.39396
336.77557,1.40503
336.53450,1.41087
336.29343,1.40157
336.05236,1.38277
335.81129,1.36802
335.57021,1.36490
335.32914,1.37098
335.08807,1.37772
334.84700,1.37907
334.60593,1.37413
334.36486,1.36664
334.12379,1.36454
333.88272,1.36952
333.64165,1.37264
333.40058,1.36623
333.15951,1.35348
332.91844,1.34232
332.67737,1.33501
332.43630,1.32873
332.19523,1.32289
331.95416,1.31986
331.71309,1.31902
331.47202,1.31687
331.23094,1.31292
330.98987,1.30848
330.74880,1.30228
330.50773,1.29232
330.26666,1.27999
330.02559,1.26909
329.78452,1.26211
329.54345,1.26045
329.30238,1.26428
329.06131,1.26954
328.82024,1.26989
328.57917,1.26618
328.33810,1.26677
328.09703,1.27399
327.85596,1.27886
327.61489,1.27396
327.37382,1.26413
327.13275,1.25880
326.89167,1.26149
326.65060,1.26992
326.40953,1.27950
326.16846,1.28495
325.92739,1.28329
325.68632,1.27784
325.44525,1.27534
325.20418,1.27679
324.96311,1.27752
324.72204,1.27778
324.48097,1.28382
324.23990,1.29823
323.99883,1.31551
323.75776,1.32539
323.51669,1.32077
323.27562,1.30558
323.03455,1.29315
322.79348,1.29509
322.55240,1.31046
322.31133,1.32418
322.07026,1.32294
321.82919,1.30950
321.58812,1.29450
321.34705,1.28443
321.10598,1.27965
320.86491,1.27938
320.62384,1.28517
320.38277,1.29982
320.14170,1.32272
319.90063,1.34449
319.65956,1.35389
319.41849,1.34900
319.17742,1.33354
318.93635,1.31266
318.69528,1.29499
318.45421,1.28787
318.21313,1.29081
317.97206,1.29785
317.73099,1.30276
317.48992,1.30010
317.24885,1.28877
317.00778,1.27564
316.76671,1.27047
316.52564,1.27752
316.28457,1.29224
316.04350,1.30452
315.80243,1.30778
315.56136,1.30610
315.32029,1.30740
315.07922,1.31435
314.83815,1.32577
314.59708,1.34063
314.35601,1.35511
314.11494,1.36058
313.87386,1.35294
313.63279,1.34287
313.39172,1.34341
313.15065,1.35303
312.90958,1.36258
312.66851,1.37004
312.42744,1.37789
312.18637,1.37819
311.94530,1.36013
311.70423,1.33150
311.46316,1.31395
311.22209,1.32189
310.98102,1.34921
310.73995,1.37118
310.49888,1.36532
310.25781,1.33939
310.01674,1.32211
309.77567,1.32846
309.53459,1.35047
309.29352,1.37124
309.05245,1.37978
308.81138,1.37630
308.57031,1.37090
308.32924,1.37084
308.08817,1.37242
307.84710,1.37273
307.60603,1.37952
307.36496,1.39763
307.12389,1.41438
306.88282,1.41392
306.64175,1.40267
306.40068,1.40200
306.15961,1.41800
305.91854,1.43575
305.67747,1.43984
305.43640,1.42865
305.19532,1.41026
304.95425,1.39531
304.71318,1.39088
304.47211,1.39333
304.23104,1.39181
303.98997,1.38210
303.74890,1.37010
303.50783,1.36131
303.26676,1.35408
303.02569,1.34260
302.78462,1.32421
302.54355,1.30297
302.30248,1.28524
302.06141,1.27446
301.82034,1.27081
301.57927,1.27390
301.33820,1.28334
301.09713,1.29644
300.85605,1.30551
300.61498,1.30274
300.37391,1.29022
300.13284,1.27792
299.89177,1.27183
299.65070,1.26818
299.40963,1.25921
299.16856,1.24381
298.92749,1.23012
298.68642,1.22578
298.44535,1.22868
298.20428,1.23011
297.96321,1.22534
297.72214,1.21828
297.48107,1.21514
297.24000,1.21618
296.99893,1.21497
296.75786,1.20649
296.51678,1.19434
296.27571,1.18598
296.03464,1.18273
295.79357,1.17923
295.55250,1.17233
295.31143,1.16553
295.07036,1.16283
294.82929,1.16309
294.58822,1.16251
294.34715,1.15931
294.10608,1.15461
293.86501,1.15130
293.62394,1.15064
293.38287,1.14930
293.14180,1.14360
292.90073,1.13582
292.65966,1.13038
292.41859,1.12627
292.17751,1.12105
291.93644,1.11784
291.69537,1.12004
291.45430,1.12365
291.21323,1.12233
290.97216,1.11688
290.73109,1.11322
290.49002,1.11288
290.24895,1.11182
290.00788,1.10836
289.76681,1.10583
289.52574,1.10656
289.28467,1.10880
289.04360,1.11031
288.80253,1.11027
288.56146,1.10768
288.32039,1.10198
288.07932,1.09558
287.83824,1.09289
287.59717,1.09565
287.35610,1.10042
287.11503,1.10208
286.87396,1.09990
286.63289,1.09728
286.39182,1.09589
286.15075,1.09417
285.90968,1.09110
285.66861,1.08788
285.42754,1.08540
285.18647,1.08306
284.94540,1.08047
284.70433,1.07826
284.46326,1.07716
284.22219,1.07758
283.98112,1.07947
283.74005,1.08204
283.49897,1.08398
283.25790,1.08482
283.01683,1.08523
282.77576,1.08525
282.53469,1.08414
282.29362,1.08213
282.05255,1.08052
281.81148,1.07969
281.57041,1.07889
281.32934,1.07780
281.08827,1.07679
280.84720,1.07626
280.60613,1.07592
280.36506,1.07556
280.12399,1.07612
279.88292,1.07846
279.64185,1.08188
279.40078,1.08528
279.15970,1.08769
278.91863,1.08744
278.67756,1.08428
278.43649,1.08127
278.19542,1.08118
277.95435,1.08255
277.71328,1.08263
277.47221,1.08146
277.23114,1.08051
276.99007,1.08041
276.74900,1.08154
276.50793,1.08424
276.26686,1.08765
276.02579,1.09064
275.78472,1.09367
275.54365,1.09720
275.30258,1.09945
275.06151,1.09890
274.82043,1.09790
274.57936,1.09995
274.33829,1.10423
274.09722,1.10613
273.85615,1.10387
273.61508,1.10165
273.37401,1.10377
273.13294,1.10860
272.89187,1.11142
272.65080,1.11162
272.40973,1.11281
272.16866,1.11679
271.92759,1.12106
271.68652,1.12333
271.44545,1.12557
271.20438,1.13127
270.96331,1.14020
270.72224,1.14781
270.48116,1.15031
270.24009,1.14906
269.99902,1.14873
269.75795,1.15240
269.51688,1.15950
269.27581,1.16738
269.03474,1.17318
268.79367,1.17582
268.55260,1.17787
268.31153,1.18313
268.07046,1.19011
267.82939,1.19248
267.58832,1.18896
267.34725,1.18700
267.10618,1.19305
266.86511,1.20504
266.62404,1.21679
266.38297,1.22587
266.14189,1.23395
265.90082,1.24284
265.65975,1.25300
265.41868,1.26440
265.17761,1.27595
264.93654,1.28504
264.69547,1.29084
264.45440,1.29759
264.21333,1.30999
263.97226,1.32644
263.73119,1.34183
263.49012,1.35530
263.24905,1.36948
263.00798,1.38506
262.76691,1.40139
262.52584,1.41881
262.28477,1.43593
262.04370,1.45021
261.80262,1.46328
261.56155,1.47849
261.32048,1.49405
261.07941,1.50692
260.83834,1.52137
260.59727,1.54365
260.35620,1.57056
260.11513,1.59475
259.87406,1.61927
259.63299,1.65484
259.39192,1.70113
259.15085,1.73822
258.90978,1.74715
258.66871,1.73968
258.42764,1.74471
258.18657,1.77661
257.94550,1.82423
257.70443,1.85767
257.46335,1.85599
257.22228,1.83160
256.98121,1.80873
256.74014,1.79276
256.49907,1.77592
256.25800,1.75646
256.01693,1.74093
255.77586,1.73140
255.53479,1.72412
255.29372,1.71819
255.05265,1.71264
254.81158,1.70178
254.57051,1.67934
254.32944,1.65097
254.08837,1.63430
253.84730,1.64023
253.60623,1.65615
253.36516,1.65481
253.12408,1.63024
252.88301,1.60448
252.64194,1.59474
252.40087,1.59673
252.15980,1.59694
251.91873,1.58922
251.67766,1.57777
251.43659,1.57107
251.19552,1.57419
250.95445,1.58280
250.71338,1.58572
250.47231,1.57551
250.23124,1.55568
249.99017,1.53819
249.74910,1.52952
249.50803,1.52543
249.26696,1.52216
249.02589,1.52335
248.78481,1.53328
248.54374,1.54793
248.30267,1.55687
248.06160,1.55504
247.82053,1.54976
247.57946,1.55158
247.33839,1.55943
247.09732,1.56456
246.85625,1.56460
246.61518,1.56582
246.37411,1.57349
246.13304,1.58361
245.89197,1.58854
245.65090,1.59027
245.40983,1.59922
245.16876,1.61879
244.92769,1.64086
244.68661,1.65930
244.44554,1.68102
244.20447,1.71610
243.96340,1.76089
243.72233,1.80080
243.48126,1.83217
243.24019,1.86757
242.99912,1.91133
242.75805,1.95017
242.51698,1.97704
242.27591,1.96768
242.03484,1.81072
241.79377,1.67076
241.55270,1.57847
241.31163,1.50989
241.07056,1.44632
240.82949,1.38161
240.58842,1.32040
240.34734,1.26905
240.10627,1.22998
239.86520,1.19905
239.62413,1.16707
239.38306,1.12838
239.14199,1.08719
238.90092,1.05200
238.65985,1.02616
238.41878,1.00581
238.17771,0.98559
237.93664,0.96521
237.69557,0.94847
237.45450,0.93610
237.21343,0.92372
236.97236,0.90800
236.73129,0.89071
236.49022,0.87544
236.24915,0.86398
236.00807,0.85592
235.76700,0.84971
235.52593,0.84384
235.28486,0.83780
235.04379,0.83216
234.80272,0.82736
234.56165,0.82248
234.32058,0.81604
234.07951,0.80888
233.83844,0.80415
233.59737,0.80311
233.35630,0.80292
233.11523,0.80021
232.87416,0.79503
232.63309,0.79019
232.39202,0.78833
232.15095,0.78966
231.90988,0.79145
231.66880,0.79068
231.42773,0.78744
231.18666,0.78440
230.94559,0.78342
230.70452,0.78409
230.46345,0.78485
230.22238,0.78394
229.98131,0.78041
229.74024,0.77554
229.49917,0.77223
229.25810,0.77189
229.01703,0.77318
228.77596,0.77417
228.53489,0.77426
228.29382,0.77362
228.05275,0.77233
227.81168,0.77040
227.57061,0.76797
227.32953,0.76603
227.08846,0.76674
226.84739,0.77113
226.60632,0.77669
226.36525,0.77962
226.12418,0.77894
225.88311,0.77623
225.64204,0.77299
225.40097,0.77043
225.15990,0.77080
224.91883,0.77610
224.67776,0.78523
224.43669,0.79377
224.19562,0.79799
223.95455,0.79807
223.71348,0.79667
223.47241,0.79676
223.23134,0.80078
222.99026,0.80869
222.74919,0.81666
222.50812,0.82087
222.26705,0.82260
222.02598,0.82643
221.78491,0.83425
221.54384,0.84395
221.30277,0.85306
221.06170,0.86129
220.82063,0.86910
220.57956,0.87605
220.33849,0.88239
220.09742,0.89094
219.85635,0.90432
219.61528,0.92089
219.37421,0.93640
219.13314,0.94958
218.89207,0.96274
218.65099,0.97679
218.40992,0.98969
218.16885,1.00084
217.92778,1.01301
217.68671,1.02796
217.44564,1.04376
217.20457,1.05854
216.96350,1.07380
216.72243,1.09172
216.48136,1.11184
216.24029,1.13143
215.99922,1.14770
215.75815,1.15979
215.51708,1.17053
215.27601,1.18542
215.03494,1.20717
214.79387,1.23112
214.55280,1.24913
214.31172,1.26029
214.07065,1.27149
213.82958,1.28676
213.58851,1.30439
213.34744,1.32252
213.10637,1.33985
212.86530,1.35093
212.62423,1.35084
212.38316,1.34522
212.14209,1.34523
211.90102,1.35544
211.65995,1.37206
211.41888,1.38743
211.17781,1.39436
210.93674,1.39142
210.69567,1.38526
210.45460,1.38457
210.21353,1.39251
209.97245,1.40414
209.73138,1.41019
209.49031,1.40666
209.24924,1.39901
209.00817,1.39656
208.76710,1.40351
208.52603,1.41208
208.28496,1.40719
208.04389,1.38565
207.80282,1.36114
207.56175,1.34631
207.32068,1.34012
207.07961,1.33229
206.83854,1.31937
206.59747,1.30519
206.35640,1.28928
206.11533,1.27014
205.87426,1.25019
205.63318,1.23347
205.39211,1.22296
205.15104,1.21760
204.90997,1.21250
204.66890,1.20195
204.42783,1.18292
204.18676,1.15829
203.94569,1.13406
203.70462,1.11391
203.46355,1.09780
203.22248,1.08271
202.98141,1.06527
202.74034,1.04420
202.49927,1.02057
202.25820,0.99741
202.01713,0.97716
201.77606,0.95949
201.53499,0.94297
201.29391,0.92793
201.05284,0.91525
200.81177,0.90327
200.57070,0.88916
200.32963,0.87293
200.08856,0.85735
199.84749,0.84431
199.60642,0.83319
199.36535,0.82226
199.12428,0.81071
198.88321,0.79880
198.64214,0.78638
198.40107,0.77276
198.16000,0.75873
197.91893,0.74659
197.67786,0.73678
197.43679,0.72674
197.19572,0.71481
196.95464,0.70327
196.71357,0.69530
196.47250,0.69008
196.23143,0.68344
195.99036,0.67346
195.74929,0.66305
195.50822,0.65557
195.26715,0.65062
195.02608,0.64586
194.78501,0.64070
194.54394,0.63592
194.30287,0.63133
194.06180,0.62593
193.82073,0.61968
193.57966,0.61369
193.33859,0.60876
193.09752,0.60431
192.85645,0.59946
192.61537,0.59460
192.37430,0.59076
192.13323,0.58769
191.89216,0.58392
191.65109,0.57913
191.41002,0.57452
191.16895,0.57066
190.92788,0.56684
190.68681,0.56290
190.44574,0.55989
190.20467,0.55778
189.96360,0.55493
189.72253,0.55106
189.48146,0.54831
189.24039,0.54802
188.99932,0.54864
188.75825,0.54838
188.51718,0.54735
188.27610,0.54583
188.03503,0.54299
187.79396,0.53905
187.55289,0.53615
187.31182,0.53543
187.07075,0.53554
186.82968,0.53508
186.58861,0.53459
186.34754,0.53503
186.10647,0.53633
185.86540,0.53832
185.62433,0.54098
185.38326,0.54332
185.14219,0.54401
184.90112,0.54369
184.66005,0.54439
184.41898,0.54654
184.17791,0.54870
183.93683,0.54987
183.69576,0.55028
183.45469,0.55071
183.21362,0.55206
182.97255,0.55457
182.73148,0.55725
182.49041,0.55910
182.24934,0.56029
182.00827,0.56141
181.76720,0.56274
181.52613,0.56450
181.28506,0.56662
181.04399,0.56874
180.80292,0.57101
180.56185,0.57364
180.32078,0.57602
180.07971,0.57769
179.83864,0.57953
179.59756,0.58277
179.35649,0.58806
179.11542,0.59586
178.87435,0.60636
178.63328,0.61848
178.39221,0.63011
178.15114,0.63980
177.91007,0.64775
177.66900,0.65525
177.42793,0.66373
177.18686,0.67446
176.94579,0.68862
176.70472,0.70696
176.46365,0.72927
176.22258,0.75376
175.98151,0.77720
175.74044,0.79742
175.49937,0.81585
175.25829,0.83569
175.01722,0.85859
174.77615,0.88429
174.53508,0.91172
174.29401,0.93900
174.05294,0.96444
173.81187,0.98813
173.57080,1.00995
173.32973,1.02738
173.08866,1.03916
172.84759,1.04827
172.60652,1.05780
172.36545,1.06742
172.12438,1.07600
171.88331,1.08415
171.64224,1.09121
171.40117,1.09310
171.16010,1.08717
170.91902,1.07663
170.67795,1.06649
170.43688,1.05836
170.19581,1.05211
169.95474,1.04814
169.71367,1.04506
169.47260,1.03944
169.23153,1.02993
168.99046,1.01882
168.74939,1.00897
168.50832,1.00182
168.26725,0.99820
168.02618,0.99828
167.78511,1.00035
167.54404,1.00077
167.30297,0.99629
167.06190,0.98745
166.82083,0.97917
166.57975,0.97695
166.33868,0.98241
166.09761,0.99207
165.85654,0.99972
165.61547,1.00198
165.37440,1.00344
165.13333,1.01347
164.89226,1.03602
164.65119,1.06399
164.41012,1.08597
164.16905,1.09865
163.92798,1.10886
163.68691,1.12356
163.44584,1.14339
163.20477,1.16518
162.96370,1.18567
162.72263,1.20248
162.48156,1.21454
162.24048,1.22264
161.99941,1.22836
161.75834,1.23269
161.51727,1.23621
161.27620,1.23891
161.03513,1.23912
160.79406,1.23525
160.55299,1.22854
160.31192,1.22280
160.07085,1.22050
159.82978,1.22031
159.58871,1.21779
159.34764,1.20722
159.10657,1.18717
158.86550,1.16619
158.62443,1.15694
158.38336,1.16259
158.14229,1.17139
157.90121,1.16818
157.66014,1.15242
157.41907,1.13614
157.17800,1.12713
156.93693,1.12395
156.69586,1.12134
156.45479,1.11498
156.21372,1.10375
155.97265,1.09008
155.73158,1.07792
155.49051,1.06869
155.24944,1.05953
155.00837,1.04775
154.76730,1.03517
154.52623,1.02435
154.28516,1.01302
154.04409,0.99644
153.80302,0.97448
153.56194,0.95241
153.32087,0.93355
153.07980,0.91556
152.83873,0.89431
152.59766,0.86824
152.35659,0.83919
152.11552,0.81158
151.87445,0.78941
151.63338,0.77197
151.39231,0.75447
151.15124,0.73484
150.91017,0.71637
150.66910,0.70127
150.42803,0.68670
150.18696,0.66951
149.94589,0.65111
149.70482,0.63512
149.46375,0.62292
149.22267,0.61288
148.98160,0.60291
148.74053,0.59296
148.49946,0.58432
148.25839,0.57728
148.01732,0.57113
147.77625,0.56549
147.53518,0.56073
147.29411,0.55719
147.05304,0.55496
146.81197,0.55416
146.57090,0.55509
146.32983,0.55802
146.08876,0.56295
145.84769,0.56922
145.60662,0.57563
145.36555,0.58142
145.12448,0.58694
144.88340,0.59304
144.64233,0.60001
144.40126,0.60738
144.16019,0.61411
143.91912,0.61879
143.67805,0.62012
143.43698,0.61762
143.19591,0.61183
142.95484,0.60395
142.71377,0.59513
142.47270,0.58597
142.23163,0.57655
141.99056,0.56659
141.74949,0.55602
141.50842,0.54571
141.26735,0.53716
141.02628,0.53078
140.78521,0.52547
140.54413,0.52036
140.30306,0.51627
140.06199,0.51460
139.82092,0.51596
139.57985,0.52043
139.33878,0.52769
139.09771,0.53626
138.85664,0.54423
138.61557,0.55139
138.37450,0.55940
138.13343,0.56955
137.89236,0.58182
137.65129,0.59611
137.41022,0.61282
137.16915,0.63228
136.92808,0.65433
136.68701,0.67850
136.44594,0.70469
136.20486,0.73334
135.96379,0.76406
135.72272,0.79496
135.48165,0.82518
135.24058,0.85677
134.99951,0.89127
134.75844,0.92699
134.51737,0.96218
134.27630,0.99788
134.03523,1.03547
133.79416,1.07465
133.55309,1.11538
133.31202,1.15786
133.07095,1.19905
132.82988,1.23240
132.58881,1.25253
132.34774,1.25956
132.10667,1.25950
131.86559,1.26028
131.62452,1.26322
131.38345,1.25941
131.14238,1.24101
130.90131,1.21164
130.66024,1.17901
130.41917,1.14388
130.17810,1.10242
129.93703,1.05479
129.69596,1.00527
129.45489,0.95730
129.21382,0.91247
128.97275,0.87152
128.73168,0.83366
128.49061,0.79644
128.24954,0.75794
128.00847,0.71932
127.76740,0.68423
127.52632,0.65510
127.28525,0.63097
127.04418,0.60931
126.80311,0.58870
126.56204,0.56922
126.32097,0.55122
126.07990,0.53465
125.83883,0.51894
125.59776,0.50352
125.35669,0.48889
125.11562,0.47667
124.87455,0.46754
124.63348,0.46005
124.39241,0.45200
124.15134,0.44284
123.91027,0.43367
123.66920,0.42586
123.42812,0.42039
123.18705,0.41764
122.94598,0.41666
122.70491,0.41580
122.46384,0.41459
122.22277,0.41437
121.98170,0.41641
121.74063,0.42035
121.49956,0.42515
121.25849,0.43081
121.01742,0.43789
120.77635,0.44626
120.53528,0.45531
120.29421,0.46536
120.05314,0.47778
119.81207,0.49383
119.57100,0.51396
119.32993,0.53805
119.08885,0.56574
118.84778,0.59654
118.60671,0.62988
118.36564,0.66533
118.12457,0.70258
117.88350,0.74012
117.64243,0.77359
117.40136,0.79751
117.16029,0.81077
116.91922,0.81826
116.67815,0.82456
116.43708,0.82899
116.19601,0.82810
115.95494,0.81967
115.71387,0.80330
115.47280,0.77999
115.23173,0.75248
114.99066,0.72471
114.74958,0.70086
114.50851,0.68435
114.26744,0.67628
114.02637,0.67415
113.78530,0.67333
113.54423,0.67068
113.30316,0.66710
113.06209,0.66610
112.82102,0.67062
112.57995,0.68174
112.33888,0.69864
112.09781,0.71804
111.85674,0.73413
111.61567,0.74227
111.37460,0.74415
111.13353,0.74648
110.89246,0.75413
110.65139,0.76518
110.41031,0.77213
110.16924,0.76825
109.92817,0.75331
109.68710,0.73260
109.44603,0.71105
109.20496,0.68999
108.96389,0.66827
108.72282,0.64439
108.48175,0.61806
108.24068,0.59029
107.99961,0.56264
107.75854,0.53724
107.51747,0.51625
107.27640,0.49972
107.03533,0.48489
106.79426,0.46901
106.55319,0.45198
106.31212,0.43585
106.07104,0.42264
105.82997,0.41235
105.58890,0.40223
105.34783,0.38934
105.10676,0.37454
104.86569,0.36207
104.62462,0.35455
104.38355,0.34974
104.14248,0.34261
103.90141,0.33104
103.66034,0.31824
103.41927,0.30867
103.17820,0.30353
102.93713,0.30057
102.69606,0.29680
102.45499,0.29115
102.21392,0.28523
101.97285,0.28122
101.73177,0.27890
101.49070,0.27548
101.24963,0.26911
101.00856,0.26216
100.76749,0.25869
100.52642,0.25894
100.28535,0.25874
100.04428,0.25491
99.80321,0.24953
99.56214,0.24675
99.32107,0.24698
99.08000,0.24666
98.83893,0.24355
98.59786,0.23994
98.35679,0.23886
98.11572,0.23969
97.87465,0.23970
97.63358,0.23884
97.39250,0.24019
97.15143,0.24509
96.91036,0.25087
96.66929,0.25473
96.42822,0.25810
96.18715,0.26421
95.94608,0.27320
95.70501,0.28249
95.46394,0.29119
95.22287,0.30056
94.98180,0.30995
94.74073,0.31645
94.49966,0.31947
94.25859,0.32162
94.01752,0.32359
93.77645,0.32327
93.53538,0.32125
93.29431,0.32148
93.05323,0.32490
92.81216,0.32857
92.57109,0.33110
92.33002,0.33326
92.08895,0.33485
91.84788,0.33677
91.60681,0.34227
91.36574,0.35238
91.12467,0.36555
90.88360,0.38321
90.64253,0.40912
90.40146,0.44403
90.16039,0.48648
89.91932,0.53643
89.67825,0.59297
89.43718,0.65171
89.19611,0.70623
88.95504,0.74924
88.71396,0.77408
88.47289,0.77734
88.23182,0.75647
87.99075,0.71143
87.74968,0.65120
87.50861,0.58885
87.26754,0.53163
87.02647,0.48116
86.78540,0.43794
86.54433,0.40236
86.30326,0.37345
86.06219,0.34859
85.82112,0.32529
85.58005,0.30318
85.33898,0.28311
85.09791,0.26522
84.85684,0.24912
84.61577,0.23495
84.37469,0.22302
84.13362,0.21306
83.89255,0.20445
83.65148,0.19690
83.41041,0.19076
83.16934,0.18631
82.92827,0.18309
82.68720,0.18025
82.44613,0.17727
82.20506,0.17393
81.96399,0.17056
81.72292,0.16819
81.48185,0.16719
81.24078,0.16669
80.99971,0.16596
80.75864,0.16527
80.51757,0.16486
80.27650,0.16431
80.03542,0.16306
79.79435,0.16084
79.55328,0.15800
79.31221,0.15539
79.07114,0.15371
78.83007,0.15335
78.58900,0.15435
78.34793,0.15544
78.10686,0.15436
77.86579,0.15013
77.62472,0.14418
77.38365,0.13877
77.14258,0.13546
76.90151,0.13476
76.66044,0.13576
76.41937,0.13670
76.17830,0.13636
75.93723,0.13482
75.69615,0.13289
75.45508,0.13132
75.21401,0.13020
74.97294,0.12912
74.73187,0.12838
74.49080,0.12939
74.24973,0.13290
74.00866,0.13761
73.76759,0.14140
73.52652,0.14324
73.28545,0.14328
73.04438,0.14209
72.80331,0.14054
72.56224,0.13941
72.32117,0.13876
72.08010,0.13833
71.83903,0.13817
71.59796,0.13877
71.35688,0.14069
71.11581,0.14429
70.87474,0.14951
70.63367,0.15615
70.39260,0.16499
70.15153,0.17781
69.91046,0.19546
69.66939,0.21619
69.42832,0.23575
69.18725,0.24889
68.94618,0.25180
68.70511,0.24427
68.46404,0.22927
68.22297,0.21062
67.98190,0.19160
67.74083,0.17472
67.49976,0.16122
67.25869,0.15080
67.01761,0.14225
66.77654,0.13450
66.53547,0.12743
66.29440,0.12192
66.05333,0.11908
65.81226,0.11893
65.57119,0.12039
65.33012,0.12303
65.08905,0.12810
64.84798,0.13708
64.60691,0.14944
64.36584,0.16224
64.12477,0.17224
63.88370,0.17807
63.64263,0.17995
63.40156,0.17829
63.16049,0.17336
62.91942,0.16609
62.67834,0.15786
62.43727,0.14955
62.19620,0.14125
61.95513,0.13249
61.71406,0.12286
61.47299,0.11285
61.23192,0.10413
60.99085,0.09876
60.74978,0.09851
60.50871,0.10460
60.26764,0.11670
60.02657,0.13171
59.78550,0.14463
59.54443,0.15121
59.30336,0.14974
59.06229,0.14125
58.82122,0.12863
58.58015,0.11559
58.33907,0.10589
58.09800,0.10307
57.85693,0.10986
57.61586,0.12547
57.37479,0.14214
57.13372,0.14780
56.89265,0.13785
56.65158,0.12089
56.41051,0.10882
56.16944,0.10786
55.92837,0.11745
55.68730,0.13156
55.44623,0.14103
55.20516,0.13904
54.96409,0.12760
54.72302,0.11592
54.48195,0.11290
54.24088,0.12216
53.99980,0.13853
53.75873,0.14757
53.51766,0.13890
53.27659,0.12156
53.03552,0.11264
52.79445,0.12079
52.55338,0.14216
52.31231,0.15989
52.07124,0.15614
51.83017,0.13697
51.58910,0.12436
51.34803,0.12978
51.10696,0.14387
50.86589,0.14419
50.62482,0.12693
50.38375,0.11387
50.14268,0.12144
49.90161,0.14253
49.66053,0.15045
49.41946,0.13510
49.17839,0.11998
48.93732,0.12233
48.69625,0.13216
48.45518,0.13016
48.21411,0.12162
47.97304,0.12445
47.73197,0.13572
47.49090,0.13408
47.24983,0.12091
47.00876,0.11868
46.76769,0.12592
46.52662,0.12262
46.28555,0.11164
46.04448,0.11093
45.80341,0.11766
45.56234,0.11994
45.32126,0.12228
45.08019,0.13003
44.83912,0.13609
44.59805,0.13899
44.35698,0.14532
44.11591,0.15210
43.87484,0.15234
43.63377,0.14912
43.39270,0.14857
43.15163,0.15182
42.91056,0.15663
42.66949,0.15902
42.42842,0.15747
42.18735,0.15545
41.94628,0.15426
41.70521,0.14972
41.46414,0.14066
41.22307,0.13300
40.98199,0.13335
40.74092,0.14235
40.49985,0.15480
40.25878,0.16607
40.01771,0.17521
39.77664,0.18105
39.53557,0.18249
39.29450,0.18286
39.05343,0.18570
38.81236,0.19106
38.57129,0.20121
38.33022,0.21832
38.08915,0.23355
37.84808,0.23207
37.60701,0.21394
37.36594,0.19674
37.12487,0.19418
36.88380,0.20425
36.64272,0.21814
36.40165,0.23113
36.16058,0.23843
35.91951,0.23055
35.67844,0.20792
35.43737,0.18820
35.19630,0.18540
34.95523,0.19420
34.71416,0.20353
34.47309,0.21078
34.23202,0.21429
33.99095,0.20736
33.74988,0.18875
33.50881,0.17057
33.26774,0.16852
33.02667,0.18668
32.78560,0.21849
32.54453,0.25489
32.30345,0.28287
32.06238,0.29041
31.82131,0.27343
31.58024,0.23784
31.33917,0.19762
31.09810,0.16815
30.85703,0.15834
30.61596,0.16260
30.37489,0.16240
30.13382,0.14427
29.89275,0.11349
29.65168,0.08662
29.41061,0.07287
29.16954,0.06546
28.92847,0.05254
28.68740,0.03521
28.44633,0.02801
28.20526,0.03509
27.96418,0.04682
27.72311,0.05343
27.48204,0.05295
27.24097,0.05143
26.99990,0.05609
26.75883,0.06558
26.51776,0.06773
26.27669,0.05187
26.03562,0.02490
25.79455,0.00472
25.55348,-0.00243
25.31241,-0.00299
25.07134,-0.00437
24.83027,-0.01215
24.58920,-0.02990
24.34813,-0.05403
24.10706,-0.07241
23.86599,-0.07764
23.62491,-0.07627
23.38384,-0.07896
23.14277,-0.09131
22.90170,-0.11073
22.66063,-0.12557
22.41956,-0.11955
22.17849,-0.09231
21.93742,-0.06850
21.69635,-0.06592
21.45528,-0.07795
21.21421,-0.09078
20.97314,-0.10201
20.73207,-0.11736
20.49100,-0.13621
20.24993,-0.14965
20.00886,-0.15200
19.76779,-0.14964
19.52672,-0.15501
19.28564,-0.17080
19.04457,-0.18947
18.80350,-0.19729
18.56243,-0.18618
18.32136,-0.17293
18.08029,-0.18251
17.83922,-0.21069
17.59815,-0.22892
17.35708,-0.23198
17.11601,-0.24323
16.87494,-0.26954
16.63387,-0.28635
16.39280,-0.27557
16.15173,-0.25584
15.91066,-0.24122
15.66959,-0.22527
15.42852,-0.21147
15.18745,-0.21172
14.94637,-0.23010
14.70530,-0.26142
14.46423,-0.29709
14.22316,-0.31849
13.98209,-0.31933
13.74102,-0.33191
13.49995,-0.33211
13.25888,-0.27629
13.01781,-0.19666
12.77674,-0.13452
12.53567,-0.09407
12.29460,-0.07479
12.05353,-0.09408
11.81246,-0.16501
11.57139,-0.25653
11.33032,-0.31051
11.08925,-0.28563
10.84818,-0.18343
10.60710,-0.06750
10.36603,-0.00770
10.12496,-0.02784
9.88389,-0.09311
9.64282,-0.17008
9.40175,-0.23688
9.16068,-0.26013
8.91961,-0.25003
8.67854,-0.17816
8.43747,-0.09044
8.19640,-0.07199
7.95533,-0.14696
7.71426,-0.20355
7.47319,-0.18721
7.23212,-0.16052
6.99105,-0.14049
6.74998,-0.12940
6.50891,-0.09163
6.26783,-0.05548
6.02676,-0.05978
5.78569,-0.10526
5.54462,-0.14023
5.30355,-0.14290
5.06248,-0.16200
4.82141,-0.21850
4.58034,-0.27727
4.33927,-0.30321
4.09820,-0.31852
3.85713,-0.33799
3.61606,-0.33101
3.37499,-0.29073
3.13392,-0.26327
2.89285,-0.27357
2.65178,-0.30208
2.41071,-0.32306
2.16964,-0.33604
1.92856,-0.34446
1.68749,-0.32566
1.44642,-0.28530
1.20535,-0.26946
0.96428,-0.27423
0.72321,-0.31290
0.48214,-0.41401
0.24107,-0.45223
-0.00000,-0.42826
