399.69498,1.46008
399.45391,1.45741
399.21284,1.45867
398.97177,1.46233
398.73070,1.46812
398.48963,1.47833
398.24856,1.49133
398.00749,1.50236
397.76642,1.51064
397.52535,1.52037
397.28428,1.53312
397.04321,1.54422
396.80214,1.54906
396.56107,1.54576
396.32000,1.53085
396.07892,1.50364
395.83785,1.47418
395.59678,1.45772
395.35571,1.45705
395.11464,1.45945
394.87357,1.45620
394.63250,1.45496
394.39143,1.46371
394.15036,1.47305
393.90929,1.47084
393.66822,1.46299
393.42715,1.46135
393.18608,1.46737
392.94501,1.47834
392.70394,1.49527
392.46287,1.51265
392.22180,1.51485
391.98073,1.49886
391.73965,1.48128
391.49858,1.47669
391.25751,1.48467
391.01644,1.49446
390.77537,1.49228
390.53430,1.47386
390.29323,1.45467
390.05216,1.45549
389.81109,1.47908
389.57002,1.50771
389.32895,1.52227
389.08788,1.51935
388.84681,1.50800
388.60574,1.49552
388.36467,1.48388
388.12360,1.47554
387.88253,1.47393
387.64146,1.47614
387.40038,1.47410
387.15931,1.46755
386.91824,1.46065
386.67717,1.45138
386.43610,1.43707
386.19503,1.42012
385.95396,1.40129
385.71289,1.38073
385.47182,1.36767
385.23075,1.37497
384.98968,1.39982
384.74861,1.42025
384.50754,1.41808
384.26647,1.39802
384.02540,1.37807
383.78433,1.36579
383.54326,1.35488
383.30219,1.34053
383.06111,1.32736
382.82004,1.32009
382.57897,1.31864
382.33790,1.31910
382.09683,1.31492
381.85576,1.30446
381.61469,1.29063
381.37362,1.27546
381.13255,1.25873
380.89148,1.24086
380.65041,1.22785
380.40934,1.23028
380.16827,1.25201
379.92720,1.28162
379.68613,1.30063
379.44506,1.30328
379.20399,1.30326
378.96292,1.31201
378.72184,1.32453
378.48077,1.32965
378.23970,1.33102
377.99863,1.33571
377.75756,1.33677
377.51649,1.32967
377.27542,1.32419
377.03435,1.33225
376.79328,1.34707
376.55221,1.34671
376.31114,1.32628
376.07007,1.31193
375.82900,1.32602
375.58793,1.36020
375.34686,1.38729
375.10579,1.39213
374.86472,1.38132
374.62365,1.36844
374.38257,1.36317
374.14150,1.36717
373.90043,1.37783
373.65936,1.39162
373.41829,1.40081
373.17722,1.39652
372.93615,1.37925
372.69508,1.35688
372.45401,1.33620
372.21294,1.32369
371.97187,1.32331
371.73080,1.32802
371.48973,1.32514
371.24866,1.31305
371.00759,1.29881
370.76652,1.28424
370.52545,1.27003
370.28437,1.26296
370.04330,1.26686
369.80223,1.27292
369.56116,1.26826
369.32009,1.25364
369.07902,1.24185
368.83795,1.23963
368.59688,1.24152
368.35581,1.24056
368.11474,1.23507
367.87367,1.22563
367.63260,1.21565
367.39153,1.21000
367.15046,1.20932
366.90939,1.20983
366.66832,1.20938
366.42725,1.20819
366.18618,1.20400
365.94510,1.19415
365.70403,1.18192
365.46296,1.17498
365.22189,1.17776
364.98082,1.18750
364.73975,1.19582
364.49868,1.19534
364.25761,1.18752
364.01654,1.17832
363.77547,1.16938
363.53440,1.15924
363.29333,1.14954
363.05226,1.14477
362.81119,1.14527
362.57012,1.14663
362.32905,1.14679
362.08798,1.14721
361.84691,1.14735
361.60583,1.14435
361.36476,1.13909
361.12369,1.13719
360.88262,1.14197
360.64155,1.14998
360.40048,1.15470
360.15941,1.15254
359.91834,1.14479
359.67727,1.13602
359.43620,1.13164
359.19513,1.13457
358.95406,1.14226
358.71299,1.14829
358.47192,1.14826
358.23085,1.14264
357.98978,1.13536
357.74871,1.13088
357.50764,1.13121
357.26656,1.13536
357.02549,1.14164
356.78442,1.14885
356.54335,1.15554
356.30228,1.16037
356.06121,1.16346
355.82014,1.16539
355.57907,1.16546
355.33800,1.16333
355.09693,1.16154
354.85586,1.16233
354.61479,1.16277
354.37372,1.15796
354.13265,1.14858
353.89158,1.14014
353.65051,1.13564
353.40944,1.13352
353.16837,1.13240
352.92729,1.13389
352.68622,1.13916
352.44515,1.14561
352.20408,1.15006
351.96301,1.15166
351.72194,1.14969
351.48087,1.14550
351.23980,1.14334
350.99873,1.14469
350.75766,1.14578
350.51659,1.14290
350.27552,1.13826
350.03445,1.13693
349.79338,1.14046
349.55231,1.14563
349.31124,1.14827
349.07017,1.14805
348.82910,1.14809
348.58802,1.15133
348.34695,1.15833
348.10588,1.16664
347.86481,1.17315
347.62374,1.17766
347.38267,1.18366
347.14160,1.19199
346.90053,1.19648
346.65946,1.19400
346.41839,1.19116
346.17732,1.19369
345.93625,1.19937
345.69518,1.20470
345.45411,1.21083
345.21304,1.21972
344.97197,1.22876
344.73090,1.23314
344.48983,1.23304
344.24875,1.23415
344.00768,1.24015
343.76661,1.24947
343.52554,1.25976
343.28447,1.26994
343.04340,1.27680
342.80233,1.27412
342.56126,1.26028
342.32019,1.24543
342.07912,1.24303
341.83805,1.25555
341.59698,1.27418
341.35591,1.29037
341.11484,1.30040
340.87377,1.30410
340.63270,1.30508
340.39163,1.30801
340.15056,1.31549
339.90948,1.32589
339.66841,1.33501
339.42734,1.34018
339.18627,1.34248
338.94520,1.34734
338.70413,1.35827
338.46306,1.36808
338.22199,1.36499
337.98092,1.35135
337.73985,1.34310
337.49878,1.34749
337.25771,1.35481
337.01664,1.35430
336.77557,1.34871
336.53450,1.34811
336.29343,1.35790
336.05236,1.37580
335.81129,1.39305
335.57021,1.39962
335.32914,1.39678
335.08807,1.39550
334.84700,1.39571
334.60593,1.38251
334.36486,1.35695
334.12379,1.34165
333.88272,1.34804
333.64165,1.35943
333.40058,1.35087
333.15951,1.32411
332.91844,1.30217
332.67737,1.29672
332.43630,1.30147
332.19523,1.30630
331.95416,1.30708
331.71309,1.30531
331.47202,1.30567
331.23094,1.30815
330.98987,1.30267
330.74880,1.28548
330.50773,1.26948
330.26666,1.26694
330.02559,1.27589
329.78452,1.28651
329.54345,1.29233
329.30238,1.29124
329.06131,1.28340
328.82024,1.27482
328.57917,1.27336
328.33810,1.27787
328.09703,1.27931
327.85596,1.27291
327.61489,1.26143
327.37382,1.24849
327.13275,1.23865
326.89167,1.23890
326.65060,1.25248
326.40953,1.27244
326.16846,1.28510
325.92739,1.28523
325.68632,1.28266
325.44525,1.28626
325.20418,1.28918
324.96311,1.28220
324.72204,1.27317
324.48097,1.27443
324.23990,1.28234
323.99883,1.28531
323.75776,1.28230
323.51669,1.28035
323.27562,1.28328
323.03455,1.29033
322.79348,1.29792
322.55240,1.29974
322.31133,1.29200
322.07026,1.28297
321.82919,1.28710
321.58812,1.30866
321.34705,1.34005
321.10598,1.37301
320.86491,1.40297
320.62384,1.41975
320.38277,1.40764
320.14170,1.37069
319.90063,1.33146
319.65956,1.30446
319.41849,1.29490
319.17742,1.30233
318.93635,1.31760
318.69528,1.32855
318.45421,1.33210
318.21313,1.33345
317.97206,1.33687
317.73099,1.34010
317.48992,1.33759
317.24885,1.32898
317.00778,1.32087
316.76671,1.32088
316.52564,1.32710
316.28457,1.32664
316.04350,1.31322
315.80243,1.29639
315.56136,1.28791
315.32029,1.28878
315.07922,1.29042
314.83815,1.28839
314.59708,1.28506
314.35601,1.28325
314.11494,1.28705
313.87386,1.29892
313.63279,1.31156
313.39172,1.31359
313.15065,1.30797
312.90958,1.30768
312.66851,1.31998
312.42744,1.33560
312.18637,1.33437
311.94530,1.31475
311.70423,1.29623
311.46316,1.29460
311.22209,1.31298
310.98102,1.34291
310.73995,1.36596
310.49888,1.36649
310.25781,1.34964
310.01674,1.33735
309.77567,1.34482
309.53459,1.36717
309.29352,1.38621
309.05245,1.39012
308.81138,1.38515
308.57031,1.38219
308.32924,1.38410
308.08817,1.38839
307.84710,1.39150
307.60603,1.39192
307.36496,1.39369
307.12389,1.39965
306.88282,1.40286
306.64175,1.39775
306.40068,1.39419
306.15961,1.40346
305.91854,1.42021
305.67747,1.42909
305.43640,1.42464
305.19532,1.41376
304.95425,1.40145
304.71318,1.38850
304.47211,1.37700
304.23104,1.36667
303.98997,1.35292
303.74890,1.33699
303.50783,1.32892
303.26676,1.33531
303.02569,1.35188
302.78462,1.36719
302.54355,1.36833
302.30248,1.34872
302.06141,1.31818
301.82034,1.29662
301.57927,1.29193
301.33820,1.29300
301.09713,1.28669
300.85605,1.27431
300.61498,1.26717
300.37391,1.27280
300.13284,1.28555
299.89177,1.28778
299.65070,1.26974
299.40963,1.24499
299.16856,1.23322
298.92749,1.23747
298.68642,1.24390
298.44535,1.23833
298.20428,1.22115
297.96321,1.20327
297.72214,1.19271
297.48107,1.19063
297.24000,1.19338
296.99893,1.19482
296.75786,1.19190
296.51678,1.18684
296.27571,1.18196
296.03464,1.17642
295.79357,1.16924
295.55250,1.16232
295.31143,1.15790
295.07036,1.15520
294.82929,1.15108
294.58822,1.14357
294.34715,1.13483
294.10608,1.12951
293.86501,1.12963
293.62394,1.13222
293.38287,1.13182
293.14180,1.12485
292.90073,1.11369
292.65966,1.10575
292.41859,1.10485
292.17751,1.10562
291.93644,1.10068
291.69537,1.09191
291.45430,1.08779
291.21323,1.09127
290.97216,1.09695
290.73109,1.09847
290.49002,1.09444
290.24895,1.08749
290.00788,1.08062
289.76681,1.07540
289.52574,1.07166
289.28467,1.06885
289.04360,1.06786
288.80253,1.06994
288.56146,1.07353
288.32039,1.07479
288.07932,1.07248
287.83824,1.06873
287.59717,1.06443
287.35610,1.05846
287.11503,1.05173
286.87396,1.04754
286.63289,1.04715
286.39182,1.04833
286.15075,1.04875
285.90968,1.04923
285.66861,1.05242
285.42754,1.05752
285.18647,1.05993
284.94540,1.05749
284.70433,1.05362
284.46326,1.05226
284.22219,1.05285
283.98112,1.05236
283.74005,1.04988
283.49897,1.04704
283.25790,1.04541
283.01683,1.04575
282.77576,1.04840
282.53469,1.05176
282.29362,1.05221
282.05255,1.04856
281.81148,1.04471
281.57041,1.04488
281.32934,1.04868
281.08827,1.05232
280.84720,1.05214
280.60613,1.04756
280.36506,1.04226
280.12399,1.04079
279.88292,1.04313
279.64185,1.04502
279.40078,1.04384
279.15970,1.04169
278.91863,1.04198
278.67756,1.04533
278.43649,1.04942
278.19542,1.05173
277.95435,1.05200
277.71328,1.05218
277.47221,1.05402
277.23114,1.05774
276.99007,1.06175
276.74900,1.06249
276.50793,1.05715
276.26686,1.04824
276.02579,1.04275
275.78472,1.04496
275.54365,1.05236
275.30258,1.05929
275.06151,1.06267
274.82043,1.06336
274.57936,1.06316
274.33829,1.06261
274.09722,1.06155
273.85615,1.06084
273.61508,1.06238
273.37401,1.06598
273.13294,1.06817
272.89187,1.06693
272.65080,1.06489
272.40973,1.06615
272.16866,1.07179
271.92759,1.07898
271.68652,1.08310
271.44545,1.08246
271.20438,1.08111
270.96331,1.08436
270.72224,1.09278
270.48116,1.10272
270.24009,1.11081
269.99902,1.11602
269.75795,1.11916
269.51688,1.12220
269.27581,1.12585
269.03474,1.12809
268.79367,1.12738
268.55260,1.12644
268.31153,1.12952
268.07046,1.13691
267.82939,1.14464
267.58832,1.14948
267.34725,1.15237
267.10618,1.15628
266.86511,1.16285
266.62404,1.17235
266.38297,1.18522
266.14189,1.20089
265.90082,1.21561
265.65975,1.22527
265.41868,1.23122
265.17761,1.23952
264.93654,1.25308
264.69547,1.26822
264.45440,1.27967
264.21333,1.28589
263.97226,1.28944
263.73119,1.29408
263.49012,1.30185
263.24905,1.31401
263.00798,1.33348
262.76691,1.36149
262.52584,1.39190
262.28477,1.41502
262.04370,1.42890
261.80262,1.44045
261.56155,1.45521
261.32048,1.47365
261.07941,1.49702
260.83834,1.52817
260.59727,1.56284
260.35620,1.58919
260.11513,1.60026
259.87406,1.60208
259.63299,1.61224
259.39192,1.64330
259.15085,1.69305
258.90978,1.75296
258.66871,1.80786
258.42764,1.83377
258.18657,1.83721
257.94550,1.84601
257.70443,1.88196
257.46335,1.92188
257.22228,1.92667
256.98121,1.90979
256.74014,1.89186
256.49907,1.87688
256.25800,1.85778
256.01693,1.82863
255.77586,1.78985
255.53479,1.74910
255.29372,1.71838
255.05265,1.70159
254.81158,1.69201
254.57051,1.68171
254.32944,1.66702
254.08837,1.64986
253.84730,1.63543
253.60623,1.62474
253.36516,1.61373
253.12408,1.60251
252.88301,1.59843
252.64194,1.60382
252.40087,1.60713
252.15980,1.59524
251.91873,1.57433
251.67766,1.55993
251.43659,1.55511
251.19552,1.55267
250.95445,1.54758
250.71338,1.54170
250.47231,1.54034
250.23124,1.54698
249.99017,1.56015
249.74910,1.57241
249.50803,1.57433
249.26696,1.56537
249.02589,1.55609
248.78481,1.55511
248.54374,1.56130
248.30267,1.56814
248.06160,1.57029
247.82053,1.56973
247.57946,1.57534
247.33839,1.58876
247.09732,1.59930
246.85625,1.59831
246.61518,1.58816
246.37411,1.58127
246.13304,1.59021
245.89197,1.61132
245.65090,1.62848
245.40983,1.63927
245.16876,1.65901
244.92769,1.69560
244.68661,1.73262
244.44554,1.75028
244.20447,1.75577
243.96340,1.77116
243.72233,1.79996
243.48126,1.81935
243.24019,1.81380
242.99912,1.79720
242.75805,1.79324
242.51698,1.80727
242.27591,1.78235
242.03484,1.68960
241.79377,1.59613
241.55270,1.51629
241.31163,1.44392
241.07056,1.37871
240.82949,1.32289
240.58842,1.27390
240.34734,1.22696
240.10627,1.18239
239.86520,1.14287
239.62413,1.10701
239.38306,1.07168
239.14199,1.03801
238.90092,1.00983
238.65985,0.98783
238.41878,0.96972
238.17771,0.95361
237.93664,0.93870
237.69557,0.92452
237.45450,0.91081
237.21343,0.89715
236.97236,0.88232
236.73129,0.86545
236.49022,0.84785
236.24915,0.83276
236.00807,0.82290
235.76700,0.81795
235.52593,0.81459
235.28486,0.80989
235.04379,0.80439
234.80272,0.80045
234.56165,0.79853
234.32058,0.79690
234.07951,0.79391
233.83844,0.78892
233.59737,0.78244
233.35630,0.77630
233.11523,0.77198
232.87416,0.76901
232.63309,0.76650
232.39202,0.76498
232.15095,0.76466
231.90988,0.76367
231.66880,0.76057
231.42773,0.75736
231.18666,0.75709
230.94559,0.75947
230.70452,0.76122
230.46345,0.76091
230.22238,0.76077
229.98131,0.76256
229.74024,0.76472
229.49917,0.76492
229.25810,0.76290
229.01703,0.75930
228.77596,0.75487
228.53489,0.75163
228.29382,0.75162
228.05275,0.75404
227.81168,0.75567
227.57061,0.75431
227.32953,0.74990
227.08846,0.74356
226.84739,0.73788
226.60632,0.73621
226.36525,0.73945
226.12418,0.74482
225.88311,0.74924
225.64204,0.75244
225.40097,0.75524
225.15990,0.75645
224.91883,0.75436
224.67776,0.75058
224.43669,0.74942
224.19562,0.75346
223.95455,0.76151
223.71348,0.77066
223.47241,0.77873
223.23134,0.78489
222.99026,0.78872
222.74919,0.79015
222.50812,0.79111
222.26705,0.79510
222.02598,0.80338
221.78491,0.81334
221.54384,0.82137
221.30277,0.82640
221.06170,0.83032
220.82063,0.83539
220.57956,0.84242
220.33849,0.85111
220.09742,0.86120
219.85635,0.87276
219.61528,0.88559
219.37421,0.89835
219.13314,0.90901
218.89207,0.91732
218.65099,0.92609
218.40992,0.93838
218.16885,0.95453
217.92778,0.97307
217.68671,0.99235
217.44564,1.01032
217.20457,1.02438
216.96350,1.03346
216.72243,1.04059
216.48136,1.05117
216.24029,1.06755
215.99922,1.08692
215.75815,1.10546
215.51708,1.12257
215.27601,1.13898
215.03494,1.15329
214.79387,1.16331
214.55280,1.16964
214.31172,1.17641
214.07065,1.18834
213.82958,1.20561
213.58851,1.22219
213.34744,1.23158
213.10637,1.23366
212.86530,1.23483
212.62423,1.24227
212.38316,1.25764
212.14209,1.27630
211.90102,1.29125
211.65995,1.29888
211.41888,1.30378
211.17781,1.31421
210.93674,1.33220
210.69567,1.35022
210.45460,1.35795
210.21353,1.35188
209.97245,1.33717
209.73138,1.32229
209.49031,1.31473
209.24924,1.31616
209.00817,1.32094
208.76710,1.32195
208.52603,1.31654
208.28496,1.30692
208.04389,1.29730
207.80282,1.29061
207.56175,1.28695
207.32068,1.28548
207.07961,1.28412
206.83854,1.27721
206.59747,1.26032
206.35640,1.23732
206.11533,1.21673
205.87426,1.20246
205.63318,1.19112
205.39211,1.17789
205.15104,1.16095
204.90997,1.14024
204.66890,1.11746
204.42783,1.09750
204.18676,1.08517
203.94569,1.07954
203.70462,1.07365
203.46355,1.06101
203.22248,1.04204
202.98141,1.02310
202.74034,1.00891
202.49927,0.99630
202.25820,0.97778
202.01713,0.95206
201.77606,0.92625
201.53499,0.90695
201.29391,0.89366
201.05284,0.88124
200.81177,0.86679
200.57070,0.85153
200.32963,0.83721
200.08856,0.82463
199.84749,0.81442
199.60642,0.80628
199.36535,0.79839
199.12428,0.78924
198.88321,0.77944
198.64214,0.77087
198.40107,0.76353
198.16000,0.75431
197.91893,0.74081
197.67786,0.72526
197.43679,0.71189
197.19572,0.70185
196.95464,0.69212
196.71357,0.67977
196.47250,0.66675
196.23143,0.65749
195.99036,0.65283
195.74929,0.64906
195.50822,0.64251
195.26715,0.63370
195.02608,0.62623
194.78501,0.62275
194.54394,0.62205
194.30287,0.61985
194.06180,0.61376
193.82073,0.60637
193.57966,0.60117
193.33859,0.59708
193.09752,0.59005
192.85645,0.57998
192.61537,0.57217
192.37430,0.57051
192.13323,0.57198
191.89216,0.57056
191.65109,0.56581
191.41002,0.56225
191.16895,0.56144
190.92788,0.55988
190.68681,0.55480
190.44574,0.54846
190.20467,0.54488
189.96360,0.54473
189.72253,0.54530
189.48146,0.54493
189.24039,0.54422
188.99932,0.54310
188.75825,0.54057
188.51718,0.53777
188.27610,0.53698
188.03503,0.53780
187.79396,0.53787
187.55289,0.53654
187.31182,0.53480
187.07075,0.53337
186.82968,0.53263
186.58861,0.53281
186.34754,0.53342
186.10647,0.53385
185.86540,0.53444
185.62433,0.53610
185.38326,0.53910
185.14219,0.54202
184.90112,0.54270
184.66005,0.54063
184.41898,0.53744
184.17791,0.53537
183.93683,0.53599
183.69576,0.53899
183.45469,0.54180
183.21362,0.54280
182.97255,0.54398
182.73148,0.54705
182.49041,0.55003
182.24934,0.55136
182.00827,0.55310
181.76720,0.55716
181.52613,0.56237
181.28506,0.56685
181.04399,0.56983
180.80292,0.57095
180.56185,0.57077
180.32078,0.57063
180.07971,0.57094
179.83864,0.57150
179.59756,0.57378
179.35649,0.57985
179.11542,0.58922
178.87435,0.59895
178.63328,0.60723
178.39221,0.61489
178.15114,0.62330
177.91007,0.63312
177.66900,0.64473
177.42793,0.65823
177.18686,0.67326
176.94579,0.68925
176.70472,0.70562
176.46365,0.72178
176.22258,0.73744
175.98151,0.75300
175.74044,0.76963
175.49937,0.78908
175.25829,0.81251
175.01722,0.83896
174.77615,0.86606
174.53508,0.89227
174.29401,0.91739
174.05294,0.94151
173.81187,0.96379
173.57080,0.98238
173.32973,0.99589
173.08866,1.00463
172.84759,1.00946
172.60652,1.01084
172.36545,1.01035
172.12438,1.01193
171.88331,1.01924
171.64224,1.03206
171.40117,1.04577
171.16010,1.05488
170.91902,1.05629
170.67795,1.04784
170.43688,1.02933
170.19581,1.00750
169.95474,0.99205
169.71367,0.98631
169.47260,0.98679
169.23153,0.98919
168.99046,0.98994
168.74939,0.98449
168.50832,0.97138
168.26725,0.95565
168.02618,0.94325
167.78511,0.93646
167.54404,0.93562
167.30297,0.94033
167.06190,0.94843
166.82083,0.95713
166.57975,0.96520
166.33868,0.97159
166.09761,0.97455
165.85654,0.97593
165.61547,0.98090
165.37440,0.98988
165.13333,0.99710
164.89226,1.00032
164.65119,1.00529
164.41012,1.01752
164.16905,1.03623
163.92798,1.05791
163.68691,1.08098
163.44584,1.10513
163.20477,1.12768
162.96370,1.14309
162.72263,1.14756
162.48156,1.14443
162.24048,1.14193
161.99941,1.14558
161.75834,1.15464
161.51727,1.16569
161.27620,1.17715
161.03513,1.18731
160.79406,1.19104
160.55299,1.18277
160.31192,1.16364
160.07085,1.14299
159.82978,1.13065
159.58871,1.12748
159.34764,1.12659
159.10657,1.12246
158.86550,1.11513
158.62443,1.10862
158.38336,1.10739
158.14229,1.10965
157.90121,1.10741
157.66014,1.09621
157.41907,1.08049
157.17800,1.06708
156.93693,1.05809
156.69586,1.05205
156.45479,1.04843
156.21372,1.04810
155.97265,1.04853
155.73158,1.04273
155.49051,1.02808
155.24944,1.01229
155.00837,1.00413
154.76730,1.00208
154.52623,0.99676
154.28516,0.98216
154.04409,0.96087
153.80302,0.93858
153.56194,0.91804
153.32087,0.89890
153.07980,0.87997
152.83873,0.86006
152.59766,0.83846
152.35659,0.81565
152.11552,0.79325
151.87445,0.77282
151.63338,0.75470
151.39231,0.73780
151.15124,0.72066
150.91017,0.70273
150.66910,0.68477
150.42803,0.66810
150.18696,0.65333
149.94589,0.63922
149.70482,0.62432
149.46375,0.60961
149.22267,0.59814
148.98160,0.59160
148.74053,0.58748
148.49946,0.58124
148.25839,0.57169
148.01732,0.56223
147.77625,0.55666
147.53518,0.55568
147.29411,0.55681
147.05304,0.55707
146.81197,0.55593
146.57090,0.55545
146.32983,0.55742
146.08876,0.56142
145.84769,0.56627
145.60662,0.57212
145.36555,0.57926
145.12448,0.58613
144.88340,0.59081
144.64233,0.59419
144.40126,0.59916
144.16019,0.60645
143.91912,0.61305
143.67805,0.61526
143.43698,0.61250
143.19591,0.60661
142.95484,0.59863
142.71377,0.58823
142.47270,0.57573
142.23163,0.56278
141.99056,0.55085
141.74949,0.54055
141.50842,0.53247
141.26735,0.52712
141.02628,0.52358
140.78521,0.51979
140.54413,0.51507
140.30306,0.51131
140.06199,0.51082
139.82092,0.51396
139.57985,0.51979
139.33878,0.52771
139.09771,0.53679
138.85664,0.54509
138.61557,0.55187
138.37450,0.55891
138.13343,0.56787
137.89236,0.57869
137.65129,0.59154
137.41022,0.60732
137.16915,0.62579
136.92808,0.64566
136.68701,0.66622
136.44594,0.68740
136.20486,0.70977
135.96379,0.73490
135.72272,0.76355
135.48165,0.79409
135.24058,0.82533
134.99951,0.85859
134.75844,0.89459
134.51737,0.93108
134.27630,0.96606
134.03523,1.00024
133.79416,1.03513
133.55309,1.07130
133.31202,1.10965
133.07095,1.15117
132.82988,1.19261
132.58881,1.22422
132.34774,1.23754
132.10667,1.23456
131.86559,1.22463
131.62452,1.21473
131.38345,1.20403
131.14238,1.18629
130.90131,1.15710
130.66024,1.11882
130.41917,1.07801
130.17810,1.03982
129.93703,1.00466
129.69596,0.96884
129.45489,0.92905
129.21382,0.88663
128.97275,0.84534
128.73168,0.80670
128.49061,0.77021
128.24954,0.73592
128.00847,0.70485
127.76740,0.67782
127.52632,0.65428
127.28525,0.63168
127.04418,0.60739
126.80311,0.58190
126.56204,0.55834
126.32097,0.53884
126.07990,0.52274
125.83883,0.50822
125.59776,0.49416
125.35669,0.48073
125.11562,0.46891
124.87455,0.45940
124.63348,0.45148
124.39241,0.44365
124.15134,0.43559
123.91027,0.42880
123.66920,0.42497
123.42812,0.42399
123.18705,0.42358
122.94598,0.42138
122.70491,0.41774
122.46384,0.41555
122.22277,0.41664
121.98170,0.41969
121.74063,0.42250
121.49956,0.42523
121.25849,0.42981
121.01742,0.43743
120.77635,0.44800
120.53528,0.46085
120.29421,0.47489
120.05314,0.48917
119.81207,0.50403
119.57100,0.52108
119.32993,0.54140
119.08885,0.56504
118.84778,0.59196
118.60671,0.62193
118.36564,0.65321
118.12457,0.68302
117.88350,0.71024
117.64243,0.73664
117.40136,0.76431
117.16029,0.79232
116.91922,0.81610
116.67815,0.83045
116.43708,0.83303
116.19601,0.82481
115.95494,0.80801
115.71387,0.78534
115.47280,0.75969
115.23173,0.73316
114.99066,0.70679
114.74958,0.68286
114.50851,0.66617
114.26744,0.66086
114.02637,0.66619
113.78530,0.67638
113.54423,0.68367
113.30316,0.68253
113.06209,0.67371
112.82102,0.66326
112.57995,0.65770
112.33888,0.66118
112.09781,0.67487
111.85674,0.69672
111.61567,0.72298
111.37460,0.74972
111.13353,0.77096
110.89246,0.77808
110.65139,0.76840
110.41031,0.75101
110.16924,0.73730
109.92817,0.73099
109.68710,0.72690
109.44603,0.71544
109.20496,0.69146
108.96389,0.66014
108.72282,0.62966
108.48175,0.60345
108.24068,0.58205
107.99961,0.56537
107.75854,0.55151
107.51747,0.53604
107.27640,0.51496
107.03533,0.48942
106.79426,0.46567
106.55319,0.44889
106.31212,0.43906
106.07104,0.43272
105.82997,0.42629
105.58890,0.41722
105.34783,0.40440
105.10676,0.38943
104.86569,0.37576
104.62462,0.36550
104.38355,0.35790
104.14248,0.35090
103.90141,0.34301
103.66034,0.33408
103.41927,0.32566
103.17820,0.32000
102.93713,0.31777
102.69606,0.31665
102.45499,0.31329
102.21392,0.30673
101.97285,0.29877
101.73177,0.29187
101.49070,0.28783
101.24963,0.28688
101.00856,0.28681
100.76749,0.28410
100.52642,0.27823
100.28535,0.27289
100.04428,0.27137
99.80321,0.27248
99.56214,0.27166
99.32107,0.26634
99.08000,0.25942
98.83893,0.25608
98.59786,0.25839
98.35679,0.26277
98.11572,0.26325
97.87465,0.25906
97.63358,0.25608
97.39250,0.25905
97.15143,0.26540
96.91036,0.26842
96.66929,0.26754
96.42822,0.27046
96.18715,0.28185
95.94608,0.29600
95.70501,0.30478
95.46394,0.31045
95.22287,0.31977
94.98180,0.33123
94.74073,0.33739
94.49966,0.33732
94.25859,0.33762
94.01752,0.34063
93.77645,0.34056
93.53538,0.33419
93.29431,0.32870
93.05323,0.33103
92.81216,0.33799
92.57109,0.34340
92.33002,0.34711
92.08895,0.35070
91.84788,0.35386
91.60681,0.35907
91.36574,0.36946
91.12467,0.38337
90.88360,0.39968
90.64253,0.42274
90.40146,0.45550
90.16039,0.49669
89.91932,0.54676
89.67825,0.60449
89.43718,0.65908
89.19611,0.70096
88.95504,0.73305
88.71396,0.75601
88.47289,0.76017
88.23182,0.74106
87.99075,0.70536
87.74968,0.65954
87.50861,0.60698
87.26754,0.55238
87.02647,0.50123
86.78540,0.45635
86.54433,0.41808
86.30326,0.38633
86.06219,0.36067
85.82112,0.33953
85.58005,0.32043
85.33898,0.30122
85.09791,0.28164
84.85684,0.26364
84.61577,0.24923
84.37469,0.23824
84.13362,0.22900
83.89255,0.22037
83.65148,0.21243
83.41041,0.20587
83.16934,0.20110
82.92827,0.19793
82.68720,0.19601
82.44613,0.19515
82.20506,0.19499
81.96399,0.19477
81.72292,0.19389
81.48185,0.19221
81.24078,0.19021
80.99971,0.18895
80.75864,0.18909
80.51757,0.18985
80.27650,0.18956
80.03542,0.18729
79.79435,0.18361
79.55328,0.18002
79.31221,0.17791
79.07114,0.17769
78.83007,0.17854
78.58900,0.17883
78.34793,0.17777
78.10686,0.17626
77.86579,0.17470
77.62472,0.17139
77.38365,0.16537
77.14258,0.15907
76.90151,0.15608
76.66044,0.15754
76.41937,0.16183
76.17830,0.16640
75.93723,0.16893
75.69615,0.16800
75.45508,0.16373
75.21401,0.15763
74.97294,0.15153
74.73187,0.14711
74.49080,0.14583
74.24973,0.14821
74.00866,0.15324
73.76759,0.15884
73.52652,0.16294
73.28545,0.16475
73.04438,0.16543
72.80331,0.16667
72.56224,0.16845
72.32117,0.16927
72.08010,0.16853
71.83903,0.16702
71.59796,0.16582
71.35688,0.16606
71.11581,0.16941
70.87474,0.17709
70.63367,0.18900
70.39260,0.20449
70.15153,0.22328
69.91046,0.24438
69.66939,0.26489
69.42832,0.28049
69.18725,0.28661
68.94618,0.27991
68.70511,0.26097
68.46404,0.23563
68.22297,0.21096
67.98190,0.19011
67.74083,0.17263
67.49976,0.15848
67.25869,0.14901
67.01761,0.14412
66.77654,0.14123
66.53547,0.13837
66.29440,0.13650
66.05333,0.13771
65.81226,0.14248
65.57119,0.14985
65.33012,0.15933
65.08905,0.17160
64.84798,0.18699
64.60691,0.20300
64.36584,0.21426
64.12477,0.21643
63.88370,0.21027
63.64263,0.20003
63.40156,0.18909
63.16049,0.17863
62.91942,0.16894
62.67834,0.15964
62.43727,0.14988
62.19620,0.14031
61.95513,0.13419
61.71406,0.13384
61.47299,0.13707
61.23192,0.13964
60.99085,0.14037
60.74978,0.14150
60.50871,0.14498
60.26764,0.15085
60.02657,0.15777
59.78550,0.16306
59.54443,0.16298
59.30336,0.15500
59.06229,0.14087
58.82122,0.12634
58.58015,0.11753
58.33907,0.11794
58.09800,0.12848
57.85693,0.14883
57.61586,0.17681
57.37479,0.20346
57.13372,0.21070
56.89265,0.18891
56.65158,0.15234
56.41051,0.12011
56.16944,0.10287
55.92837,0.10431
55.68730,0.12335
55.44623,0.15510
55.20516,0.18937
54.96409,0.20746
54.72302,0.19484
54.48195,0.16200
54.24088,0.13103
53.99980,0.11714
53.75873,0.12616
53.51766,0.15408
53.27659,0.18462
53.03552,0.19268
52.79445,0.17059
52.55338,0.14029
52.31231,0.12469
52.07124,0.13450
51.83017,0.16790
51.58910,0.19772
51.34803,0.18380
51.10696,0.14080
50.86589,0.11071
50.62482,0.11162
50.38375,0.14356
50.14268,0.18325
49.90161,0.18065
49.66053,0.13621
49.41946,0.10724
49.17839,0.12469
48.93732,0.17598
48.69625,0.19474
48.45518,0.15074
48.21411,0.11476
47.97304,0.12490
47.73197,0.16281
47.49090,0.16683
47.24983,0.12868
47.00876,0.11294
46.76769,0.13071
46.52662,0.13778
46.28555,0.12365
46.04448,0.12201
45.80341,0.13279
45.56234,0.13198
45.32126,0.12305
45.08019,0.12230
44.83912,0.12465
44.59805,0.12325
44.35698,0.12542
44.11591,0.13044
43.87484,0.13208
43.63377,0.13716
43.39270,0.15119
43.15163,0.16671
42.91056,0.17503
42.66949,0.17422
42.42842,0.16293
42.18735,0.14633
41.94628,0.14005
41.70521,0.15184
41.46414,0.16960
41.22307,0.17589
40.98199,0.16994
40.74092,0.16157
40.49985,0.15443
40.25878,0.14731
40.01771,0.14119
39.77664,0.13625
39.53557,0.13136
39.29450,0.13138
39.05343,0.14347
38.81236,0.16737
38.57129,0.19553
38.33022,0.21757
38.08915,0.22658
37.84808,0.22643
37.60701,0.22451
37.36594,0.22092
37.12487,0.21339
36.88380,0.20342
36.64272,0.19490
36.40165,0.19364
36.16058,0.20188
35.91951,0.20803
35.67844,0.19793
35.43737,0.17672
35.19630,0.15999
34.95523,0.15237
34.71416,0.14506
34.47309,0.13393
34.23202,0.12843
33.99095,0.13505
33.74988,0.14609
33.50881,0.15077
33.26774,0.14567
33.02667,0.13360
32.78560,0.12231
32.54453,0.11965
32.30345,0.12668
32.06238,0.13541
31.82131,0.13486
31.58024,0.11895
31.33917,0.09270
31.09810,0.07344
30.85703,0.07302
30.61596,0.08321
30.37489,0.08160
30.13382,0.05420
29.89275,0.01732
29.65168,-0.00553
29.41061,-0.01048
29.16954,-0.00224
28.92847,0.01037
28.68740,0.00747
28.44633,-0.02309
28.20526,-0.06933
27.96418,-0.11809
27.72311,-0.16126
27.48204,-0.18766
27.24097,-0.19161
26.99990,-0.18798
26.75883,-0.19263
26.51776,-0.19536
26.27669,-0.18056
26.03562,-0.15566
25.79455,-0.13820
25.55348,-0.14237
25.31241,-0.17745
25.07134,-0.23385
24.83027,-0.28138
24.58920,-0.30561
24.34813,-0.31634
24.10706,-0.31450
23.86599,-0.30396
23.62491,-0.29917
23.38384,-0.32025
23.14277,-0.37818
22.90170,-0.44459
22.66063,-0.46112
22.41956,-0.42171
22.17849,-0.38210
21.93742,-0.36587
21.69635,-0.36112
21.45528,-0.35695
21.21421,-0.36511
20.97314,-0.40155
20.73207,-0.42460
20.49100,-0.43530
20.24993,-0.47544
20.00886,-0.48444
19.76779,-0.40885
19.52672,-0.37953
19.28564,-0.39627
19.04457,-0.42028
18.80350,-0.44329
18.56243,-0.47298
18.32136,-0.48506
18.08029,-0.46154
17.83922,-0.44387
17.59815,-0.47988
17.35708,-0.55757
17.11601,-0.58198
16.87494,-0.54549
16.63387,-0.50490
16.39280,-0.47878
16.15173,-0.46351
15.91066,-0.47457
15.66959,-0.50813
15.42852,-0.51678
15.18745,-0.45434
14.94637,-0.38008
14.70530,-0.34727
14.46423,-0.35630
14.22316,-0.38731
13.98209,-0.41345
13.74102,-0.42319
13.49995,-0.42123
13.25888,-0.40946
13.01781,-0.39042
12.77674,-0.37774
12.53567,-0.37361
12.29460,-0.37502
12.05353,-0.38191
11.81246,-0.38134
11.57139,-0.37148
11.33032,-0.37174
11.08925,-0.37608
10.84818,-0.36128
10.60710,-0.33387
10.36603,-0.31925
10.12496,-0.32404
9.88389,-0.33923
9.64282,-0.36408
9.40175,-0.40797
9.16068,-0.46945
8.91961,-0.50735
8.67854,-0.48721
8.43747,-0.45775
8.19640,-0.44138
7.95533,-0.43042
7.71426,-0.41647
7.47319,-0.39726
7.23212,-0.37615
6.99105,-0.36420
6.74998,-0.36964
6.50891,-0.38115
6.26783,-0.38297
6.02676,-0.38079
5.78569,-0.38306
5.54462,-0.38451
5.30355,-0.38389
5.06248,-0.38704
4.82141,-0.40734
4.58034,-0.44388
4.33927,-0.46474
4.09820,-0.44751
3.85713,-0.41544
3.61606,-0.40271
3.37499,-0.41245
3.13392,-0.43384
2.89285,-0.45900
2.65178,-0.46668
2.41071,-0.46368
2.16964,-0.43555
1.92856,-0.37739
1.68749,-0.31762
1.44642,-0.28898
1.20535,-0.29507
0.96428,-0.32104
0.72321,-0.38318
0.48214,-0.49606
0.24107,-0.49269
-0.00000,-0.09479
