399.69498,1.83413
399.45391,1.88302
399.21284,1.92554
398.97177,1.91036
398.73070,1.86491
398.48963,1.85126
398.24856,1.87169
398.00749,1.89492
397.76642,1.91119
397.52535,1.92179
397.28428,1.91242
397.04321,1.88197
396.80214,1.85401
396.56107,1.85109
396.32000,1.88746
396.07892,1.97700
395.83785,2.10073
395.59678,2.16639
395.35571,2.11021
395.11464,2.03929
394.87357,2.03782
394.63250,2.05071
394.39143,1.98504
394.15036,1.88424
393.90929,1.81531
393.66822,1.79609
393.42715,1.81352
393.18608,1.85576
392.94501,1.93312
392.70394,2.06159
392.46287,2.23012
392.22180,2.36881
391.98073,2.41562
391.73965,2.36836
391.49858,2.29976
391.25751,2.24589
391.01644,2.08562
390.77537,1.91340
390.53430,1.86054
390.29323,1.94574
390.05216,2.13153
389.81109,2.16627
389.57002,2.11786
389.32895,2.03357
389.08788,2.04138
388.84681,2.10072
388.60574,2.20351
388.36467,2.29728
388.12360,2.38244
387.88253,2.29817
387.64146,2.18386
387.40038,2.17197
387.15931,2.18061
386.91824,2.05230
386.67717,1.97110
386.43610,1.93770
386.19503,1.92154
385.95396,1.96676
385.71289,2.07916
385.47182,2.17413
385.23075,2.33595
384.98968,2.47471
384.74861,2.30910
384.50754,2.02594
384.26647,1.85083
384.02540,1.84837
383.78433,1.88890
383.54326,1.83823
383.30219,1.81647
383.06111,1.83783
382.82004,1.85355
382.57897,1.88512
382.33790,1.98172
382.09683,1.95678
381.85576,1.84790
381.61469,1.78361
381.37362,1.76235
381.13255,1.74338
380.89148,1.71868
380.65041,1.76678
380.40934,1.92714
380.16827,2.05115
379.92720,2.08581
379.68613,2.06202
379.44506,1.99727
379.20399,2.08386
378.96292,2.44249
378.72184,2.40813
378.48077,2.07183
378.23970,1.95638
377.99863,1.98863
377.75756,2.06668
377.51649,1.93793
377.27542,1.84152
377.03435,1.91232
376.79328,2.09350
376.55221,2.13065
376.31114,2.11043
376.07007,2.04889
375.82900,1.94622
375.58793,1.91715
375.34686,1.97239
375.10579,2.06710
374.86472,2.09747
374.62365,2.04562
374.38257,2.09489
374.14150,2.15180
373.90043,2.00784
373.65936,1.87862
373.41829,1.87079
373.17722,1.91239
372.93615,1.89282
372.69508,1.81396
372.45401,1.82162
372.21294,1.89124
371.97187,1.91440
371.73080,1.87275
371.48973,1.78660
371.24866,1.69594
371.00759,1.63272
370.76652,1.60209
370.52545,1.60880
370.28437,1.65018
370.04330,1.69278
369.80223,1.69786
369.56116,1.66964
369.32009,1.63512
369.07902,1.59697
368.83795,1.55562
368.59688,1.53103
368.35581,1.53589
368.11474,1.55614
367.87367,1.55497
367.63260,1.51608
367.39153,1.46825
367.15046,1.44011
366.90939,1.43119
366.66832,1.43045
366.42725,1.43781
366.18618,1.45692
365.94510,1.48309
365.70403,1.50699
365.46296,1.52056
365.22189,1.51743
364.98082,1.49400
364.73975,1.45647
364.49868,1.41491
364.25761,1.37843
364.01654,1.36301
363.77547,1.37651
363.53440,1.40453
363.29333,1.42834
363.05226,1.44507
362.81119,1.45856
362.57012,1.46017
362.32905,1.44017
362.08798,1.41352
361.84691,1.39955
361.60583,1.39276
361.36476,1.37843
361.12369,1.35960
360.88262,1.34980
360.64155,1.35558
360.40048,1.37589
360.15941,1.40295
359.91834,1.42087
359.67727,1.41586
359.43620,1.39224
359.19513,1.37104
358.95406,1.37191
358.71299,1.39830
358.47192,1.43611
358.23085,1.46207
357.98978,1.46286
357.74871,1.44498
357.50764,1.42298
357.26656,1.40431
357.02549,1.37982
356.78442,1.34570
356.54335,1.31695
356.30228,1.30821
356.06121,1.32302
355.82014,1.35748
355.57907,1.39860
355.33800,1.42489
355.09693,1.42513
354.85586,1.40867
354.61479,1.38531
354.37372,1.36019
354.13265,1.34304
353.89158,1.34358
353.65051,1.35955
353.40944,1.37126
353.16837,1.36114
352.92729,1.33667
352.68622,1.31528
352.44515,1.30106
352.20408,1.29343
351.96301,1.30347
351.72194,1.34270
351.48087,1.39973
351.23980,1.43805
350.99873,1.43406
350.75766,1.41147
350.51659,1.40623
350.27552,1.42319
350.03445,1.43759
349.79338,1.42809
349.55231,1.40673
349.31124,1.40113
349.07017,1.42151
348.82910,1.45960
348.58802,1.49828
348.34695,1.51716
348.10588,1.51051
347.86481,1.48490
347.62374,1.44908
347.38267,1.41012
347.14160,1.38238
346.90053,1.38496
346.65946,1.41550
346.41839,1.45375
346.17732,1.48898
345.93625,1.52468
345.69518,1.55291
345.45411,1.55714
345.21304,1.54579
344.97197,1.53489
344.73090,1.51614
344.48983,1.47590
344.24875,1.43528
344.00768,1.42208
343.76661,1.42933
343.52554,1.43824
343.28447,1.45090
343.04340,1.47943
342.80233,1.52194
342.56126,1.56113
342.32019,1.58476
342.07912,1.59562
341.83805,1.60281
341.59698,1.60862
341.35591,1.60630
341.11484,1.59230
340.87377,1.58583
340.63270,1.60877
340.39163,1.64392
340.15056,1.64896
339.90948,1.62950
339.66841,1.63689
339.42734,1.66554
339.18627,1.65595
338.94520,1.62993
338.70413,1.66032
338.46306,1.78245
338.22199,1.97503
337.98092,2.16372
337.73985,2.27369
337.49878,2.25484
337.25771,2.10747
337.01664,1.96826
336.77557,1.88899
336.53450,1.87189
336.29343,1.86468
336.05236,1.82045
335.81129,1.81704
335.57021,1.87222
335.32914,1.91379
335.08807,1.91681
334.84700,1.90597
334.60593,1.87738
334.36486,1.85807
334.12379,1.84197
333.88272,1.81706
333.64165,1.81061
333.40058,1.84561
333.15951,1.89912
332.91844,1.88247
332.67737,1.79359
332.43630,1.74463
332.19523,1.76324
331.95416,1.81100
331.71309,1.84408
331.47202,1.83916
331.23094,1.75613
330.98987,1.67332
330.74880,1.62336
330.50773,1.57753
330.26666,1.53519
330.02559,1.52623
329.78452,1.55699
329.54345,1.61336
329.30238,1.66244
329.06131,1.65400
328.82024,1.59148
328.57917,1.52803
328.33810,1.49609
328.09703,1.49574
327.85596,1.51285
327.61489,1.54827
327.37382,1.62096
327.13275,1.72947
326.89167,1.84522
326.65060,1.91587
326.40953,1.86218
326.16846,1.80017
325.92739,1.71984
325.68632,1.63795
325.44525,1.60355
325.20418,1.62498
324.96311,1.67512
324.72204,1.72470
324.48097,1.78108
324.23990,1.90254
323.99883,2.10954
323.75776,2.22854
323.51669,2.26856
323.27562,2.19323
323.03455,1.97072
322.79348,1.82450
322.55240,1.75643
322.31133,1.71344
322.07026,1.67285
321.82919,1.63334
321.58812,1.60489
321.34705,1.58847
321.10598,1.58380
320.86491,1.61951
320.62384,1.71230
320.38277,1.83359
320.14170,1.90866
319.90063,1.89626
319.65956,1.86770
319.41849,1.90593
319.17742,1.98060
318.93635,1.98314
318.69528,1.95228
318.45421,1.92563
318.21313,1.94911
317.97206,1.99524
317.73099,1.98799
317.48992,1.93959
317.24885,1.96766
317.00778,2.08431
316.76671,2.13011
316.52564,2.01814
316.28457,1.90569
316.04350,1.91003
315.80243,2.05510
315.56136,2.25387
315.32029,2.15776
315.07922,2.04123
314.83815,2.01838
314.59708,2.06318
314.35601,2.20281
314.11494,2.28948
313.87386,2.15348
313.63279,2.07648
313.39172,2.12791
313.15065,2.16538
312.90958,2.06905
312.66851,1.95591
312.42744,1.93161
312.18637,2.04408
311.94530,2.32459
311.70423,2.54435
311.46316,2.36589
311.22209,2.17113
310.98102,2.03951
310.73995,2.04769
310.49888,2.12288
310.25781,2.23651
310.01674,2.45742
309.77567,2.62908
309.53459,2.39141
309.29352,2.12152
309.05245,2.02575
308.81138,2.01416
308.57031,1.93114
308.32924,1.87482
308.08817,1.77497
307.84710,1.68685
307.60603,1.68577
307.36496,1.77006
307.12389,1.97454
306.88282,2.26377
306.64175,2.19657
306.40068,1.90711
306.15961,1.75441
305.91854,1.68782
305.67747,1.63438
305.43640,1.59273
305.19532,1.57166
304.95425,1.56292
304.71318,1.56166
304.47211,1.57290
304.23104,1.59083
303.98997,1.59868
303.74890,1.60346
303.50783,1.61905
303.26676,1.62620
303.02569,1.60224
302.78462,1.54385
302.54355,1.47991
302.30248,1.43617
302.06141,1.41359
301.82034,1.40573
301.57927,1.40207
301.33820,1.39226
301.09713,1.37925
300.85605,1.37285
300.61498,1.37112
300.37391,1.36591
300.13284,1.35618
299.89177,1.34224
299.65070,1.32094
299.40963,1.29749
299.16856,1.28650
298.92749,1.29150
298.68642,1.29590
298.44535,1.28155
298.20428,1.25003
297.96321,1.21800
297.72214,1.20078
297.48107,1.20447
297.24000,1.22182
296.99893,1.23331
296.75786,1.22377
296.51678,1.19962
296.27571,1.18052
296.03464,1.17441
295.79357,1.17204
295.55250,1.16472
295.31143,1.15452
295.07036,1.14555
294.82929,1.13633
294.58822,1.12510
294.34715,1.11737
294.10608,1.12160
293.86501,1.13857
293.62394,1.15839
293.38287,1.16840
293.14180,1.16339
292.90073,1.14790
292.65966,1.13099
292.41859,1.11903
292.17751,1.11191
291.93644,1.10591
291.69537,1.09874
291.45430,1.09045
291.21323,1.08276
290.97216,1.07869
290.73109,1.07782
290.49002,1.07400
290.24895,1.06414
290.00788,1.05443
289.76681,1.05262
289.52574,1.05868
289.28467,1.06562
289.04360,1.06724
288.80253,1.06489
288.56146,1.06458
288.32039,1.06692
288.07932,1.06666
287.83824,1.06233
287.59717,1.05850
287.35610,1.05771
287.11503,1.05626
286.87396,1.04997
286.63289,1.04176
286.39182,1.03865
286.15075,1.04181
285.90968,1.04557
285.66861,1.04656
285.42754,1.04590
285.18647,1.04327
284.94540,1.03839
284.70433,1.03508
284.46326,1.03638
284.22219,1.03998
283.98112,1.04216
283.74005,1.04165
283.49897,1.03903
283.25790,1.03511
283.01683,1.03041
282.77576,1.02568
282.53469,1.02327
282.29362,1.02587
282.05255,1.03221
281.81148,1.03643
281.57041,1.03412
281.32934,1.02687
281.08827,1.01943
280.84720,1.01546
280.60613,1.01717
280.36506,1.02471
280.12399,1.03426
279.88292,1.04031
279.64185,1.04082
279.40078,1.03724
279.15970,1.03030
278.91863,1.02062
278.67756,1.01288
278.43649,1.01308
278.19542,1.02087
277.95435,1.02865
277.71328,1.02932
277.47221,1.02298
277.23114,1.01543
276.99007,1.01199
276.74900,1.01403
276.50793,1.01901
276.26686,1.02321
276.02579,1.02585
275.78472,1.02967
275.54365,1.03608
275.30258,1.04099
275.06151,1.03845
274.82043,1.02893
274.57936,1.02028
274.33829,1.01942
274.09722,1.02611
273.85615,1.03486
273.61508,1.04141
273.37401,1.04664
273.13294,1.05261
272.89187,1.05648
272.65080,1.05234
272.40973,1.04114
272.16866,1.03223
271.92759,1.03329
271.68652,1.04252
271.44545,1.05010
271.20438,1.04942
270.96331,1.04401
270.72224,1.04135
270.48116,1.04493
270.24009,1.05393
269.99902,1.06680
269.75795,1.08168
269.51688,1.09438
269.27581,1.10024
269.03474,1.09853
268.79367,1.09244
268.55260,1.08544
268.31153,1.08023
268.07046,1.07924
267.82939,1.08353
267.58832,1.09176
267.34725,1.10108
267.10618,1.10862
266.86511,1.11377
266.62404,1.11805
266.38297,1.12245
266.14189,1.12767
265.90082,1.13532
265.65975,1.14470
265.41868,1.15062
265.17761,1.15085
264.93654,1.15322
264.69547,1.16655
264.45440,1.18805
264.21333,1.20505
263.97226,1.20933
263.73119,1.20609
263.49012,1.20459
263.24905,1.20969
263.00798,1.22188
262.76691,1.23847
262.52584,1.25588
262.28477,1.27360
262.04370,1.29261
261.80262,1.30657
261.56155,1.30865
261.32048,1.30470
261.07941,1.30767
260.83834,1.32603
260.59727,1.35575
260.35620,1.38159
260.11513,1.39399
259.87406,1.40115
259.63299,1.41607
259.39192,1.44371
259.15085,1.48158
258.90978,1.51953
258.66871,1.54282
258.42764,1.54760
258.18657,1.54917
257.94550,1.56480
257.70443,1.58915
257.46335,1.60424
257.22228,1.61379
256.98121,1.63612
256.74014,1.66942
256.49907,1.69813
256.25800,1.72787
256.01693,1.78009
255.77586,1.84984
255.53479,1.87923
255.29372,1.84813
255.05265,1.83832
254.81158,1.88168
254.57051,1.94459
254.32944,2.00741
254.08837,2.04753
253.84730,2.08360
253.60623,2.13442
253.36516,2.12078
253.12408,2.13188
252.88301,2.24249
252.64194,2.34406
252.40087,2.31376
252.15980,2.30384
251.91873,2.30137
251.67766,2.20484
251.43659,2.20820
251.19552,2.41106
250.95445,2.80092
250.71338,2.71431
250.47231,2.29471
250.23124,2.05680
249.99017,1.98557
249.74910,2.04135
249.50803,2.16660
249.26696,2.20378
249.02589,2.17408
248.78481,2.23336
248.54374,2.34364
248.30267,2.31279
248.06160,2.14583
247.82053,2.01168
247.57946,1.98737
247.33839,2.01963
247.09732,2.04927
246.85625,2.11964
246.61518,2.33266
246.37411,2.49157
246.13304,2.32369
245.89197,2.26801
245.65090,2.28795
245.40983,2.21977
245.16876,2.08935
244.92769,1.98665
244.68661,1.92308
244.44554,1.89367
244.20447,1.88821
243.96340,1.86831
243.72233,1.80093
243.48126,1.70700
243.24019,1.61841
242.99912,1.54571
242.75805,1.49146
242.51698,1.45494
242.27591,1.42615
242.03484,1.38899
241.79377,1.33536
241.55270,1.27379
241.31163,1.22087
241.07056,1.18751
240.82949,1.16839
240.58842,1.14476
240.34734,1.10502
240.10627,1.05618
239.86520,1.01218
239.62413,0.97973
239.38306,0.95602
239.14199,0.93571
238.90092,0.91640
238.65985,0.89815
238.41878,0.88104
238.17771,0.86445
237.93664,0.84743
237.69557,0.82980
237.45450,0.81334
237.21343,0.80049
236.97236,0.79092
236.73129,0.78154
236.49022,0.77033
236.24915,0.75826
236.00807,0.74712
235.76700,0.73809
235.52593,0.73243
235.28486,0.73124
235.04379,0.73383
234.80272,0.73659
234.56165,0.73501
234.32058,0.72843
234.07951,0.72097
233.83844,0.71601
233.59737,0.71206
233.35630,0.70596
233.11523,0.69835
232.87416,0.69385
232.63309,0.69583
232.39202,0.70151
232.15095,0.70383
231.90988,0.69943
231.66880,0.69228
231.42773,0.68789
231.18666,0.68783
230.94559,0.69016
230.70452,0.69228
230.46345,0.69242
230.22238,0.68987
229.98131,0.68536
229.74024,0.68142
229.49917,0.68026
229.25810,0.68054
229.01703,0.67929
228.77596,0.67705
228.53489,0.67702
228.29382,0.67932
228.05275,0.68013
227.81168,0.67694
227.57061,0.67214
227.32953,0.67019
227.08846,0.67303
226.84739,0.67813
226.60632,0.68109
226.36525,0.68074
226.12418,0.68018
225.88311,0.68282
225.64204,0.68809
225.40097,0.69177
225.15990,0.69155
224.91883,0.69040
224.67776,0.69205
224.43669,0.69569
224.19562,0.69860
223.95455,0.70176
223.71348,0.70797
223.47241,0.71677
223.23134,0.72486
222.99026,0.72920
222.74919,0.72839
222.50812,0.72430
222.26705,0.72197
222.02598,0.72517
221.78491,0.73303
221.54384,0.74182
221.30277,0.74868
221.06170,0.75420
220.82063,0.76184
220.57956,0.77372
220.33849,0.78746
220.09742,0.79923
219.85635,0.80895
219.61528,0.81848
219.37421,0.82693
219.13314,0.83307
218.89207,0.83924
218.65099,0.84776
218.40992,0.85764
218.16885,0.86815
217.92778,0.88115
217.68671,0.89629
217.44564,0.90846
217.20457,0.91399
216.96350,0.91652
216.72243,0.92366
216.48136,0.93845
216.24029,0.95561
215.99922,0.96757
215.75815,0.97292
215.51708,0.97716
215.27601,0.98663
215.03494,1.00340
214.79387,1.02373
214.55280,1.04069
214.31172,1.05080
214.07065,1.05793
213.82958,1.06885
213.58851,1.08553
213.34744,1.10303
213.10637,1.11484
212.86530,1.11973
212.62423,1.12080
212.38316,1.11873
212.14209,1.11399
211.90102,1.11254
211.65995,1.12087
211.41888,1.13749
211.17781,1.15395
210.93674,1.16351
210.69567,1.16576
210.45460,1.16326
210.21353,1.15625
209.97245,1.14244
209.73138,1.12413
209.49031,1.11031
209.24924,1.10714
209.00817,1.11161
208.76710,1.11749
208.52603,1.12299
208.28496,1.12860
208.04389,1.13082
207.80282,1.12513
207.56175,1.11421
207.32068,1.10435
207.07961,1.09524
206.83854,1.08157
206.59747,1.06410
206.35640,1.04990
206.11533,1.04113
205.87426,1.03205
205.63318,1.01864
205.39211,1.00497
205.15104,0.99623
204.90997,0.99105
204.66890,0.98384
204.42783,0.97144
204.18676,0.95478
203.94569,0.93745
203.70462,0.92426
203.46355,0.91715
203.22248,0.91225
202.98141,0.90451
202.74034,0.89404
202.49927,0.88380
202.25820,0.87250
202.01713,0.85590
201.77606,0.83449
201.53499,0.81511
201.29391,0.80299
201.05284,0.79536
200.81177,0.78543
200.57070,0.77065
200.32963,0.75434
200.08856,0.74142
199.84749,0.73445
199.60642,0.73177
199.36535,0.72844
199.12428,0.72062
198.88321,0.70891
198.64214,0.69607
198.40107,0.68330
198.16000,0.67059
197.91893,0.65921
197.67786,0.65091
197.43679,0.64486
197.19572,0.63790
196.95464,0.62850
196.71357,0.61835
196.47250,0.60928
196.23143,0.60105
195.99036,0.59314
195.74929,0.58668
195.50822,0.58304
195.26715,0.58127
195.02608,0.57859
194.78501,0.57344
194.54394,0.56614
194.30287,0.55715
194.06180,0.54726
193.82073,0.53891
193.57966,0.53405
193.33859,0.53139
193.09752,0.52788
192.85645,0.52240
192.61537,0.51662
192.37430,0.51278
192.13323,0.51126
191.89216,0.50985
191.65109,0.50581
191.41002,0.49957
191.16895,0.49469
190.92788,0.49338
190.68681,0.49444
190.44574,0.49526
190.20467,0.49374
189.96360,0.48918
189.72253,0.48358
189.48146,0.48025
189.24039,0.47965
188.99932,0.47854
188.75825,0.47453
188.51718,0.46930
188.27610,0.46626
188.03503,0.46674
187.79396,0.46905
187.55289,0.47049
187.31182,0.47018
187.07075,0.46917
186.82968,0.46832
186.58861,0.46756
186.34754,0.46716
186.10647,0.46809
185.86540,0.47093
185.62433,0.47511
185.38326,0.47884
185.14219,0.47981
184.90112,0.47748
184.66005,0.47445
184.41898,0.47391
184.17791,0.47628
183.93683,0.47938
183.69576,0.48169
183.45469,0.48366
183.21362,0.48567
182.97255,0.48701
182.73148,0.48785
182.49041,0.48994
182.24934,0.49438
182.00827,0.49960
181.76720,0.50275
181.52613,0.50249
181.28506,0.50013
181.04399,0.49806
180.80292,0.49790
180.56185,0.50026
180.32078,0.50494
180.07971,0.51054
179.83864,0.51506
179.59756,0.51765
179.35649,0.51945
179.11542,0.52244
178.87435,0.52769
178.63328,0.53485
178.39221,0.54309
178.15114,0.55205
177.91007,0.56188
177.66900,0.57264
177.42793,0.58391
177.18686,0.59507
176.94579,0.60684
176.70472,0.62148
176.46365,0.63961
176.22258,0.65781
175.98151,0.67225
175.74044,0.68426
175.49937,0.69829
175.25829,0.71628
175.01722,0.73722
174.77615,0.75966
174.53508,0.78300
174.29401,0.80690
174.05294,0.82959
173.81187,0.84796
173.57080,0.86083
173.32973,0.87099
173.08866,0.88130
172.84759,0.89051
172.60652,0.89659
172.36545,0.90158
172.12438,0.90841
171.88331,0.91474
171.64224,0.91576
171.40117,0.91172
171.16010,0.90740
170.91902,0.90612
170.67795,0.90604
170.43688,0.90259
170.19581,0.89424
169.95474,0.88367
169.71367,0.87296
169.47260,0.86124
169.23153,0.84824
168.99046,0.83764
168.74939,0.83413
168.50832,0.83757
168.26725,0.84226
168.02618,0.84314
167.78511,0.84131
167.54404,0.84144
167.30297,0.84494
167.06190,0.84867
166.82083,0.85055
166.57975,0.85267
166.33868,0.85672
166.09761,0.86048
165.85654,0.86161
165.61547,0.86154
165.37440,0.86308
165.13333,0.86743
164.89226,0.87590
164.65119,0.89014
164.41012,0.90864
164.16905,0.92596
163.92798,0.93762
163.68691,0.94456
163.44584,0.95112
163.20477,0.95932
162.96370,0.96803
162.72263,0.97675
162.48156,0.98664
162.24048,0.99745
161.99941,1.00623
161.75834,1.01054
161.51727,1.01053
161.27620,1.00817
161.03513,1.00647
160.79406,1.00711
160.55299,1.00782
160.31192,1.00494
160.07085,0.99887
159.82978,0.99349
159.58871,0.99035
159.34764,0.98635
159.10657,0.97881
158.86550,0.97034
158.62443,0.96447
158.38336,0.96028
158.14229,0.95577
157.90121,0.95171
157.66014,0.94818
157.41907,0.94231
157.17800,0.93318
156.93693,0.92370
156.69586,0.91634
156.45479,0.91164
156.21372,0.90988
155.97265,0.91070
155.73158,0.91205
155.49051,0.91054
155.24944,0.90392
155.00837,0.89309
154.76730,0.88028
154.52623,0.86608
154.28516,0.84979
154.04409,0.83187
153.80302,0.81405
153.56194,0.79688
153.32087,0.77976
153.07980,0.76331
152.83873,0.74846
152.59766,0.73436
152.35659,0.71907
152.11552,0.70233
151.87445,0.68588
151.63338,0.67062
151.39231,0.65552
151.15124,0.64004
150.91017,0.62500
150.66910,0.61008
150.42803,0.59367
150.18696,0.57585
149.94589,0.55919
149.70482,0.54601
149.46375,0.53584
149.22267,0.52664
148.98160,0.51815
148.74053,0.51227
148.49946,0.50945
148.25839,0.50687
148.01732,0.50160
147.77625,0.49427
147.53518,0.48819
147.29411,0.48549
147.05304,0.48542
146.81197,0.48661
146.57090,0.48918
146.32983,0.49339
146.08876,0.49782
145.84769,0.50129
145.60662,0.50515
145.36555,0.51098
145.12448,0.51731
144.88340,0.52145
144.64233,0.52345
144.40126,0.52557
144.16019,0.52873
143.91912,0.53167
143.67805,0.53302
143.43698,0.53274
143.19591,0.53158
142.95484,0.52952
142.71377,0.52495
142.47270,0.51602
142.23163,0.50343
141.99056,0.49028
141.74949,0.47918
141.50842,0.47050
141.26735,0.46330
141.02628,0.45710
140.78521,0.45246
140.54413,0.44988
140.30306,0.44885
140.06199,0.44886
139.82092,0.44998
139.57985,0.45181
139.33878,0.45356
139.09771,0.45571
138.85664,0.46028
138.61557,0.46868
138.37450,0.47981
138.13343,0.49100
137.89236,0.50130
137.65129,0.51313
137.41022,0.52935
137.16915,0.54917
136.92808,0.56873
136.68701,0.58525
136.44594,0.59987
136.20486,0.61655
135.96379,0.63810
135.72272,0.66392
135.48165,0.69191
135.24058,0.72081
134.99951,0.74977
134.75844,0.77849
134.51737,0.80740
134.27630,0.83535
134.03523,0.85980
133.79416,0.88163
133.55309,0.90473
133.31202,0.92974
133.07095,0.95388
132.82988,0.97557
132.58881,0.99336
132.34774,1.00352
132.10667,1.00140
131.86559,0.98639
131.62452,0.96492
131.38345,0.94393
131.14238,0.92491
130.90131,0.90684
130.66024,0.89099
130.41917,0.87826
130.17810,0.86430
129.93703,0.84287
129.69596,0.81443
129.45489,0.78500
129.21382,0.75732
128.97275,0.72854
128.73168,0.69504
128.49061,0.65800
128.24954,0.62340
128.00847,0.59516
127.76740,0.57069
127.52632,0.54567
127.28525,0.52106
127.04418,0.50130
126.80311,0.48688
126.56204,0.47302
126.32097,0.45664
126.07990,0.44005
125.83883,0.42613
125.59776,0.41388
125.35669,0.40106
125.11562,0.38849
124.87455,0.37890
124.63348,0.37290
124.39241,0.36875
124.15134,0.36491
123.91027,0.36079
123.66920,0.35586
123.42812,0.35011
123.18705,0.34500
122.94598,0.34202
122.70491,0.34094
122.46384,0.34090
122.22277,0.34191
121.98170,0.34359
121.74063,0.34457
121.49956,0.34549
121.25849,0.34978
121.01742,0.35882
120.77635,0.36944
120.53528,0.37858
120.29421,0.38745
120.05314,0.39915
119.81207,0.41491
119.57100,0.43365
119.32993,0.45311
119.08885,0.47181
118.84778,0.49124
118.60671,0.51435
118.36564,0.54147
118.12457,0.57047
117.88350,0.59953
117.64243,0.62670
117.40136,0.64878
117.16029,0.66318
116.91922,0.66957
116.67815,0.66935
116.43708,0.66491
116.19601,0.65842
115.95494,0.65030
115.71387,0.64014
115.47280,0.62786
115.23173,0.61275
114.99066,0.59429
114.74958,0.57486
114.50851,0.55905
114.26744,0.54987
114.02637,0.54700
113.78530,0.54766
113.54423,0.54867
113.30316,0.54870
113.06209,0.54859
112.82102,0.54919
112.57995,0.55036
112.33888,0.55210
112.09781,0.55511
111.85674,0.55967
111.61567,0.56508
111.37460,0.57178
111.13353,0.58114
110.89246,0.59190
110.65139,0.59942
110.41031,0.59959
110.16924,0.59106
109.92817,0.57479
109.68710,0.55441
109.44603,0.53443
109.20496,0.51593
108.96389,0.49714
108.72282,0.47794
108.48175,0.46053
108.24068,0.44589
107.99961,0.43207
107.75854,0.41723
107.51747,0.40186
107.27640,0.38682
107.03533,0.37230
106.79426,0.35868
106.55319,0.34633
106.31212,0.33454
106.07104,0.32237
105.82997,0.31027
105.58890,0.29954
105.34783,0.29082
105.10676,0.28413
104.86569,0.27910
104.62462,0.27445
104.38355,0.26916
104.14248,0.26359
103.90141,0.25777
103.66034,0.25041
103.41927,0.24150
103.17820,0.23351
102.93713,0.22777
102.69606,0.22266
102.45499,0.21668
102.21392,0.21094
101.97285,0.20724
101.73177,0.20576
101.49070,0.20537
101.24963,0.20468
101.00856,0.20299
100.76749,0.20063
100.52642,0.19828
100.28535,0.19598
100.04428,0.19315
99.80321,0.18966
99.56214,0.18597
99.32107,0.18228
99.08000,0.17851
98.83893,0.17538
98.59786,0.17432
98.35679,0.17587
98.11572,0.17920
97.87465,0.18321
97.63358,0.18699
97.39250,0.18938
97.15143,0.19007
96.91036,0.19100
96.66929,0.19496
96.42822,0.20236
96.18715,0.21113
95.94608,0.21955
95.70501,0.22751
95.46394,0.23523
95.22287,0.24190
94.98180,0.24639
94.74073,0.24884
94.49966,0.25101
94.25859,0.25423
94.01752,0.25712
93.77645,0.25693
93.53538,0.25341
93.29431,0.24944
93.05323,0.24750
92.81216,0.24759
92.57109,0.24891
92.33002,0.25139
92.08895,0.25494
91.84788,0.25942
91.60681,0.26579
91.36574,0.27571
91.12467,0.28997
90.88360,0.30843
90.64253,0.33137
90.40146,0.35974
90.16039,0.39445
89.91932,0.43533
89.67825,0.47981
89.43718,0.52244
89.19611,0.55723
88.95504,0.58033
88.71396,0.59021
88.47289,0.58697
88.23182,0.57157
87.99075,0.54515
87.74968,0.51002
87.50861,0.47067
87.26754,0.43163
87.02647,0.39488
86.78540,0.36067
86.54433,0.32938
86.30326,0.30186
86.06219,0.27826
85.82112,0.25704
85.58005,0.23619
85.33898,0.21567
85.09791,0.19754
84.85684,0.18315
84.61577,0.17169
84.37469,0.16199
84.13362,0.15448
83.89255,0.15025
83.65148,0.14867
83.41041,0.14686
83.16934,0.14192
82.92827,0.13372
82.68720,0.12499
82.44613,0.11884
82.20506,0.11622
81.96399,0.11583
81.72292,0.11574
81.48185,0.11497
81.24078,0.11350
80.99971,0.11174
80.75864,0.11021
80.51757,0.10956
80.27650,0.11012
80.03542,0.11124
79.79435,0.11174
79.55328,0.11115
79.31221,0.10983
79.07114,0.10808
78.83007,0.10615
78.58900,0.10469
78.34793,0.10388
78.10686,0.10281
77.86579,0.10072
77.62472,0.09757
77.38365,0.09310
77.14258,0.08734
76.90151,0.08183
76.66044,0.07854
76.41937,0.07778
76.17830,0.07811
75.93723,0.07809
75.69615,0.07766
75.45508,0.07788
75.21401,0.07892
74.97294,0.07910
74.73187,0.07736
74.49080,0.07549
74.24973,0.07587
74.00866,0.07809
73.76759,0.07962
73.52652,0.07923
73.28545,0.07808
73.04438,0.07754
72.80331,0.07726
72.56224,0.07610
72.32117,0.07452
72.08010,0.07454
71.83903,0.07724
71.59796,0.08141
71.35688,0.08540
71.11581,0.08926
70.87474,0.09434
70.63367,0.10124
70.39260,0.10941
70.15153,0.11899
69.91046,0.13144
69.66939,0.14696
69.42832,0.16215
69.18725,0.17196
68.94618,0.17391
68.70511,0.16864
68.46404,0.15729
68.22297,0.14129
67.98190,0.12427
67.74083,0.11048
67.49976,0.10090
67.25869,0.09334
67.01761,0.08637
66.77654,0.08062
66.53547,0.07612
66.29440,0.07136
66.05333,0.06599
65.81226,0.06228
65.57119,0.06244
65.33012,0.06586
65.08905,0.07005
64.84798,0.07405
64.60691,0.07935
64.36584,0.08687
64.12477,0.09449
63.88370,0.09859
63.64263,0.09781
63.40156,0.09436
63.16049,0.09097
62.91942,0.08753
62.67834,0.08219
62.43727,0.07491
62.19620,0.06813
61.95513,0.06369
61.71406,0.06099
61.47299,0.05815
61.23192,0.05394
60.99085,0.04904
60.74978,0.04577
60.50871,0.04580
60.26764,0.04824
60.02657,0.05035
59.78550,0.05028
59.54443,0.04913
59.30336,0.04983
59.06229,0.05325
58.82122,0.05668
58.58015,0.05763
58.33907,0.05721
58.09800,0.05745
57.85693,0.05710
57.61586,0.05338
57.37479,0.04671
57.13372,0.04070
56.89265,0.03752
56.65158,0.03585
56.41051,0.03327
56.16944,0.02948
55.92837,0.02708
55.68730,0.02900
55.44623,0.03435
55.20516,0.03844
54.96409,0.03824
54.72302,0.03566
54.48195,0.03362
54.24088,0.03255
53.99980,0.03292
53.75873,0.03718
53.51766,0.04564
53.27659,0.05323
53.03552,0.05447
52.79445,0.05047
52.55338,0.04722
52.31231,0.04712
52.07124,0.04633
51.83017,0.04090
51.58910,0.03192
51.34803,0.02371
51.10696,0.01953
50.86589,0.01969
50.62482,0.02214
50.38375,0.02440
50.14268,0.02500
49.90161,0.02373
49.66053,0.02153
49.41946,0.02026
49.17839,0.02082
48.93732,0.02150
48.69625,0.01982
48.45518,0.01510
48.21411,0.00832
47.97304,0.00105
47.73197,-0.00521
47.49090,-0.00960
47.24983,-0.01254
47.00876,-0.01530
46.76769,-0.01758
46.52662,-0.01701
46.28555,-0.01382
46.04448,-0.01288
45.80341,-0.01750
45.56234,-0.02426
45.32126,-0.02831
45.08019,-0.03034
44.83912,-0.03275
44.59805,-0.03285
44.35698,-0.02733
44.11591,-0.01989
43.87484,-0.01521
43.63377,-0.01049
43.39270,-0.00234
43.15163,0.00262
42.91056,-0.00505
42.66949,-0.02175
42.42842,-0.03426
42.18735,-0.03731
41.94628,-0.03632
41.70521,-0.03513
41.46414,-0.03419
41.22307,-0.03594
40.98199,-0.04129
40.74092,-0.04570
40.49985,-0.04315
40.25878,-0.03359
40.01771,-0.02397
39.77664,-0.02015
39.53557,-0.02153
39.29450,-0.02437
39.05343,-0.02836
38.81236,-0.03589
38.57129,-0.04361
38.33022,-0.04253
38.08915,-0.03315
37.84808,-0.03078
37.60701,-0.04537
37.36594,-0.06321
37.12487,-0.06339
36.88380,-0.04655
36.64272,-0.02883
36.40165,-0.02217
36.16058,-0.02725
35.91951,-0.03611
35.67844,-0.03923
35.43737,-0.03154
35.19630,-0.01728
34.95523,-0.00786
34.71416,-0.01402
34.47309,-0.03642
34.23202,-0.05872
33.99095,-0.05952
33.74988,-0.03659
33.50881,-0.00779
33.26774,0.01171
33.02667,0.02584
32.78560,0.05220
32.54453,0.08848
32.30345,0.10389
32.06238,0.08582
31.82131,0.05520
31.58024,0.03443
31.33917,0.02481
31.09810,0.02001
30.85703,0.01899
30.61596,0.01580
30.37489,0.00140
30.13382,-0.02617
29.89275,-0.05802
29.65168,-0.07703
29.41061,-0.06786
29.16954,-0.03422
28.92847,0.00489
28.68740,0.04510
28.44633,0.07931
28.20526,0.08983
27.96418,0.07975
27.72311,0.07745
27.48204,0.10285
27.24097,0.14060
26.99990,0.14532
26.75883,0.09936
26.51776,0.04092
26.27669,0.01657
26.03562,0.03116
25.79455,0.05123
25.55348,0.04952
25.31241,0.04234
25.07134,0.06524
24.83027,0.12306
24.58920,0.19554
24.34813,0.25011
24.10706,0.25717
23.86599,0.22914
23.62491,0.22671
23.38384,0.28703
23.14277,0.35718
22.90170,0.38615
22.66063,0.38105
22.41956,0.35330
22.17849,0.31063
21.93742,0.24522
21.69635,0.19662
21.45528,0.24136
21.21421,0.37200
20.97314,0.47673
20.73207,0.44981
20.49100,0.37402
20.24993,0.35482
20.00886,0.35783
19.76779,0.33134
19.52672,0.32046
19.28564,0.39872
19.04457,0.54966
18.80350,0.62653
18.56243,0.59848
18.32136,0.61599
18.08029,0.63638
17.83922,0.60066
17.59815,0.59607
17.35708,0.61895
17.11601,0.72518
16.87494,0.95595
16.63387,0.99805
16.39280,0.89468
16.15173,0.90151
15.91066,0.64528
15.66959,0.50041
15.42852,0.57063
15.18745,0.85063
14.94637,1.00118
14.70530,0.67686
14.46423,0.50399
14.22316,0.44605
13.98209,0.44963
13.74102,0.52758
13.49995,0.55224
13.25888,0.66380
13.01781,0.76880
12.77674,0.79164
12.53567,0.59363
12.29460,0.49283
12.05353,0.56111
11.81246,0.75651
11.57139,0.78777
11.33032,0.67363
11.08925,0.57938
10.84818,0.56090
10.60710,0.68986
10.36603,0.83253
10.12496,0.74881
9.88389,0.73131
9.64282,0.77897
9.40175,0.77406
9.16068,0.76816
8.91961,0.85105
8.67854,0.98201
8.43747,0.94208
8.19640,0.74962
7.95533,0.52747
7.71426,0.43901
7.47319,0.46611
7.23212,0.52275
6.99105,0.58180
6.74998,0.65866
6.50891,0.71701
6.26783,0.90613
6.02676,1.20143
5.78569,0.84826
5.54462,0.69735
5.30355,0.69705
5.06248,0.62896
4.82141,0.56333
4.58034,0.60442
4.33927,0.64501
4.09820,0.64510
3.85713,0.62652
3.61606,0.69643
3.37499,0.99211
3.13392,1.24199
2.89285,0.86796
2.65178,0.72671
2.41071,0.79611
2.16964,0.73060
1.92856,0.57262
1.68749,0.62405
1.44642,0.87560
1.20535,1.03108
0.96428,1.04176
0.72321,1.06903
0.48214,0.84788
0.24107,0.75548
-0.00000,0.78976
