399.69498,1.80193
399.45391,1.80640
399.21284,1.83591
398.97177,1.89706
398.73070,1.94381
398.48963,1.91455
398.24856,1.84848
398.00749,1.82521
397.76642,1.86448
397.52535,1.92351
397.28428,1.93172
397.04321,1.86939
396.80214,1.79192
396.56107,1.76242
396.32000,1.81117
396.07892,1.92075
395.83785,1.99791
395.59678,2.01007
395.35571,2.01785
395.11464,2.02075
394.87357,2.03676
394.63250,2.02633
394.39143,1.95174
394.15036,1.94700
393.90929,2.02491
393.66822,1.97125
393.42715,1.91934
393.18608,1.93872
392.94501,1.99272
392.70394,2.09030
392.46287,2.17681
392.22180,2.09342
391.98073,1.97423
391.73965,1.92596
391.49858,1.96148
391.25751,2.04457
391.01644,2.09633
390.77537,2.18200
390.53430,2.21384
390.29323,2.06238
390.05216,2.00986
389.81109,2.04769
389.57002,2.18151
389.32895,2.21505
389.08788,2.17304
388.84681,2.06707
388.60574,1.99984
388.36467,2.10563
388.12360,2.29854
387.88253,2.08466
387.64146,1.98564
387.40038,2.01264
387.15931,2.01093
386.91824,1.92604
386.67717,1.88738
386.43610,2.04076
386.19503,2.28460
385.95396,2.29039
385.71289,2.40608
385.47182,2.49828
385.23075,2.17986
384.98968,2.03229
384.74861,2.08156
384.50754,2.14031
384.26647,2.03831
384.02540,1.97073
383.78433,1.94335
383.54326,1.88425
383.30219,1.93647
383.06111,2.05709
382.82004,1.96083
382.57897,1.84136
382.33790,1.80078
382.09683,1.77984
381.85576,1.88472
381.61469,2.02417
381.37362,1.97150
381.13255,1.93001
380.89148,1.97548
380.65041,1.99312
380.40934,1.96450
380.16827,2.07526
379.92720,2.16025
379.68613,2.06099
379.44506,2.04580
379.20399,2.06093
378.96292,2.02608
378.72184,2.00737
378.48077,2.04712
378.23970,2.10736
377.99863,2.04606
377.75756,1.94816
377.51649,1.91690
377.27542,1.99689
377.03435,2.22448
376.79328,2.39488
376.55221,2.10536
376.31114,2.03307
376.07007,2.06054
375.82900,2.06449
375.58793,2.01988
375.34686,2.01803
375.10579,2.08438
374.86472,2.10628
374.62365,2.09500
374.38257,2.20631
374.14150,2.24884
373.90043,2.03501
373.65936,1.90397
373.41829,1.86936
373.17722,1.88964
372.93615,1.90922
372.69508,1.85353
372.45401,1.77967
372.21294,1.73571
371.97187,1.71172
371.73080,1.69738
371.48973,1.69962
371.24866,1.70195
371.00759,1.69040
370.76652,1.68014
370.52545,1.66829
370.28437,1.62872
370.04330,1.57283
369.80223,1.53998
369.56116,1.53710
369.32009,1.54481
369.07902,1.55767
368.83795,1.58347
368.59688,1.60996
368.35581,1.60598
368.11474,1.56820
367.87367,1.53084
367.63260,1.52055
367.39153,1.52732
367.15046,1.51725
366.90939,1.48594
366.66832,1.46456
366.42725,1.46252
366.18618,1.46071
365.94510,1.44793
365.70403,1.43467
365.46296,1.42937
365.22189,1.43013
364.98082,1.43811
364.73975,1.45606
364.49868,1.48265
364.25761,1.50002
364.01654,1.48637
363.77547,1.45367
363.53440,1.43717
363.29333,1.44749
363.05226,1.46115
362.81119,1.45197
362.57012,1.42059
362.32905,1.38723
362.08798,1.36469
361.84691,1.34990
361.60583,1.34353
361.36476,1.35696
361.12369,1.39341
360.88262,1.43704
360.64155,1.46496
360.40048,1.46359
360.15941,1.42981
359.91834,1.38066
359.67727,1.34901
359.43620,1.35258
359.19513,1.37308
358.95406,1.37510
358.71299,1.35981
358.47192,1.36289
358.23085,1.39268
357.98978,1.41456
357.74871,1.40922
357.50764,1.39675
357.26656,1.39024
357.02549,1.38374
356.78442,1.37544
356.54335,1.37315
356.30228,1.37784
356.06121,1.38060
355.82014,1.37349
355.57907,1.36008
355.33800,1.35186
355.09693,1.35271
354.85586,1.35876
354.61479,1.36340
354.37372,1.35600
354.13265,1.33329
353.89158,1.30830
353.65051,1.29504
353.40944,1.29607
353.16837,1.30822
352.92729,1.32810
352.68622,1.34917
352.44515,1.36069
352.20408,1.35673
351.96301,1.34782
351.72194,1.35528
351.48087,1.38988
351.23980,1.44102
350.99873,1.48518
350.75766,1.49753
350.51659,1.46418
350.27552,1.40893
350.03445,1.37787
349.79338,1.39020
349.55231,1.42748
349.31124,1.45519
349.07017,1.45791
348.82910,1.44948
348.58802,1.44525
348.34695,1.44500
348.10588,1.44061
347.86481,1.43160
347.62374,1.42562
347.38267,1.42226
347.14160,1.41846
346.90053,1.41397
346.65946,1.40340
346.41839,1.38461
346.17732,1.36691
345.93625,1.36812
345.69518,1.40112
345.45411,1.45738
345.21304,1.50973
344.97197,1.53916
344.73090,1.54571
344.48983,1.54090
344.24875,1.53905
344.00768,1.54692
343.76661,1.56078
343.52554,1.57486
343.28447,1.58971
343.04340,1.61056
342.80233,1.63728
342.56126,1.65667
342.32019,1.65043
342.07912,1.61579
341.83805,1.58430
341.59698,1.58623
341.35591,1.62994
341.11484,1.70990
340.87377,1.77856
340.63270,1.76346
340.39163,1.71869
340.15056,1.71164
339.90948,1.73131
339.66841,1.73091
339.42734,1.72251
339.18627,1.75202
338.94520,1.81668
338.70413,1.85992
338.46306,1.84278
338.22199,1.79766
337.98092,1.78626
337.73985,1.85441
337.49878,1.99264
337.25771,2.08748
337.01664,2.06633
336.77557,2.00969
336.53450,1.95079
336.29343,1.92972
336.05236,1.94159
335.81129,1.94279
335.57021,1.92723
335.32914,1.93572
335.08807,1.98172
334.84700,1.95921
334.60593,1.90775
334.36486,1.84395
334.12379,1.75793
333.88272,1.68726
333.64165,1.66505
333.40058,1.69690
333.15951,1.76831
332.91844,1.85652
332.67737,1.96969
332.43630,2.03890
332.19523,1.93446
331.95416,1.83266
331.71309,1.82396
331.47202,1.85357
331.23094,1.82633
330.98987,1.73152
330.74880,1.62942
330.50773,1.57495
330.26666,1.57498
330.02559,1.60026
329.78452,1.62596
329.54345,1.65524
329.30238,1.69160
329.06131,1.71580
328.82024,1.71412
328.57917,1.70371
328.33810,1.70399
328.09703,1.71787
327.85596,1.73288
327.61489,1.72061
327.37382,1.68179
327.13275,1.65145
326.89167,1.64365
326.65060,1.65796
326.40953,1.70980
326.16846,1.81593
325.92739,1.91350
325.68632,1.89401
325.44525,1.81553
325.20418,1.83026
324.96311,1.88020
324.72204,1.89229
324.48097,1.88537
324.23990,1.90232
323.99883,1.90791
323.75776,1.88423
323.51669,1.83480
323.27562,1.74914
323.03455,1.69883
322.79348,1.75711
322.55240,1.98045
322.31133,2.30800
322.07026,2.23958
321.82919,1.97202
321.58812,1.82143
321.34705,1.77931
321.10598,1.77993
320.86491,1.77559
320.62384,1.77231
320.38277,1.83251
320.14170,2.00434
319.90063,2.22144
319.65956,2.29835
319.41849,2.13942
319.17742,1.99954
318.93635,1.95619
318.69528,1.97687
318.45421,2.02304
318.21313,2.07067
317.97206,2.05750
317.73099,2.02388
317.48992,2.01623
317.24885,2.02974
317.00778,1.97752
316.76671,1.91351
316.52564,1.91404
316.28457,1.92930
316.04350,1.91768
315.80243,1.97524
315.56136,2.00216
315.32029,2.01203
315.07922,1.98617
314.83815,1.97750
314.59708,2.01151
314.35601,1.96884
314.11494,1.89626
313.87386,1.94517
313.63279,2.02017
313.39172,2.00306
313.15065,1.96777
312.90958,1.95372
312.66851,1.92295
312.42744,1.88317
312.18637,1.88400
311.94530,1.96047
311.70423,2.13079
311.46316,2.37118
311.22209,2.41833
310.98102,2.17324
310.73995,2.01004
310.49888,1.93910
310.25781,1.87414
310.01674,1.88311
309.77567,1.94222
309.53459,1.99853
309.29352,2.07136
309.05245,2.15199
308.81138,2.21505
308.57031,2.27608
308.32924,2.35395
308.08817,2.30950
307.84710,2.17601
307.60603,2.13375
307.36496,2.16104
307.12389,2.04734
306.88282,1.90518
306.64175,1.83039
306.40068,1.81510
306.15961,1.82382
305.91854,1.80885
305.67747,1.76184
305.43640,1.71471
305.19532,1.68827
304.95425,1.68428
304.71318,1.69384
304.47211,1.69817
304.23104,1.68654
303.98997,1.65400
303.74890,1.60584
303.50783,1.55484
303.26676,1.50175
303.02569,1.44715
302.78462,1.40520
302.54355,1.38625
302.30248,1.38286
302.06141,1.38183
301.82034,1.37904
301.57927,1.37563
301.33820,1.37379
301.09713,1.37220
300.85605,1.36464
300.61498,1.34989
300.37391,1.33129
300.13284,1.31298
299.89177,1.30115
299.65070,1.30051
299.40963,1.30623
299.16856,1.30848
298.92749,1.29728
298.68642,1.27153
298.44535,1.24581
298.20428,1.23468
297.96321,1.23837
297.72214,1.24416
297.48107,1.24115
297.24000,1.22948
296.99893,1.21460
296.75786,1.20103
296.51678,1.19274
296.27571,1.19373
296.03464,1.20135
295.79357,1.20573
295.55250,1.20206
295.31143,1.19499
295.07036,1.18793
294.82929,1.17917
294.58822,1.16997
294.34715,1.16618
294.10608,1.16833
293.86501,1.16708
293.62394,1.15536
293.38287,1.13951
293.14180,1.12969
292.90073,1.12444
292.65966,1.11447
292.41859,1.09926
292.17751,1.08739
291.93644,1.08529
291.69537,1.09362
291.45430,1.10669
291.21323,1.11487
290.97216,1.11347
290.73109,1.10708
290.49002,1.10202
290.24895,1.09904
290.00788,1.09417
289.76681,1.08421
289.52574,1.07072
289.28467,1.05846
289.04360,1.05157
288.80253,1.05261
288.56146,1.06117
288.32039,1.07061
288.07932,1.07217
287.83824,1.06726
287.59717,1.06377
287.35610,1.06178
287.11503,1.05577
286.87396,1.04652
286.63289,1.04070
286.39182,1.03966
286.15075,1.03809
285.90968,1.03365
285.66861,1.03079
285.42754,1.03467
285.18647,1.04474
284.94540,1.05432
284.70433,1.05622
284.46326,1.05063
284.22219,1.04541
283.98112,1.04653
283.74005,1.05190
283.49897,1.05406
283.25790,1.04750
283.01683,1.03409
282.77576,1.02225
282.53469,1.02059
282.29362,1.03127
282.05255,1.04737
281.81148,1.05698
281.57041,1.05426
281.32934,1.04482
281.08827,1.03675
280.84720,1.03200
280.60613,1.02870
280.36506,1.02593
280.12399,1.02438
279.88292,1.02602
279.64185,1.03189
279.40078,1.03841
279.15970,1.03938
278.91863,1.03327
278.67756,1.02483
278.43649,1.01825
278.19542,1.01314
277.95435,1.00931
277.71328,1.00892
277.47221,1.01203
277.23114,1.01663
276.99007,1.02218
276.74900,1.02884
276.50793,1.03474
276.26686,1.03785
276.02579,1.03954
275.78472,1.04130
275.54365,1.03925
275.30258,1.02997
275.06151,1.01894
274.82043,1.01558
274.57936,1.02234
274.33829,1.03288
274.09722,1.04036
273.85615,1.04533
273.61508,1.05309
273.37401,1.06338
273.13294,1.06741
272.89187,1.05964
272.65080,1.04681
272.40973,1.03856
272.16866,1.03667
271.92759,1.03841
271.68652,1.04297
271.44545,1.04926
271.20438,1.05375
270.96331,1.05501
270.72224,1.05523
270.48116,1.05606
270.24009,1.05788
269.99902,1.06129
269.75795,1.06571
269.51688,1.06901
269.27581,1.06962
269.03474,1.06724
268.79367,1.06292
268.55260,1.06070
268.31153,1.06513
268.07046,1.07751
267.82939,1.09505
267.58832,1.11059
267.34725,1.11791
267.10618,1.11992
266.86511,1.12486
266.62404,1.13586
266.38297,1.14838
266.14189,1.15487
265.90082,1.15165
265.65975,1.14380
265.41868,1.14044
265.17761,1.14465
264.93654,1.15451
264.69547,1.17082
264.45440,1.19330
264.21333,1.21368
263.97226,1.22357
263.73119,1.22499
263.49012,1.22546
263.24905,1.22869
263.00798,1.23429
262.76691,1.24134
262.52584,1.24896
262.28477,1.25622
262.04370,1.26496
261.80262,1.27737
261.56155,1.29171
261.32048,1.30294
261.07941,1.30879
260.83834,1.31641
260.59727,1.33402
260.35620,1.35935
260.11513,1.38219
259.87406,1.39466
259.63299,1.39853
259.39192,1.40129
259.15085,1.40760
258.90978,1.42211
258.66871,1.44931
258.42764,1.48585
258.18657,1.52319
257.94550,1.55672
257.70443,1.58680
257.46335,1.60909
257.22228,1.61691
256.98121,1.61000
256.74014,1.59471
256.49907,1.58794
256.25800,1.60891
256.01693,1.65821
255.77586,1.71984
255.53479,1.79643
255.29372,1.89923
255.05265,1.98861
254.81158,2.00154
254.57051,1.95632
254.32944,1.93395
254.08837,1.97746
253.84730,2.06573
253.60623,2.12913
253.36516,2.15331
253.12408,2.23045
252.88301,2.37935
252.64194,2.41688
252.40087,2.26386
252.15980,2.21365
251.91873,2.30650
251.67766,2.39239
251.43659,2.43007
251.19552,2.30591
250.95445,2.24004
250.71338,2.22544
250.47231,2.24248
250.23124,2.36869
249.99017,2.52881
249.74910,2.61026
249.50803,2.74557
249.26696,2.77022
249.02589,2.48702
248.78481,2.31190
248.54374,2.34638
248.30267,2.44944
248.06160,2.39744
247.82053,2.32419
247.57946,2.27716
247.33839,2.17375
247.09732,2.08318
246.85625,2.12169
246.61518,2.26868
246.37411,2.34348
246.13304,2.24343
245.89197,2.19085
245.65090,2.15597
245.40983,2.07289
245.16876,1.99162
244.92769,1.97940
244.68661,1.98973
244.44554,1.95755
244.20447,1.91058
243.96340,1.88440
243.72233,1.84802
243.48126,1.76749
243.24019,1.64392
242.99912,1.53141
242.75805,1.45143
242.51698,1.39160
242.27591,1.34576
242.03484,1.31080
241.79377,1.27903
241.55270,1.24598
241.31163,1.21392
241.07056,1.18117
240.82949,1.14079
240.58842,1.09416
240.34734,1.04935
240.10627,1.01214
239.86520,0.98452
239.62413,0.96473
239.38306,0.94787
239.14199,0.92970
238.90092,0.91024
238.65985,0.89311
238.41878,0.88149
238.17771,0.87407
237.93664,0.86520
237.69557,0.85078
237.45450,0.83336
237.21343,0.81881
236.97236,0.80863
236.73129,0.79839
236.49022,0.78442
236.24915,0.76888
236.00807,0.75657
235.76700,0.74897
235.52593,0.74347
235.28486,0.73783
235.04379,0.73296
234.80272,0.72965
234.56165,0.72592
234.32058,0.72025
234.07951,0.71488
233.83844,0.71340
233.59737,0.71631
233.35630,0.72022
233.11523,0.72078
232.87416,0.71613
232.63309,0.70793
232.39202,0.69930
232.15095,0.69267
231.90988,0.68939
231.66880,0.68963
231.42773,0.69189
231.18666,0.69334
230.94559,0.69144
230.70452,0.68581
230.46345,0.67868
230.22238,0.67363
229.98131,0.67303
229.74024,0.67648
229.49917,0.68225
229.25810,0.68857
229.01703,0.69292
228.77596,0.69266
228.53489,0.68791
228.29382,0.68192
228.05275,0.67754
227.81168,0.67530
227.57061,0.67451
227.32953,0.67392
227.08846,0.67190
226.84739,0.66882
226.60632,0.66802
226.36525,0.67191
226.12418,0.67832
225.88311,0.68284
225.64204,0.68360
225.40097,0.68216
225.15990,0.68072
224.91883,0.68074
224.67776,0.68337
224.43669,0.68862
224.19562,0.69440
223.95455,0.69851
223.71348,0.70175
223.47241,0.70741
223.23134,0.71720
222.99026,0.72881
222.74919,0.73758
222.50812,0.74091
222.26705,0.74086
222.02598,0.74136
221.78491,0.74360
221.54384,0.74596
221.30277,0.74787
221.06170,0.75150
220.82063,0.75889
220.57956,0.76893
220.33849,0.77867
220.09742,0.78648
219.85635,0.79267
219.61528,0.79855
219.37421,0.80620
219.13314,0.81686
218.89207,0.82887
218.65099,0.83977
218.40992,0.84976
218.16885,0.86035
217.92778,0.87131
217.68671,0.88150
217.44564,0.89042
217.20457,0.89763
216.96350,0.90383
216.72243,0.91219
216.48136,0.92429
216.24029,0.93671
215.99922,0.94586
215.75815,0.95396
215.51708,0.96574
215.27601,0.98207
215.03494,1.00007
214.79387,1.01821
214.55280,1.03753
214.31172,1.05805
214.07065,1.07551
213.82958,1.08308
213.58851,1.07998
213.34744,1.07501
213.10637,1.07654
212.86530,1.08423
212.62423,1.09412
212.38316,1.10570
212.14209,1.11975
211.90102,1.13218
211.65995,1.13544
211.41888,1.12781
211.17781,1.11747
210.93674,1.11492
210.69567,1.12244
210.45460,1.13227
210.21353,1.13613
209.97245,1.13440
209.73138,1.13297
209.49031,1.13491
209.24924,1.13856
209.00817,1.14082
208.76710,1.13886
208.52603,1.13055
208.28496,1.11759
208.04389,1.10558
207.80282,1.09884
207.56175,1.09579
207.32068,1.09193
207.07961,1.08670
206.83854,1.08167
206.59747,1.07501
206.35640,1.06471
206.11533,1.05366
205.87426,1.04600
205.63318,1.04203
205.39211,1.03913
205.15104,1.03343
204.90997,1.02071
204.66890,1.00042
204.42783,0.97828
204.18676,0.96038
203.94569,0.94630
203.70462,0.93186
203.46355,0.91667
203.22248,0.90422
202.98141,0.89482
202.74034,0.88393
202.49927,0.86918
202.25820,0.85473
202.01713,0.84626
201.77606,0.84399
201.53499,0.84173
201.29391,0.83254
201.05284,0.81545
200.81177,0.79513
200.57070,0.77596
200.32963,0.75917
200.08856,0.74493
199.84749,0.73383
199.60642,0.72587
199.36535,0.71977
199.12428,0.71393
198.88321,0.70726
198.64214,0.69950
198.40107,0.69072
198.16000,0.68091
197.91893,0.67033
197.67786,0.65978
197.43679,0.65047
197.19572,0.64295
196.95464,0.63567
196.71357,0.62638
196.47250,0.61577
196.23143,0.60685
195.99036,0.60007
195.74929,0.59246
195.50822,0.58271
195.26715,0.57340
195.02608,0.56701
194.78501,0.56273
194.54394,0.55837
194.30287,0.55356
194.06180,0.54947
193.82073,0.54609
193.57966,0.54196
193.33859,0.53690
193.09752,0.53242
192.85645,0.52883
192.61537,0.52462
192.37430,0.51934
192.13323,0.51427
191.89216,0.50985
191.65109,0.50548
191.41002,0.50163
191.16895,0.49935
190.92788,0.49817
190.68681,0.49701
190.44574,0.49609
190.20467,0.49556
189.96360,0.49391
189.72253,0.48993
189.48146,0.48493
189.24039,0.48119
188.99932,0.47952
188.75825,0.47910
188.51718,0.47841
188.27610,0.47656
188.03503,0.47414
187.79396,0.47224
187.55289,0.47109
187.31182,0.47060
187.07075,0.47111
186.82968,0.47232
186.58861,0.47255
186.34754,0.47050
186.10647,0.46711
185.86540,0.46466
185.62433,0.46441
185.38326,0.46534
185.14219,0.46516
184.90112,0.46332
184.66005,0.46223
184.41898,0.46453
184.17791,0.47000
183.93683,0.47600
183.69576,0.48017
183.45469,0.48178
183.21362,0.48167
182.97255,0.48171
182.73148,0.48340
182.49041,0.48656
182.24934,0.48964
182.00827,0.49094
181.76720,0.48979
181.52613,0.48742
181.28506,0.48671
181.04399,0.49019
180.80292,0.49741
180.56185,0.50468
180.32078,0.50839
180.07971,0.50872
179.83864,0.50936
179.59756,0.51359
179.35649,0.52103
179.11542,0.52810
178.87435,0.53198
178.63328,0.53382
178.39221,0.53742
178.15114,0.54536
177.91007,0.55763
177.66900,0.57252
177.42793,0.58764
177.18686,0.60099
176.94579,0.61243
176.70472,0.62256
176.46365,0.63119
176.22258,0.63910
175.98151,0.64998
175.74044,0.66775
175.49937,0.69231
175.25829,0.71908
175.01722,0.74288
174.77615,0.76244
174.53508,0.78134
174.29401,0.80365
174.05294,0.82895
173.81187,0.85192
173.57080,0.86722
173.32973,0.87462
173.08866,0.87842
172.84759,0.88116
172.60652,0.88262
172.36545,0.88482
172.12438,0.89108
171.88331,0.90137
171.64224,0.91167
171.40117,0.91654
171.16010,0.91305
170.91902,0.90455
170.67795,0.89739
170.43688,0.89314
170.19581,0.88818
169.95474,0.87963
169.71367,0.86837
169.47260,0.85782
169.23153,0.85082
168.99046,0.84680
168.74939,0.84310
168.50832,0.83886
168.26725,0.83520
168.02618,0.83257
167.78511,0.83051
167.54404,0.82895
167.30297,0.82865
167.06190,0.83004
166.82083,0.83203
166.57975,0.83366
166.33868,0.83653
166.09761,0.84330
165.85654,0.85447
165.61547,0.86864
165.37440,0.88372
165.13333,0.89583
164.89226,0.90093
164.65119,0.90099
164.41012,0.90366
164.16905,0.91274
163.92798,0.92443
163.68691,0.93306
163.44584,0.93757
163.20477,0.94257
162.96370,0.95337
162.72263,0.96894
162.48156,0.98244
162.24048,0.98988
161.99941,0.99387
161.75834,0.99826
161.51727,1.00483
161.27620,1.01246
161.03513,1.01562
160.79406,1.00910
160.55299,0.99619
160.31192,0.98576
160.07085,0.98173
159.82978,0.98086
159.58871,0.97748
159.34764,0.96692
159.10657,0.94888
158.86550,0.93105
158.62443,0.92506
158.38336,0.93503
158.14229,0.95149
157.90121,0.95968
157.66014,0.95500
157.41907,0.94462
157.17800,0.93478
156.93693,0.92543
156.69586,0.91593
156.45479,0.90869
156.21372,0.90540
155.97265,0.90359
155.73158,0.89983
155.49051,0.89441
155.24944,0.88919
155.00837,0.88263
154.76730,0.87208
154.52623,0.85909
154.28516,0.84690
154.04409,0.83436
153.80302,0.81790
153.56194,0.79743
153.32087,0.77689
153.07980,0.76099
152.83873,0.75118
152.59766,0.74328
152.35659,0.73066
152.11552,0.71116
151.87445,0.68862
151.63338,0.66754
151.39231,0.64919
151.15124,0.63256
150.91017,0.61673
150.66910,0.60197
150.42803,0.58873
150.18696,0.57616
149.94589,0.56299
149.70482,0.54929
149.46375,0.53603
149.22267,0.52360
148.98160,0.51217
148.74053,0.50270
148.49946,0.49611
148.25839,0.49189
148.01732,0.48852
147.77625,0.48535
147.53518,0.48323
147.29411,0.48309
147.05304,0.48448
146.81197,0.48558
146.57090,0.48494
146.32983,0.48314
146.08876,0.48226
145.84769,0.48396
145.60662,0.48845
145.36555,0.49475
145.12448,0.50105
144.88340,0.50590
144.64233,0.51011
144.40126,0.51599
144.16019,0.52384
143.91912,0.53080
143.67805,0.53306
143.43698,0.52880
143.19591,0.51963
142.95484,0.50934
142.71377,0.50059
142.47270,0.49290
142.23163,0.48467
141.99056,0.47590
141.74949,0.46762
141.50842,0.46035
141.26735,0.45452
141.02628,0.45070
140.78521,0.44805
140.54413,0.44423
140.30306,0.43868
140.06199,0.43430
139.82092,0.43440
139.57985,0.43960
139.33878,0.44847
139.09771,0.45867
138.85664,0.46755
138.61557,0.47421
138.37450,0.48087
138.13343,0.49013
137.89236,0.50215
137.65129,0.51573
137.41022,0.53028
137.16915,0.54545
136.92808,0.56048
136.68701,0.57527
136.44594,0.59090
136.20486,0.60878
135.96379,0.63045
135.72272,0.65772
135.48165,0.69055
135.24058,0.72469
134.99951,0.75480
134.75844,0.78078
134.51737,0.80658
134.27630,0.83299
134.03523,0.85694
133.79416,0.87743
133.55309,0.89730
133.31202,0.91949
133.07095,0.94443
132.82988,0.96817
132.58881,0.98221
132.34774,0.98267
132.10667,0.97896
131.86559,0.98295
131.62452,0.99233
131.38345,0.99246
131.14238,0.97339
130.90131,0.93981
130.66024,0.90448
130.41917,0.87586
130.17810,0.85356
129.93703,0.83308
129.69596,0.81022
129.45489,0.78189
129.21382,0.74696
128.97275,0.70848
128.73168,0.67213
128.49061,0.64107
128.24954,0.61478
128.00847,0.59106
127.76740,0.56668
127.52632,0.54000
127.28525,0.51418
127.04418,0.49407
126.80311,0.48043
126.56204,0.46945
126.32097,0.45704
126.07990,0.44214
125.83883,0.42694
125.59776,0.41391
125.35669,0.40266
125.11562,0.39103
124.87455,0.37899
124.63348,0.36877
124.39241,0.36147
124.15134,0.35591
123.91027,0.35022
123.66920,0.34379
123.42812,0.33797
123.18705,0.33475
122.94598,0.33431
122.70491,0.33511
122.46384,0.33592
122.22277,0.33700
121.98170,0.33923
121.74063,0.34261
121.49956,0.34612
121.25849,0.34986
121.01742,0.35596
120.77635,0.36560
120.53528,0.37634
120.29421,0.38477
120.05314,0.39167
119.81207,0.40168
119.57100,0.41784
119.32993,0.43869
119.08885,0.46124
118.84778,0.48540
118.60671,0.51355
118.36564,0.54567
118.12457,0.57700
117.88350,0.60230
117.64243,0.62077
117.40136,0.63488
117.16029,0.64536
116.91922,0.65134
116.67815,0.65428
116.43708,0.65554
116.19601,0.65268
115.95494,0.64267
115.71387,0.62683
115.47280,0.61046
115.23173,0.59747
114.99066,0.58723
114.74958,0.57620
114.50851,0.56262
114.26744,0.54920
114.02637,0.54066
113.78530,0.53929
113.54423,0.54332
113.30316,0.54852
113.06209,0.55116
112.82102,0.55077
112.57995,0.54934
112.33888,0.54862
112.09781,0.54999
111.85674,0.55519
111.61567,0.56390
111.37460,0.57231
111.13353,0.57743
110.89246,0.58105
110.65139,0.58654
110.41031,0.59326
110.16924,0.59658
109.92817,0.59221
109.68710,0.57945
109.44603,0.56067
109.20496,0.53804
108.96389,0.51258
108.72282,0.48715
108.48175,0.46629
108.24068,0.45085
107.99961,0.43659
107.75854,0.41950
107.51747,0.39986
107.27640,0.38031
107.03533,0.36292
106.79426,0.34857
106.55319,0.33717
106.31212,0.32814
106.07104,0.32060
105.82997,0.31284
105.58890,0.30279
105.34783,0.29077
105.10676,0.28047
104.86569,0.27486
104.62462,0.27193
104.38355,0.26659
104.14248,0.25670
103.90141,0.24500
103.66034,0.23511
103.41927,0.22813
103.17820,0.22378
102.93713,0.22189
102.69606,0.22151
102.45499,0.22078
102.21392,0.21906
101.97285,0.21743
101.73177,0.21597
101.49070,0.21293
101.24963,0.20768
101.00856,0.20187
100.76749,0.19672
100.52642,0.19150
100.28535,0.18567
100.04428,0.18042
99.80321,0.17712
99.56214,0.17570
99.32107,0.17546
99.08000,0.17611
98.83893,0.17761
98.59786,0.17941
98.35679,0.18055
98.11572,0.18084
97.87465,0.18107
97.63358,0.18139
97.39250,0.18091
97.15143,0.18023
96.91036,0.18206
96.66929,0.18792
96.42822,0.19615
96.18715,0.20443
95.94608,0.21243
95.70501,0.22060
95.46394,0.22827
95.22287,0.23447
94.98180,0.23992
94.74073,0.24606
94.49966,0.25225
94.25859,0.25619
94.01752,0.25714
93.77645,0.25624
93.53538,0.25458
93.29431,0.25312
93.05323,0.25331
92.81216,0.25534
92.57109,0.25708
92.33002,0.25670
92.08895,0.25524
91.84788,0.25533
91.60681,0.25899
91.36574,0.26732
91.12467,0.28047
90.88360,0.29766
90.64253,0.31884
90.40146,0.34610
90.16039,0.38104
89.91932,0.42107
89.67825,0.46110
89.43718,0.49871
89.19611,0.53366
88.95504,0.56218
88.71396,0.57671
88.47289,0.57292
88.23182,0.55346
87.99075,0.52385
87.74968,0.48886
87.50861,0.45243
87.26754,0.41810
87.02647,0.38779
86.78540,0.36015
86.54433,0.33186
86.30326,0.30147
86.06219,0.27144
85.82112,0.24546
85.58005,0.22483
85.33898,0.20836
85.09791,0.19466
84.85684,0.18295
84.61577,0.17239
84.37469,0.16245
84.13362,0.15377
83.89255,0.14684
83.65148,0.14066
83.41041,0.13409
83.16934,0.12782
82.92827,0.12363
82.68720,0.12201
82.44613,0.12120
82.20506,0.11875
81.96399,0.11411
81.72292,0.10961
81.48185,0.10786
81.24078,0.10876
80.99971,0.11017
80.75864,0.11085
80.51757,0.11098
80.27650,0.11015
80.03542,0.10726
79.79435,0.10275
79.55328,0.09884
79.31221,0.09706
79.07114,0.09672
78.83007,0.09620
78.58900,0.09483
78.34793,0.09333
78.10686,0.09258
77.86579,0.09220
77.62472,0.09050
77.38365,0.08625
77.14258,0.08041
76.90151,0.07596
76.66044,0.07527
76.41937,0.07767
76.17830,0.08036
75.93723,0.08133
75.69615,0.08052
75.45508,0.07872
75.21401,0.07677
74.97294,0.07514
74.73187,0.07376
74.49080,0.07248
74.24973,0.07161
74.00866,0.07161
73.76759,0.07279
73.52652,0.07481
73.28545,0.07625
73.04438,0.07601
72.80331,0.07477
72.56224,0.07332
72.32117,0.07093
72.08010,0.06760
71.83903,0.06589
71.59796,0.06861
71.35688,0.07553
71.11581,0.08393
70.87474,0.09176
70.63367,0.09942
70.39260,0.10833
70.15153,0.11887
69.91046,0.13040
69.66939,0.14243
69.42832,0.15421
69.18725,0.16351
68.94618,0.16701
68.70511,0.16284
68.46404,0.15259
68.22297,0.14028
67.98190,0.12926
67.74083,0.12032
67.49976,0.11194
67.25869,0.10205
67.01761,0.09059
66.77654,0.08041
66.53547,0.07460
66.29440,0.07284
66.05333,0.07209
65.81226,0.07043
65.57119,0.06873
65.33012,0.06840
65.08905,0.06932
64.84798,0.07105
64.60691,0.07468
64.36584,0.08141
64.12477,0.08988
63.88370,0.09679
63.64263,0.09968
63.40156,0.09771
63.16049,0.09172
62.91942,0.08455
62.67834,0.07917
62.43727,0.07589
62.19620,0.07235
61.95513,0.06697
61.71406,0.06085
61.47299,0.05589
61.23192,0.05236
60.99085,0.04954
60.74978,0.04757
60.50871,0.04714
60.26764,0.04808
60.02657,0.04968
59.78550,0.05164
59.54443,0.05391
59.30336,0.05604
59.06229,0.05722
58.82122,0.05653
58.58015,0.05373
58.33907,0.05033
58.09800,0.04885
57.85693,0.04996
57.61586,0.05132
57.37479,0.05013
57.13372,0.04610
56.89265,0.04137
56.65158,0.03794
56.41051,0.03565
56.16944,0.03344
55.92837,0.03206
55.68730,0.03361
55.44623,0.03762
55.20516,0.04057
54.96409,0.04028
54.72302,0.03766
54.48195,0.03417
54.24088,0.03126
53.99980,0.03168
53.75873,0.03691
53.51766,0.04389
53.27659,0.04705
53.03552,0.04369
52.79445,0.03768
52.55338,0.03652
52.31231,0.04236
52.07124,0.04824
51.83017,0.04678
51.58910,0.03990
51.34803,0.03481
51.10696,0.03356
50.86589,0.03221
50.62482,0.02826
50.38375,0.02387
50.14268,0.02151
49.90161,0.02078
49.66053,0.02079
49.41946,0.02129
49.17839,0.02115
48.93732,0.01998
48.69625,0.01991
48.45518,0.02223
48.21411,0.02447
47.97304,0.02441
47.73197,0.02348
47.49090,0.02314
47.24983,0.02111
47.00876,0.01535
46.76769,0.00937
46.52662,0.00868
46.28555,0.01343
46.04448,0.01879
45.80341,0.02192
45.56234,0.02331
45.32126,0.02215
45.08019,0.01648
44.83912,0.00706
44.59805,-0.00382
44.35698,-0.01494
44.11591,-0.02407
43.87484,-0.02709
43.63377,-0.02210
43.39270,-0.01195
43.15163,-0.00181
42.91056,0.00436
42.66949,0.00761
42.42842,0.01331
42.18735,0.02219
41.94628,0.02524
41.70521,0.01587
41.46414,0.00223
41.22307,-0.00470
40.98199,-0.00661
40.74092,-0.01037
40.49985,-0.01559
40.25878,-0.01931
40.01771,-0.02339
39.77664,-0.03029
39.53557,-0.03884
39.29450,-0.04494
39.05343,-0.04203
38.81236,-0.02593
38.57129,-0.00280
38.33022,0.01437
38.08915,0.01677
37.84808,0.00419
37.60701,-0.01627
37.36594,-0.03384
37.12487,-0.03964
36.88380,-0.03226
36.64272,-0.01953
36.40165,-0.01282
36.16058,-0.01386
35.91951,-0.01128
35.67844,0.00113
35.43737,0.01052
35.19630,0.00250
34.95523,-0.01593
34.71416,-0.02680
34.47309,-0.02496
34.23202,-0.01377
33.99095,0.00464
33.74988,0.02498
33.50881,0.03433
33.26774,0.02386
33.02667,0.00430
32.78560,0.00068
32.54453,0.02786
32.30345,0.06586
32.06238,0.08203
31.82131,0.06839
31.58024,0.04129
31.33917,0.02046
31.09810,0.01286
30.85703,0.01303
30.61596,0.01367
30.37489,0.00941
30.13382,0.00104
29.89275,0.00087
29.65168,0.01480
29.41061,0.03078
29.16954,0.03465
28.92847,0.02376
28.68740,0.01106
28.44633,0.01483
28.20526,0.03547
27.96418,0.05486
27.72311,0.06773
27.48204,0.09233
27.24097,0.13424
26.99990,0.17604
26.75883,0.20002
26.51776,0.20297
26.27669,0.20432
26.03562,0.22082
25.79455,0.23362
25.55348,0.21857
25.31241,0.18448
25.07134,0.16211
24.83027,0.16960
24.58920,0.19111
24.34813,0.20315
24.10706,0.20238
23.86599,0.20076
23.62491,0.20590
23.38384,0.22781
23.14277,0.28358
22.90170,0.36155
22.66063,0.42273
22.41956,0.42533
22.17849,0.40756
21.93742,0.41779
21.69635,0.44319
21.45528,0.44179
21.21421,0.41448
20.97314,0.40421
20.73207,0.39711
20.49100,0.35247
20.24993,0.28005
20.00886,0.23163
19.76779,0.24815
19.52672,0.34238
19.28564,0.47999
19.04457,0.56415
18.80350,0.57888
18.56243,0.59186
18.32136,0.58850
18.08029,0.50264
17.83922,0.35191
17.59815,0.25220
17.35708,0.27009
17.11601,0.37531
16.87494,0.48004
16.63387,0.53249
16.39280,0.54590
16.15173,0.58230
15.91066,0.58857
15.66959,0.57651
15.42852,0.55039
15.18745,0.56226
14.94637,0.66263
14.70530,0.75728
14.46423,0.54087
14.22316,0.35378
13.98209,0.32101
13.74102,0.36077
13.49995,0.51856
13.25888,0.70736
13.01781,0.69210
12.77674,0.60230
12.53567,0.65790
12.29460,0.78942
12.05353,0.75934
11.81246,0.72566
11.57139,0.85863
11.33032,0.71996
11.08925,0.52262
10.84818,0.42615
10.60710,0.40390
10.36603,0.44740
10.12496,0.62048
9.88389,0.84352
9.64282,0.99216
9.40175,1.06770
9.16068,1.03240
8.91961,0.87529
8.67854,0.70065
8.43747,0.58892
8.19640,0.63546
7.95533,0.87379
7.71426,1.11910
7.47319,0.83669
7.23212,0.81815
6.99105,0.91842
6.74998,0.77022
6.50891,0.69190
6.26783,0.74142
6.02676,0.70377
5.78569,0.63301
5.54462,0.57633
5.30355,0.55762
5.06248,0.62928
4.82141,0.68670
4.58034,0.59912
4.33927,0.58412
4.09820,0.65201
3.85713,0.62865
3.61606,0.54354
3.37499,0.57425
3.13392,0.91447
2.89285,1.39365
2.65178,1.07308
2.41071,0.88362
2.16964,0.79687
1.92856,0.73053
1.68749,0.68074
1.44642,0.73266
1.20535,0.76223
0.96428,0.64766
0.72321,0.59827
0.48214,0.58515
0.24107,0.55246
-0.00000,0.53068
