399.69498,1.45910
399.45391,1.46861
399.21284,1.47853
398.97177,1.48121
398.73070,1.47022
398.48963,1.45063
398.24856,1.43864
398.00749,1.44625
397.76642,1.47128
397.52535,1.49950
397.28428,1.51593
397.04321,1.51784
396.80214,1.51217
396.56107,1.50516
396.32000,1.49948
396.07892,1.49496
395.83785,1.49056
395.59678,1.48624
395.35571,1.48115
395.11464,1.47237
394.87357,1.46137
394.63250,1.45698
394.39143,1.46272
394.15036,1.46960
393.90929,1.47035
393.66822,1.47204
393.42715,1.48412
393.18608,1.50147
392.94501,1.50920
392.70394,1.50423
392.46287,1.50077
392.22180,1.51058
391.98073,1.52650
391.73965,1.53050
391.49858,1.52158
391.25751,1.51877
391.01644,1.53247
390.77537,1.55087
390.53430,1.55125
390.29323,1.52677
390.05216,1.49926
389.81109,1.49012
389.57002,1.49672
389.32895,1.50524
389.08788,1.51218
388.84681,1.51653
388.60574,1.50728
388.36467,1.47914
388.12360,1.44724
387.88253,1.43233
387.64146,1.44011
387.40038,1.45733
387.15931,1.46860
386.91824,1.46510
386.67717,1.44134
386.43610,1.40106
386.19503,1.36124
385.95396,1.34161
385.71289,1.34880
385.47182,1.37587
385.23075,1.40342
384.98968,1.41234
384.74861,1.40708
384.50754,1.40375
384.26647,1.39981
384.02540,1.37928
383.78433,1.34309
383.54326,1.31072
383.30219,1.29599
383.06111,1.29842
382.82004,1.31072
382.57897,1.32554
382.33790,1.33843
382.09683,1.34728
381.85576,1.34794
381.61469,1.33655
381.37362,1.31140
381.13255,1.27686
380.89148,1.24800
380.65041,1.23460
380.40934,1.23331
380.16827,1.23907
379.92720,1.25140
379.68613,1.26589
379.44506,1.27226
379.20399,1.27059
378.96292,1.27482
378.72184,1.29415
378.48077,1.32209
378.23970,1.34702
377.99863,1.36399
377.75756,1.37149
377.51649,1.36801
377.27542,1.35652
377.03435,1.34644
376.79328,1.34671
376.55221,1.35782
376.31114,1.37280
376.07007,1.38400
375.82900,1.38542
375.58793,1.37538
375.34686,1.36116
375.10579,1.35370
374.86472,1.35799
374.62365,1.37036
374.38257,1.38162
374.14150,1.38731
373.90043,1.39200
373.65936,1.40054
373.41829,1.41055
373.17722,1.41247
372.93615,1.39790
372.69508,1.37097
372.45401,1.34537
372.21294,1.33156
371.97187,1.33066
371.73080,1.33786
371.48973,1.34856
371.24866,1.35810
371.00759,1.36076
370.76652,1.35287
370.52545,1.33659
370.28437,1.31972
370.04330,1.30833
369.80223,1.30059
369.56116,1.29019
369.32009,1.27524
369.07902,1.25995
368.83795,1.24832
368.59688,1.24024
368.35581,1.23311
368.11474,1.22495
367.87367,1.21581
367.63260,1.20825
367.39153,1.20504
367.15046,1.20389
366.90939,1.20015
366.66832,1.19664
366.42725,1.20063
366.18618,1.21067
365.94510,1.21545
365.70403,1.20805
365.46296,1.19503
365.22189,1.18646
364.98082,1.18524
364.73975,1.18879
364.49868,1.19311
364.25761,1.19355
364.01654,1.18726
363.77547,1.17782
363.53440,1.17184
363.29333,1.17058
363.05226,1.17039
362.81119,1.16990
362.57012,1.17060
362.32905,1.17197
362.08798,1.17021
361.84691,1.16212
361.60583,1.15020
361.36476,1.14175
361.12369,1.14134
360.88262,1.14697
360.64155,1.15469
360.40048,1.16225
360.15941,1.16652
359.91834,1.16364
359.67727,1.15439
359.43620,1.14426
359.19513,1.13846
358.95406,1.13901
358.71299,1.14364
358.47192,1.14759
358.23085,1.14949
357.98978,1.15275
357.74871,1.15856
357.50764,1.16272
357.26656,1.16145
357.02549,1.15632
356.78442,1.15111
356.54335,1.14791
356.30228,1.14769
356.06121,1.14974
355.82014,1.15136
355.57907,1.15057
355.33800,1.14782
355.09693,1.14414
354.85586,1.14054
354.61479,1.13993
354.37372,1.14470
354.13265,1.15186
353.89158,1.15561
353.65051,1.15329
353.40944,1.14737
353.16837,1.14332
352.92729,1.14462
352.68622,1.14964
352.44515,1.15324
352.20408,1.15222
351.96301,1.14812
351.72194,1.14475
351.48087,1.14591
351.23980,1.15439
350.99873,1.16824
350.75766,1.17823
350.51659,1.17553
350.27552,1.16327
350.03445,1.15396
349.79338,1.15570
349.55231,1.16642
349.31124,1.17826
349.07017,1.18426
348.82910,1.18314
348.58802,1.17963
348.34695,1.17837
348.10588,1.17856
347.86481,1.17739
347.62374,1.17582
347.38267,1.17632
347.14160,1.17831
346.90053,1.18095
346.65946,1.18697
346.41839,1.19838
346.17732,1.21133
345.93625,1.21939
345.69518,1.22085
345.45411,1.21979
345.21304,1.21925
344.97197,1.21751
344.73090,1.21354
344.48983,1.21170
344.24875,1.21699
344.00768,1.22821
343.76661,1.23848
343.52554,1.24213
343.28447,1.24005
343.04340,1.23846
342.80233,1.24287
342.56126,1.25384
342.32019,1.26822
342.07912,1.28225
341.83805,1.29215
341.59698,1.29528
341.35591,1.29457
341.11484,1.29652
340.87377,1.30085
340.63270,1.30072
340.39163,1.29561
340.15056,1.29469
339.90948,1.30407
339.66841,1.31908
339.42734,1.33261
339.18627,1.34525
338.94520,1.36029
338.70413,1.37375
338.46306,1.37901
338.22199,1.37785
337.98092,1.37690
337.73985,1.37696
337.49878,1.37436
337.25771,1.37017
337.01664,1.37054
336.77557,1.37793
336.53450,1.38926
336.29343,1.39922
336.05236,1.40306
335.81129,1.39965
335.57021,1.39140
335.32914,1.38009
335.08807,1.36676
334.84700,1.35715
334.60593,1.35481
334.36486,1.35253
334.12379,1.34581
333.88272,1.34309
333.64165,1.35067
333.40058,1.35939
333.15951,1.35963
332.91844,1.35578
332.67737,1.35304
332.43630,1.34887
332.19523,1.34060
331.95416,1.32789
331.71309,1.31276
331.47202,1.29826
331.23094,1.28295
330.98987,1.26467
330.74880,1.24838
330.50773,1.24338
330.26666,1.25339
330.02559,1.27030
329.78452,1.27907
329.54345,1.27335
329.30238,1.26276
329.06131,1.25978
328.82024,1.26558
328.57917,1.27313
328.33810,1.27864
328.09703,1.28194
327.85596,1.28347
327.61489,1.28473
327.37382,1.28507
327.13275,1.28296
326.89167,1.28268
326.65060,1.28885
326.40953,1.29573
326.16846,1.29754
325.92739,1.30098
325.68632,1.31271
325.44525,1.32451
325.20418,1.32248
324.96311,1.30726
324.72204,1.29043
324.48097,1.27753
324.23990,1.26804
323.99883,1.26664
323.75776,1.28046
323.51669,1.30295
323.27562,1.31357
323.03455,1.30203
322.79348,1.28025
322.55240,1.26657
322.31133,1.26896
322.07026,1.28496
321.82919,1.30974
321.58812,1.33671
321.34705,1.35716
321.10598,1.36609
320.86491,1.36368
320.62384,1.35378
320.38277,1.34521
320.14170,1.35034
319.90063,1.37123
319.65956,1.39007
319.41849,1.38596
319.17742,1.36075
318.93635,1.33344
318.69528,1.31368
318.45421,1.30069
318.21313,1.29678
317.97206,1.30132
317.73099,1.30618
317.48992,1.30551
317.24885,1.30144
317.00778,1.29742
316.76671,1.29411
316.52564,1.29413
316.28457,1.30056
316.04350,1.30982
315.80243,1.31404
315.56136,1.31080
315.32029,1.30464
315.07922,1.30595
314.83815,1.32337
314.59708,1.34724
314.35601,1.35257
314.11494,1.33142
313.87386,1.30431
313.63279,1.29025
313.39172,1.29176
313.15065,1.30625
312.90958,1.33343
312.66851,1.36729
312.42744,1.38843
312.18637,1.38260
311.94530,1.36143
311.70423,1.34654
311.46316,1.34813
311.22209,1.36134
310.98102,1.37537
310.73995,1.39087
310.49888,1.41115
310.25781,1.42204
310.01674,1.41266
309.77567,1.39763
309.53459,1.39283
309.29352,1.39352
309.05245,1.38911
308.81138,1.38150
308.57031,1.37623
308.32924,1.36918
308.08817,1.35628
307.84710,1.34768
307.60603,1.35808
307.36496,1.38622
307.12389,1.41131
306.88282,1.41455
306.64175,1.40101
306.40068,1.38939
306.15961,1.39025
305.91854,1.39674
305.67747,1.39638
305.43640,1.39233
305.19532,1.39714
304.95425,1.40821
304.71318,1.40968
304.47211,1.39624
304.23104,1.37809
303.98997,1.36568
303.74890,1.36033
303.50783,1.35380
303.26676,1.33777
303.02569,1.31800
302.78462,1.31107
302.54355,1.32531
302.30248,1.34830
302.06141,1.35704
301.82034,1.34513
301.57927,1.32722
301.33820,1.31698
301.09713,1.31190
300.85605,1.29988
300.61498,1.27877
300.37391,1.26088
300.13284,1.25762
299.89177,1.26587
299.65070,1.26838
299.40963,1.25362
299.16856,1.23190
298.92749,1.22118
298.68642,1.22467
298.44535,1.22922
298.20428,1.22323
297.96321,1.20877
297.72214,1.19344
297.48107,1.18081
297.24000,1.17250
296.99893,1.17135
296.75786,1.17671
296.51678,1.18125
296.27571,1.17795
296.03464,1.16847
295.79357,1.15950
295.55250,1.15347
295.31143,1.14896
295.07036,1.14513
294.82929,1.14262
294.58822,1.14187
294.34715,1.14147
294.10608,1.13979
293.86501,1.13706
293.62394,1.13519
293.38287,1.13454
293.14180,1.13162
292.90073,1.12314
292.65966,1.11136
292.41859,1.10307
292.17751,1.10252
291.93644,1.10747
291.69537,1.11189
291.45430,1.11121
291.21323,1.10548
290.97216,1.09834
290.73109,1.09397
290.49002,1.09500
290.24895,1.09978
290.00788,1.10228
289.76681,1.09770
289.52574,1.08785
289.28467,1.07995
289.04360,1.07918
288.80253,1.08324
288.56146,1.08483
288.32039,1.08079
288.07932,1.07556
287.83824,1.07262
287.59717,1.06934
287.35610,1.06324
287.11503,1.05686
286.87396,1.05283
286.63289,1.05045
286.39182,1.04961
286.15075,1.05144
285.90968,1.05476
285.66861,1.05700
285.42754,1.05751
285.18647,1.05670
284.94540,1.05373
284.70433,1.04833
284.46326,1.04282
284.22219,1.04016
283.98112,1.04113
283.74005,1.04467
283.49897,1.04945
283.25790,1.05401
283.01683,1.05643
282.77576,1.05550
282.53469,1.05174
282.29362,1.04706
282.05255,1.04343
281.81148,1.04176
281.57041,1.04164
281.32934,1.04192
281.08827,1.04226
280.84720,1.04327
280.60613,1.04513
280.36506,1.04723
280.12399,1.04929
279.88292,1.05150
279.64185,1.05298
279.40078,1.05198
279.15970,1.04932
278.91863,1.04819
278.67756,1.04955
278.43649,1.05098
278.19542,1.05062
277.95435,1.04940
277.71328,1.04853
277.47221,1.04837
277.23114,1.05007
276.99007,1.05405
276.74900,1.05772
276.50793,1.05920
276.26686,1.06100
276.02579,1.06463
275.78472,1.06562
275.54365,1.06032
275.30258,1.05310
275.06151,1.05065
274.82043,1.05379
274.57936,1.05872
274.33829,1.06233
274.09722,1.06357
273.85615,1.06309
273.61508,1.06335
273.37401,1.06639
273.13294,1.07146
272.89187,1.07677
272.65080,1.08212
272.40973,1.08768
272.16866,1.09212
271.92759,1.09443
271.68652,1.09586
271.44545,1.09817
271.20438,1.10110
270.96331,1.10297
270.72224,1.10323
270.48116,1.10303
270.24009,1.10325
269.99902,1.10344
269.75795,1.10346
269.51688,1.10543
269.27581,1.11223
269.03474,1.12274
268.79367,1.13091
268.55260,1.13241
268.31153,1.13000
268.07046,1.12990
267.82939,1.13579
267.58832,1.14716
267.34725,1.16048
267.10618,1.17095
266.86511,1.17590
266.62404,1.17789
266.38297,1.18232
266.14189,1.19192
265.90082,1.20533
265.65975,1.21939
265.41868,1.23151
265.17761,1.24034
264.93654,1.24576
264.69547,1.24946
264.45440,1.25524
264.21333,1.26669
263.97226,1.28393
263.73119,1.30291
263.49012,1.31797
263.24905,1.32651
263.00798,1.33117
262.76691,1.33741
262.52584,1.34987
262.28477,1.36922
262.04370,1.39075
261.80262,1.40852
261.56155,1.42370
261.32048,1.44380
261.07941,1.47367
260.83834,1.51177
260.59727,1.55050
260.35620,1.58100
260.11513,1.60503
259.87406,1.63459
259.63299,1.67264
259.39192,1.70869
259.15085,1.74081
258.90978,1.78094
258.66871,1.82614
258.42764,1.85554
258.18657,1.86113
257.94550,1.85396
257.70443,1.83635
257.46335,1.81787
257.22228,1.80437
256.98121,1.78616
256.74014,1.76512
256.49907,1.75798
256.25800,1.77282
256.01693,1.79798
255.77586,1.81743
255.53479,1.82219
255.29372,1.80360
255.05265,1.76357
254.81158,1.72665
254.57051,1.70927
254.32944,1.69761
254.08837,1.67338
253.84730,1.64178
253.60623,1.61832
253.36516,1.60823
253.12408,1.60593
252.88301,1.60409
252.64194,1.60035
252.40087,1.59543
252.15980,1.58915
251.91873,1.58226
251.67766,1.57910
251.43659,1.58275
251.19552,1.59234
250.95445,1.60519
250.71338,1.61285
250.47231,1.60661
250.23124,1.58982
249.99017,1.57265
249.74910,1.56381
249.50803,1.56431
249.26696,1.56690
249.02589,1.56482
248.78481,1.55859
248.54374,1.55384
248.30267,1.55626
248.06160,1.56789
247.82053,1.58366
247.57946,1.59222
247.33839,1.58554
247.09732,1.56797
246.85625,1.55248
246.61518,1.54957
246.37411,1.55951
246.13304,1.57404
245.89197,1.58681
245.65090,1.60253
245.40983,1.62798
245.16876,1.65621
244.92769,1.67363
244.68661,1.67982
244.44554,1.69137
244.20447,1.72420
243.96340,1.77837
243.72233,1.83578
243.48126,1.87443
243.24019,1.89430
242.99912,1.91088
242.75805,1.92502
242.51698,1.88560
242.27591,1.75697
242.03484,1.65372
241.79377,1.59000
241.55270,1.53346
241.31163,1.47017
241.07056,1.40759
240.82949,1.35042
240.58842,1.29328
240.34734,1.23441
240.10627,1.18000
239.86520,1.13550
239.62413,1.10122
239.38306,1.07356
239.14199,1.04749
238.90092,1.02000
238.65985,0.99232
238.41878,0.96810
238.17771,0.94939
237.93664,0.93528
237.69557,0.92347
237.45450,0.91159
237.21343,0.89765
236.97236,0.88163
236.73129,0.86582
236.49022,0.85202
236.24915,0.83968
236.00807,0.82820
235.76700,0.81872
235.52593,0.81239
235.28486,0.80850
235.04379,0.80577
234.80272,0.80436
234.56165,0.80498
234.32058,0.80670
234.07951,0.80724
233.83844,0.80539
233.59737,0.80105
233.35630,0.79363
233.11523,0.78347
232.87416,0.77406
232.63309,0.76911
232.39202,0.76834
232.15095,0.76862
231.90988,0.76800
231.66880,0.76651
231.42773,0.76487
231.18666,0.76445
230.94559,0.76660
230.70452,0.76993
230.46345,0.77047
230.22238,0.76689
229.98131,0.76234
229.74024,0.75929
229.49917,0.75645
229.25810,0.75263
229.01703,0.74975
228.77596,0.74988
228.53489,0.75199
228.29382,0.75347
228.05275,0.75310
227.81168,0.75134
227.57061,0.74956
227.32953,0.74929
227.08846,0.75057
226.84739,0.75165
226.60632,0.75130
226.36525,0.75012
226.12418,0.74897
225.88311,0.74810
225.64204,0.74848
225.40097,0.75130
225.15990,0.75553
224.91883,0.75848
224.67776,0.75940
224.43669,0.75978
224.19562,0.76053
223.95455,0.76152
223.71348,0.76284
223.47241,0.76524
223.23134,0.77014
222.99026,0.77850
222.74919,0.78907
222.50812,0.79911
222.26705,0.80638
222.02598,0.80977
221.78491,0.80983
221.54384,0.81012
221.30277,0.81502
221.06170,0.82558
220.82063,0.83958
220.57956,0.85397
220.33849,0.86533
220.09742,0.87085
219.85635,0.87145
219.61528,0.87188
219.37421,0.87674
219.13314,0.88797
218.89207,0.90449
218.65099,0.92317
218.40992,0.94129
218.16885,0.95791
217.92778,0.97272
217.68671,0.98479
217.44564,0.99340
217.20457,1.00067
216.96350,1.01196
216.72243,1.03117
216.48136,1.05553
216.24029,1.07851
215.99922,1.09822
215.75815,1.11728
215.51708,1.13577
215.27601,1.15145
215.03494,1.16448
214.79387,1.17699
214.55280,1.19042
214.31172,1.20527
214.07065,1.21964
213.82958,1.22943
213.58851,1.23286
213.34744,1.23267
213.10637,1.23400
212.86530,1.24046
212.62423,1.25111
212.38316,1.26335
212.14209,1.27815
211.90102,1.29893
211.65995,1.32477
211.41888,1.34655
211.17781,1.35265
210.93674,1.34105
210.69567,1.32206
210.45460,1.30813
210.21353,1.30497
209.97245,1.30954
209.73138,1.31325
209.49031,1.31000
209.24924,1.30130
209.00817,1.29181
208.76710,1.28415
208.52603,1.28095
208.28496,1.28666
208.04389,1.30280
207.80282,1.31882
207.56175,1.31647
207.32068,1.29432
207.07961,1.26917
206.83854,1.25289
206.59747,1.24403
206.35640,1.23537
206.11533,1.22307
205.87426,1.20715
205.63318,1.18713
205.39211,1.16263
205.15104,1.13797
204.90997,1.12040
204.66890,1.11254
204.42783,1.10973
204.18676,1.10408
203.94569,1.09007
203.70462,1.06824
203.46355,1.04460
203.22248,1.02669
202.98141,1.01808
202.74034,1.01371
202.49927,1.00268
202.25820,0.97988
202.01713,0.95255
201.77606,0.93138
201.53499,0.91927
201.29391,0.90938
201.05284,0.89368
200.81177,0.87258
200.57070,0.85289
200.32963,0.83921
200.08856,0.83045
199.84749,0.82189
199.60642,0.80946
199.36535,0.79347
199.12428,0.77805
198.88321,0.76670
198.64214,0.75954
198.40107,0.75359
198.16000,0.74543
197.91893,0.73427
197.67786,0.72200
197.43679,0.71097
197.19572,0.70248
196.95464,0.69604
196.71357,0.68983
196.47250,0.68231
196.23143,0.67332
195.99036,0.66396
195.74929,0.65621
195.50822,0.65083
195.26715,0.64568
195.02608,0.63840
194.78501,0.63011
194.54394,0.62393
194.30287,0.62041
194.06180,0.61626
193.82073,0.60864
193.57966,0.59930
193.33859,0.59251
193.09752,0.58944
192.85645,0.58706
192.61537,0.58336
192.37430,0.57990
192.13323,0.57753
191.89216,0.57377
191.65109,0.56672
191.41002,0.55900
191.16895,0.55477
190.92788,0.55451
190.68681,0.55549
190.44574,0.55559
190.20467,0.55464
189.96360,0.55277
189.72253,0.54999
189.48146,0.54705
189.24039,0.54477
188.99932,0.54293
188.75825,0.54101
188.51718,0.53957
188.27610,0.53919
188.03503,0.53845
187.79396,0.53539
187.55289,0.53105
187.31182,0.52911
187.07075,0.53101
186.82968,0.53411
186.58861,0.53575
186.34754,0.53667
186.10647,0.53843
185.86540,0.54012
185.62433,0.53991
185.38326,0.53808
185.14219,0.53619
184.90112,0.53479
184.66005,0.53408
184.41898,0.53474
184.17791,0.53656
183.93683,0.53835
183.69576,0.54030
183.45469,0.54378
183.21362,0.54848
182.97255,0.55243
182.73148,0.55475
182.49041,0.55590
182.24934,0.55574
182.00827,0.55406
181.76720,0.55253
181.52613,0.55322
181.28506,0.55557
181.04399,0.55756
180.80292,0.55935
180.56185,0.56238
180.32078,0.56653
180.07971,0.57115
179.83864,0.57645
179.59756,0.58248
179.35649,0.58915
179.11542,0.59742
178.87435,0.60721
178.63328,0.61627
178.39221,0.62386
178.15114,0.63212
177.91007,0.64202
177.66900,0.65208
177.42793,0.66132
177.18686,0.67062
176.94579,0.68176
176.70472,0.69590
176.46365,0.71253
176.22258,0.73072
175.98151,0.75119
175.74044,0.77458
175.49937,0.79938
175.25829,0.82364
175.01722,0.84681
174.77615,0.86858
174.53508,0.88832
174.29401,0.90597
174.05294,0.92179
173.81187,0.93681
173.57080,0.95340
173.32973,0.97249
173.08866,0.99168
172.84759,1.00797
172.60652,1.02032
172.36545,1.02990
172.12438,1.03883
171.88331,1.04647
171.64224,1.04815
171.40117,1.04082
171.16010,1.02776
170.91902,1.01569
170.67795,1.00872
170.43688,1.00590
170.19581,1.00349
169.95474,0.99913
169.71367,0.99343
169.47260,0.98823
169.23153,0.98407
168.99046,0.97903
168.74939,0.97093
168.50832,0.96024
168.26725,0.94948
168.02618,0.94065
167.78511,0.93504
167.54404,0.93449
167.30297,0.94002
167.06190,0.94953
166.82083,0.95861
166.57975,0.96354
166.33868,0.96396
166.09761,0.96231
165.85654,0.96159
165.61547,0.96412
165.37440,0.97132
165.13333,0.98331
164.89226,0.99904
164.65119,1.01735
164.41012,1.03644
164.16905,1.05237
163.92798,1.06167
163.68691,1.06747
163.44584,1.07892
163.20477,1.10122
162.96370,1.12808
162.72263,1.14719
162.48156,1.15358
162.24048,1.15292
161.99941,1.15163
161.75834,1.15071
161.51727,1.14927
161.27620,1.14841
161.03513,1.15070
160.79406,1.15843
160.55299,1.17026
160.31192,1.17723
160.07085,1.16807
159.82978,1.14394
159.58871,1.11902
159.34764,1.10465
159.10657,1.10118
158.86550,1.10302
158.62443,1.10694
158.38336,1.11261
158.14229,1.11632
157.90121,1.11056
157.66014,1.09354
157.41907,1.07420
157.17800,1.06242
156.93693,1.05887
156.69586,1.05714
156.45479,1.05305
156.21372,1.04844
155.97265,1.04485
155.73158,1.03896
155.49051,1.02803
155.24944,1.01477
155.00837,1.00343
154.76730,0.99421
154.52623,0.98319
154.28516,0.96679
154.04409,0.94517
153.80302,0.92167
153.56194,0.90030
153.32087,0.88406
153.07980,0.87288
152.83873,0.86206
152.59766,0.84554
152.35659,0.82244
152.11552,0.79740
151.87445,0.77478
151.63338,0.75581
151.39231,0.73911
151.15124,0.72197
150.91017,0.70316
150.66910,0.68421
150.42803,0.66701
150.18696,0.65179
149.94589,0.63768
149.70482,0.62405
149.46375,0.61131
149.22267,0.60053
148.98160,0.59192
148.74053,0.58419
148.49946,0.57625
148.25839,0.56878
148.01732,0.56287
147.77625,0.55814
147.53518,0.55390
147.29411,0.55116
147.05304,0.55136
146.81197,0.55372
146.57090,0.55601
146.32983,0.55774
146.08876,0.56059
145.84769,0.56534
145.60662,0.57045
145.36555,0.57476
145.12448,0.57961
144.88340,0.58627
144.64233,0.59349
144.40126,0.59964
144.16019,0.60500
143.91912,0.60969
143.67805,0.61146
143.43698,0.60813
143.19591,0.60073
142.95484,0.59220
142.71377,0.58392
142.47270,0.57467
142.23163,0.56328
141.99056,0.55100
141.74949,0.54032
141.50842,0.53217
141.26735,0.52575
141.02628,0.52045
140.78521,0.51616
140.54413,0.51236
140.30306,0.50912
140.06199,0.50825
139.82092,0.51155
139.57985,0.51840
139.33878,0.52642
139.09771,0.53375
138.85664,0.53987
138.61557,0.54531
138.37450,0.55156
138.13343,0.56036
137.89236,0.57237
137.65129,0.58676
137.41022,0.60259
137.16915,0.62036
136.92808,0.64088
136.68701,0.66348
136.44594,0.68691
136.20486,0.71108
135.96379,0.73627
135.72272,0.76236
135.48165,0.79067
135.24058,0.82337
134.99951,0.85940
134.75844,0.89477
134.51737,0.92838
134.27630,0.96273
134.03523,0.99819
133.79416,1.03084
133.55309,1.05765
133.31202,1.08189
133.07095,1.11014
132.82988,1.14242
132.58881,1.17011
132.34774,1.18765
132.10667,1.19957
131.86559,1.20821
131.62452,1.20835
131.38345,1.19877
131.14238,1.18313
130.90131,1.16162
130.66024,1.13208
130.41917,1.09486
130.17810,1.05274
129.93703,1.00931
129.69596,0.96762
129.45489,0.92787
129.21382,0.88664
128.97275,0.84119
128.73168,0.79470
128.49061,0.75386
128.24954,0.72157
128.00847,0.69466
127.76740,0.66893
127.52632,0.64379
127.28525,0.62088
127.04418,0.60069
126.80311,0.58233
126.56204,0.56507
126.32097,0.54912
126.07990,0.53500
125.83883,0.52229
125.59776,0.50956
125.35669,0.49621
125.11562,0.48336
124.87455,0.47209
124.63348,0.46201
124.39241,0.45235
124.15134,0.44321
123.91027,0.43491
123.66920,0.42743
123.42812,0.42123
123.18705,0.41741
122.94598,0.41647
122.70491,0.41758
122.46384,0.41958
122.22277,0.42184
121.98170,0.42411
121.74063,0.42637
121.49956,0.42910
121.25849,0.43313
121.01742,0.43883
120.77635,0.44597
120.53528,0.45426
120.29421,0.46376
120.05314,0.47515
119.81207,0.48976
119.57100,0.50877
119.32993,0.53177
119.08885,0.55706
118.84778,0.58431
118.60671,0.61563
118.36564,0.65239
118.12457,0.69250
117.88350,0.73132
117.64243,0.76319
117.40136,0.78368
117.16029,0.79355
116.91922,0.79772
116.67815,0.79901
116.43708,0.79652
116.19601,0.78865
115.95494,0.77517
115.71387,0.75829
115.47280,0.74205
115.23173,0.72962
114.99066,0.72160
114.74958,0.71583
114.50851,0.70734
114.26744,0.69140
114.02637,0.66928
113.78530,0.64898
113.54423,0.63835
113.30316,0.63909
113.06209,0.64789
112.82102,0.66139
112.57995,0.67792
112.33888,0.69494
112.09781,0.70897
111.85674,0.71885
111.61567,0.72530
111.37460,0.72754
111.13353,0.72566
110.89246,0.72489
110.65139,0.73142
110.41031,0.74471
110.16924,0.75678
109.92817,0.75879
109.68710,0.74727
109.44603,0.72560
109.20496,0.69982
108.96389,0.67364
108.72282,0.64779
108.48175,0.62151
108.24068,0.59560
107.99961,0.57314
107.75854,0.55526
107.51747,0.53872
107.27640,0.51920
107.03533,0.49573
106.79426,0.47141
106.55319,0.45068
106.31212,0.43605
106.07104,0.42695
105.82997,0.42056
105.58890,0.41332
105.34783,0.40257
105.10676,0.38764
104.86569,0.37034
104.62462,0.35429
104.38355,0.34338
104.14248,0.33927
103.90141,0.33956
103.66034,0.33895
103.41927,0.33314
103.17820,0.32249
102.93713,0.31171
102.69606,0.30588
102.45499,0.30700
102.21392,0.31250
101.97285,0.31551
101.73177,0.30976
101.49070,0.29657
101.24963,0.28419
101.00856,0.27949
100.76749,0.28252
100.52642,0.28722
100.28535,0.28662
100.04428,0.27926
99.80321,0.26976
99.56214,0.26400
99.32107,0.26483
99.08000,0.26975
98.83893,0.27193
98.59786,0.26638
98.35679,0.25625
98.11572,0.24955
97.87465,0.25048
97.63358,0.25537
97.39250,0.25700
97.15143,0.25471
96.91036,0.25541
96.66929,0.26332
96.42822,0.27405
96.18715,0.28044
95.94608,0.28356
95.70501,0.29106
95.46394,0.30486
95.22287,0.31792
94.98180,0.32446
94.74073,0.32900
94.49966,0.33739
94.25859,0.34612
94.01752,0.34817
93.77645,0.34426
93.53538,0.34017
93.29431,0.33775
93.05323,0.33642
92.81216,0.33799
92.57109,0.34276
92.33002,0.34606
92.08895,0.34570
91.84788,0.34716
91.60681,0.35441
91.36574,0.36316
91.12467,0.37062
90.88360,0.38382
90.64253,0.40909
90.40146,0.44375
90.16039,0.48429
89.91932,0.53196
89.67825,0.58474
89.43718,0.63847
89.19611,0.69415
88.95504,0.74636
88.71396,0.77802
88.47289,0.78193
88.23182,0.76423
87.99075,0.72579
87.74968,0.66866
87.50861,0.60504
87.26754,0.54622
87.02647,0.49590
86.78540,0.45364
86.54433,0.41793
86.30326,0.38764
86.06219,0.36246
85.82112,0.34139
85.58005,0.32229
85.33898,0.30377
85.09791,0.28590
84.85684,0.26900
84.61577,0.25338
84.37469,0.23994
84.13362,0.22992
83.89255,0.22355
83.65148,0.21926
83.41041,0.21500
83.16934,0.21030
82.92827,0.20595
82.68720,0.20241
82.44613,0.19960
82.20506,0.19722
81.96399,0.19491
81.72292,0.19282
81.48185,0.19163
81.24078,0.19109
80.99971,0.19000
80.75864,0.18856
80.51757,0.18838
80.27650,0.18958
80.03542,0.19003
79.79435,0.18834
79.55328,0.18567
79.31221,0.18377
79.07114,0.18264
78.83007,0.18123
78.58900,0.17920
78.34793,0.17699
78.10686,0.17482
77.86579,0.17250
77.62472,0.16948
77.38365,0.16537
77.14258,0.16127
76.90151,0.15950
76.66044,0.16065
76.41937,0.16244
76.17830,0.16276
75.93723,0.16220
75.69615,0.16233
75.45508,0.16310
75.21401,0.16314
74.97294,0.16159
74.73187,0.15870
74.49080,0.15535
74.24973,0.15276
74.00866,0.15207
73.76759,0.15376
73.52652,0.15744
73.28545,0.16199
73.04438,0.16571
72.80331,0.16718
72.56224,0.16647
72.32117,0.16507
72.08010,0.16442
71.83903,0.16495
71.59796,0.16618
71.35688,0.16767
71.11581,0.16960
70.87474,0.17260
70.63367,0.17772
70.39260,0.18682
70.15153,0.20266
69.91046,0.22688
69.66939,0.25684
69.42832,0.28414
69.18725,0.29816
68.94618,0.29417
68.70511,0.27676
68.46404,0.25361
68.22297,0.22994
67.98190,0.20857
67.74083,0.19042
67.49976,0.17495
67.25869,0.16174
67.01761,0.15123
66.77654,0.14346
66.53547,0.13747
66.29440,0.13273
66.05333,0.13002
65.81226,0.13101
65.57119,0.13726
65.33012,0.14893
65.08905,0.16383
64.84798,0.17889
64.60691,0.19295
64.36584,0.20673
64.12477,0.21929
63.88370,0.22655
63.64263,0.22528
63.40156,0.21678
63.16049,0.20433
62.91942,0.18968
62.67834,0.17323
62.43727,0.15560
62.19620,0.13883
61.95513,0.12592
61.71406,0.11848
61.47299,0.11553
61.23192,0.11552
60.99085,0.11826
60.74978,0.12407
60.50871,0.13274
60.26764,0.14401
60.02657,0.15757
59.78550,0.17168
59.54443,0.18204
59.30336,0.18357
59.06229,0.17435
58.82122,0.15687
58.58015,0.13595
58.33907,0.11766
58.09800,0.10775
57.85693,0.10897
57.61586,0.12051
57.37479,0.13988
57.13372,0.16389
56.89265,0.18655
56.65158,0.19846
56.41051,0.19307
56.16944,0.17318
55.92837,0.14835
55.68730,0.12826
55.44623,0.11821
55.20516,0.11874
54.96409,0.12861
54.72302,0.14669
54.48195,0.16976
54.24088,0.18862
53.99980,0.19076
53.75873,0.17415
53.51766,0.14997
53.27659,0.13012
53.03552,0.12346
52.79445,0.13675
52.55338,0.17167
52.31231,0.21348
52.07124,0.21972
51.83017,0.17415
51.58910,0.12326
51.34803,0.09840
51.10696,0.10369
50.86589,0.13571
50.62482,0.18212
50.38375,0.20218
50.14268,0.16578
49.90161,0.11644
49.66053,0.09539
49.41946,0.11840
49.17839,0.17574
48.93732,0.20107
48.69625,0.15625
48.45518,0.11920
48.21411,0.13281
47.97304,0.17834
47.73197,0.18390
47.49090,0.13224
47.24983,0.09951
47.00876,0.11139
46.76769,0.12857
46.52662,0.11213
46.28555,0.09413
46.04448,0.10026
45.80341,0.11038
45.56234,0.10856
45.32126,0.11035
45.08019,0.11772
44.83912,0.11587
44.59805,0.11490
44.35698,0.12839
44.11591,0.13837
43.87484,0.13072
43.63377,0.12530
43.39270,0.13566
43.15163,0.15105
42.91056,0.15802
42.66949,0.15545
42.42842,0.14931
42.18735,0.14916
41.94628,0.15869
41.70521,0.16855
41.46414,0.16994
41.22307,0.16628
40.98199,0.16480
40.74092,0.16715
40.49985,0.16742
40.25878,0.16006
40.01771,0.15133
39.77664,0.15290
39.53557,0.16596
39.29450,0.17929
39.05343,0.18093
38.81236,0.17173
38.57129,0.16444
38.33022,0.16769
38.08915,0.17718
37.84808,0.18569
37.60701,0.18993
37.36594,0.18659
37.12487,0.17536
36.88380,0.16149
36.64272,0.15090
36.40165,0.14749
36.16058,0.15127
35.91951,0.15629
35.67844,0.15889
35.43737,0.16540
35.19630,0.18106
34.95523,0.19545
34.71416,0.19243
34.47309,0.17304
34.23202,0.15201
33.99095,0.13754
33.74988,0.12773
33.50881,0.12272
33.26774,0.12791
33.02667,0.14958
32.78560,0.18550
32.54453,0.21479
32.30345,0.22145
32.06238,0.21217
31.82131,0.19819
31.58024,0.18047
31.33917,0.15071
31.09810,0.10640
30.85703,0.05783
30.61596,0.02032
30.37489,0.00246
30.13382,0.00506
29.89275,0.02550
29.65168,0.04874
29.41061,0.04526
29.16954,0.00012
28.92847,-0.06774
28.68740,-0.13000
28.44633,-0.16764
28.20526,-0.17337
27.96418,-0.15962
27.72311,-0.14065
27.48204,-0.11095
27.24097,-0.06864
26.99990,-0.03315
26.75883,-0.02194
26.51776,-0.03169
26.27669,-0.04750
26.03562,-0.06405
25.79455,-0.08677
25.55348,-0.11793
25.31241,-0.15788
25.07134,-0.20478
24.83027,-0.24277
24.58920,-0.24808
24.34813,-0.22478
24.10706,-0.20533
23.86599,-0.20391
23.62491,-0.20637
23.38384,-0.20852
23.14277,-0.22561
22.90170,-0.25804
22.66063,-0.28218
22.41956,-0.28864
22.17849,-0.29657
21.93742,-0.32310
21.69635,-0.36245
21.45528,-0.39672
21.21421,-0.41803
20.97314,-0.41815
20.73207,-0.38254
20.49100,-0.32572
20.24993,-0.28703
20.00886,-0.28850
19.76779,-0.31626
19.52672,-0.33693
19.28564,-0.34333
19.04457,-0.35484
18.80350,-0.37328
18.56243,-0.38541
18.32136,-0.38410
18.08029,-0.37369
17.83922,-0.36108
17.59815,-0.35173
17.35708,-0.35330
17.11601,-0.36692
16.87494,-0.38229
16.63387,-0.39421
16.39280,-0.40433
16.15173,-0.40239
15.91066,-0.37588
15.66959,-0.34163
15.42852,-0.33404
15.18745,-0.36817
14.94637,-0.41740
14.70530,-0.43989
14.46423,-0.42268
14.22316,-0.38031
13.98209,-0.33607
13.74102,-0.31307
13.49995,-0.32672
13.25888,-0.35014
13.01781,-0.34470
12.77674,-0.32421
12.53567,-0.32171
12.29460,-0.34552
12.05353,-0.36917
11.81246,-0.36971
11.57139,-0.35605
11.33032,-0.34648
11.08925,-0.34469
10.84818,-0.35248
10.60710,-0.36385
10.36603,-0.35911
10.12496,-0.33399
9.88389,-0.30218
9.64282,-0.28076
9.40175,-0.27960
9.16068,-0.29559
8.91961,-0.31770
8.67854,-0.34013
8.43747,-0.36553
8.19640,-0.39200
7.95533,-0.40519
7.71426,-0.39444
7.47319,-0.36450
7.23212,-0.33472
6.99105,-0.30935
6.74998,-0.29171
6.50891,-0.28849
6.26783,-0.29818
6.02676,-0.31510
5.78569,-0.32951
5.54462,-0.33423
5.30355,-0.33467
5.06248,-0.33400
4.82141,-0.32752
4.58034,-0.31927
4.33927,-0.31819
4.09820,-0.32132
3.85713,-0.32341
3.61606,-0.32397
3.37499,-0.31540
3.13392,-0.29988
2.89285,-0.29227
2.65178,-0.29928
2.41071,-0.32397
2.16964,-0.35881
1.92856,-0.36936
1.68749,-0.34206
1.44642,-0.31735
1.20535,-0.32345
0.96428,-0.35050
0.72321,-0.40522
0.48214,-0.52228
0.24107,-0.54592
-0.00000,-0.10145
