399.69498,1.45253
399.45391,1.46701
399.21284,1.49103
398.97177,1.51127
398.73070,1.51894
398.48963,1.51740
398.24856,1.51318
398.00749,1.50882
397.76642,1.50218
397.52535,1.49158
397.28428,1.48004
397.04321,1.47427
396.80214,1.47934
396.56107,1.49155
396.32000,1.49792
396.07892,1.49017
395.83785,1.47582
395.59678,1.46623
395.35571,1.46315
395.11464,1.46354
394.87357,1.46752
394.63250,1.47590
394.39143,1.48510
394.15036,1.48840
393.90929,1.48412
393.66822,1.47965
393.42715,1.48279
393.18608,1.49019
392.94501,1.49162
392.70394,1.48559
392.46287,1.47777
392.22180,1.46831
391.98073,1.45234
391.73965,1.43255
391.49858,1.42035
391.25751,1.42245
391.01644,1.43392
390.77537,1.44329
390.53430,1.44544
390.29323,1.44552
390.05216,1.44711
389.81109,1.44505
389.57002,1.43611
389.32895,1.42849
389.08788,1.43190
388.84681,1.44480
388.60574,1.45890
388.36467,1.47216
388.12360,1.48297
387.88253,1.47967
387.64146,1.45740
387.40038,1.43258
387.15931,1.42249
386.91824,1.42753
386.67717,1.43474
386.43610,1.43448
386.19503,1.42996
385.95396,1.42076
385.71289,1.39713
385.47182,1.36127
385.23075,1.33259
384.98968,1.32614
384.74861,1.33635
384.50754,1.34315
384.26647,1.33677
384.02540,1.32581
383.78433,1.31494
383.54326,1.29903
383.30219,1.27990
383.06111,1.26685
382.82004,1.26121
382.57897,1.25441
382.33790,1.24265
382.09683,1.23327
381.85576,1.23401
381.61469,1.24340
381.37362,1.25327
381.13255,1.25573
380.89148,1.24594
380.65041,1.22713
380.40934,1.20976
380.16827,1.20183
379.92720,1.20406
379.68613,1.21417
379.44506,1.23002
379.20399,1.24421
378.96292,1.24988
378.72184,1.24958
378.48077,1.24769
378.23970,1.24851
377.99863,1.25545
377.75756,1.26902
377.51649,1.28720
377.27542,1.30538
377.03435,1.31759
376.79328,1.32043
376.55221,1.31573
376.31114,1.30869
376.07007,1.30626
375.82900,1.31161
375.58793,1.32030
375.34686,1.32810
375.10579,1.33873
374.86472,1.35746
374.62365,1.38117
374.38257,1.39956
374.14150,1.40322
373.90043,1.39043
373.65936,1.36963
373.41829,1.35304
373.17722,1.34475
372.93615,1.34010
372.69508,1.33383
372.45401,1.32366
372.21294,1.31252
371.97187,1.30595
371.73080,1.30273
371.48973,1.29466
371.24866,1.28022
371.00759,1.26900
370.76652,1.26835
370.52545,1.27423
370.28437,1.27659
370.04330,1.27094
369.80223,1.26217
369.56116,1.25746
369.32009,1.25942
369.07902,1.26486
368.83795,1.26880
368.59688,1.26879
368.35581,1.26460
368.11474,1.25622
367.87367,1.24425
367.63260,1.23136
367.39153,1.22200
367.15046,1.21928
366.90939,1.22045
366.66832,1.21936
366.42725,1.21522
366.18618,1.21246
365.94510,1.21171
365.70403,1.20914
365.46296,1.20407
365.22189,1.20062
364.98082,1.20099
364.73975,1.20235
364.49868,1.20224
364.25761,1.20249
364.01654,1.20428
363.77547,1.20324
363.53440,1.19509
363.29333,1.18315
363.05226,1.17429
362.81119,1.17092
362.57012,1.17033
362.32905,1.16863
362.08798,1.16418
361.84691,1.15877
361.60583,1.15544
361.36476,1.15424
361.12369,1.15216
360.88262,1.14841
360.64155,1.14606
360.40048,1.14753
360.15941,1.15153
359.91834,1.15515
359.67727,1.15789
359.43620,1.16178
359.19513,1.16753
358.95406,1.17238
358.71299,1.17262
358.47192,1.16769
358.23085,1.16053
357.98978,1.15380
357.74871,1.14805
357.50764,1.14304
357.26656,1.13991
357.02549,1.13982
356.78442,1.14073
356.54335,1.13910
356.30228,1.13604
356.06121,1.13681
355.82014,1.14343
355.57907,1.15192
355.33800,1.15707
355.09693,1.15743
354.85586,1.15442
354.61479,1.14969
354.37372,1.14617
354.13265,1.14673
353.89158,1.15021
353.65051,1.15333
353.40944,1.15563
353.16837,1.15832
352.92729,1.16031
352.68622,1.15933
352.44515,1.15653
352.20408,1.15683
351.96301,1.16273
351.72194,1.16994
351.48087,1.17201
351.23980,1.16875
350.99873,1.16554
350.75766,1.16414
350.51659,1.16111
350.27552,1.15638
350.03445,1.15660
349.79338,1.16623
349.55231,1.17991
349.31124,1.18830
349.07017,1.18865
348.82910,1.18486
348.58802,1.17999
348.34695,1.17405
348.10588,1.16846
347.86481,1.16715
347.62374,1.17217
347.38267,1.18083
347.14160,1.18689
346.90053,1.18549
346.65946,1.17880
346.41839,1.17563
346.17732,1.18240
345.93625,1.19565
345.69518,1.20590
345.45411,1.21009
345.21304,1.21418
344.97197,1.22217
344.73090,1.23017
344.48983,1.23261
344.24875,1.22908
344.00768,1.22455
343.76661,1.22469
343.52554,1.22928
343.28447,1.23240
343.04340,1.23305
342.80233,1.23781
342.56126,1.24734
342.32019,1.25074
342.07912,1.24253
341.83805,1.23307
341.59698,1.23343
341.35591,1.24336
341.11484,1.25828
340.87377,1.27671
340.63270,1.29546
340.39163,1.30598
340.15056,1.30375
339.90948,1.29639
339.66841,1.29391
339.42734,1.29830
339.18627,1.30765
338.94520,1.32312
338.70413,1.34546
338.46306,1.36679
338.22199,1.37356
337.98092,1.36271
337.73985,1.34731
337.49878,1.34143
337.25771,1.34543
337.01664,1.34920
336.77557,1.34839
336.53450,1.34952
336.29343,1.35787
336.05236,1.36947
335.81129,1.37705
335.57021,1.37705
335.32914,1.37034
335.08807,1.36188
334.84700,1.35695
334.60593,1.35562
334.36486,1.35368
334.12379,1.35132
333.88272,1.35130
333.64165,1.34888
333.40058,1.33672
333.15951,1.31727
332.91844,1.30057
332.67737,1.29325
332.43630,1.29303
332.19523,1.28977
331.95416,1.27569
331.71309,1.25862
331.47202,1.25527
331.23094,1.26932
330.98987,1.28407
330.74880,1.28142
330.50773,1.26516
330.26666,1.25358
330.02559,1.25525
329.78452,1.26205
329.54345,1.26112
329.30238,1.25094
329.06131,1.24147
328.82024,1.24120
328.57917,1.24884
328.33810,1.25491
328.09703,1.25238
327.85596,1.24383
327.61489,1.23635
327.37382,1.23256
327.13275,1.22818
326.89167,1.22041
326.65060,1.21435
326.40953,1.21694
326.16846,1.22729
325.92739,1.23663
325.68632,1.23911
325.44525,1.23919
325.20418,1.24376
324.96311,1.24956
324.72204,1.24537
324.48097,1.23173
324.23990,1.22526
323.99883,1.23625
323.75776,1.25395
323.51669,1.26001
323.27562,1.25159
323.03455,1.24032
322.79348,1.23540
322.55240,1.23606
322.31133,1.23728
322.07026,1.23950
321.82919,1.24810
321.58812,1.26270
321.34705,1.27401
321.10598,1.27667
320.86491,1.27630
320.62384,1.28021
320.38277,1.28710
320.14170,1.28847
319.90063,1.27978
319.65956,1.26629
319.41849,1.25725
319.17742,1.25751
318.93635,1.26486
318.69528,1.27475
318.45421,1.28205
318.21313,1.28081
317.97206,1.27141
317.73099,1.26498
317.48992,1.27034
317.24885,1.27856
317.00778,1.27173
316.76671,1.25088
316.52564,1.23674
316.28457,1.24171
316.04350,1.25633
315.80243,1.26309
315.56136,1.25933
315.32029,1.25719
315.07922,1.26255
314.83815,1.26898
314.59708,1.27285
314.35601,1.27920
314.11494,1.28947
313.87386,1.29550
313.63279,1.29348
313.39172,1.29077
313.15065,1.29112
312.90958,1.28942
312.66851,1.28459
312.42744,1.28344
312.18637,1.29083
311.94530,1.30279
311.70423,1.31069
311.46316,1.31085
311.22209,1.30899
310.98102,1.31291
310.73995,1.32262
310.49888,1.33120
310.25781,1.33277
310.01674,1.32766
309.77567,1.32128
309.53459,1.31944
309.29352,1.32499
309.05245,1.33792
308.81138,1.35404
308.57031,1.36439
308.32924,1.36360
308.08817,1.35851
307.84710,1.35932
307.60603,1.36700
307.36496,1.37519
307.12389,1.37841
306.88282,1.37568
306.64175,1.37031
306.40068,1.36741
306.15961,1.36835
305.91854,1.36963
305.67747,1.36707
305.43640,1.35785
305.19532,1.34349
304.95425,1.33041
304.71318,1.32526
304.47211,1.32935
304.23104,1.33584
303.98997,1.33433
303.74890,1.32175
303.50783,1.30379
303.26676,1.28725
303.02569,1.27717
302.78462,1.27748
302.54355,1.28474
302.30248,1.28652
302.06141,1.27562
301.82034,1.25907
301.57927,1.24861
301.33820,1.24804
301.09713,1.25161
300.85605,1.25134
300.61498,1.24385
300.37391,1.23168
300.13284,1.22130
299.89177,1.21792
299.65070,1.21904
299.40963,1.21552
299.16856,1.20364
298.92749,1.19089
298.68642,1.18524
298.44535,1.18703
298.20428,1.19218
297.96321,1.19820
297.72214,1.20375
297.48107,1.20560
297.24000,1.20088
296.99893,1.19116
296.75786,1.18109
296.51678,1.17338
296.27571,1.16776
296.03464,1.16337
295.79357,1.15889
295.55250,1.15209
295.31143,1.14286
295.07036,1.13491
294.82929,1.13215
294.58822,1.13482
294.34715,1.13914
294.10608,1.13945
293.86501,1.13271
293.62394,1.12203
293.38287,1.11368
293.14180,1.11068
292.90073,1.11084
292.65966,1.11084
292.41859,1.11006
292.17751,1.10904
291.93644,1.10633
291.69537,1.10011
291.45430,1.09264
291.21323,1.08967
290.97216,1.09395
290.73109,1.10130
290.49002,1.10487
290.24895,1.10237
290.00788,1.09661
289.76681,1.09058
289.52574,1.08536
289.28467,1.08099
289.04360,1.07664
288.80253,1.07210
288.56146,1.06895
288.32039,1.06801
288.07932,1.06743
287.83824,1.06623
287.59717,1.06571
287.35610,1.06559
287.11503,1.06423
286.87396,1.06316
286.63289,1.06503
286.39182,1.06824
286.15075,1.06945
285.90968,1.06852
285.66861,1.06660
285.42754,1.06344
285.18647,1.05935
284.94540,1.05612
284.70433,1.05493
284.46326,1.05556
284.22219,1.05754
283.98112,1.06064
283.74005,1.06462
283.49897,1.06807
283.25790,1.06825
283.01683,1.06405
282.77576,1.05828
282.53469,1.05515
282.29362,1.05610
282.05255,1.05895
281.81148,1.06044
281.57041,1.05880
281.32934,1.05484
281.08827,1.05098
280.84720,1.04981
280.60613,1.05279
280.36506,1.05912
280.12399,1.06563
279.88292,1.06895
279.64185,1.06813
279.40078,1.06425
279.15970,1.05851
278.91863,1.05300
278.67756,1.05117
278.43649,1.05449
278.19542,1.05923
277.95435,1.05936
277.71328,1.05389
277.47221,1.04830
277.23114,1.04826
276.99007,1.05371
276.74900,1.05991
276.50793,1.06371
276.26686,1.06642
276.02579,1.07010
275.78472,1.07395
275.54365,1.07585
275.30258,1.07561
275.06151,1.07499
274.82043,1.07517
274.57936,1.07547
274.33829,1.07496
274.09722,1.07462
273.85615,1.07617
273.61508,1.07901
273.37401,1.08090
273.13294,1.08185
272.89187,1.08448
272.65080,1.09003
272.40973,1.09630
272.16866,1.10075
271.92759,1.10359
271.68652,1.10687
271.44545,1.11128
271.20438,1.11491
270.96331,1.11538
270.72224,1.11347
270.48116,1.11333
270.24009,1.11762
269.99902,1.12367
269.75795,1.12722
269.51688,1.12826
269.27581,1.13005
269.03474,1.13459
268.79367,1.14161
268.55260,1.14927
268.31153,1.15460
268.07046,1.15637
267.82939,1.15809
267.58832,1.16454
267.34725,1.17531
267.10618,1.18537
266.86511,1.19175
266.62404,1.19599
266.38297,1.20007
266.14189,1.20389
265.90082,1.20712
265.65975,1.21107
265.41868,1.21807
265.17761,1.23020
264.93654,1.24747
264.69547,1.26603
264.45440,1.28025
264.21333,1.28831
263.97226,1.29441
263.73119,1.30422
263.49012,1.31932
263.24905,1.33672
263.00798,1.35309
262.76691,1.36771
262.52584,1.38127
262.28477,1.39493
262.04370,1.41000
261.80262,1.42581
261.56155,1.43997
261.32048,1.45470
261.07941,1.47827
260.83834,1.51547
260.59727,1.56184
260.35620,1.61139
260.11513,1.66274
259.87406,1.70883
259.63299,1.73245
259.39192,1.72920
259.15085,1.71911
258.90978,1.72372
258.66871,1.74634
258.42764,1.77344
258.18657,1.79193
257.94550,1.80073
257.70443,1.80272
257.46335,1.79979
257.22228,1.79640
256.98121,1.79600
256.74014,1.79121
256.49907,1.76866
256.25800,1.72639
256.01693,1.67979
255.77586,1.64844
255.53479,1.63821
255.29372,1.63859
255.05265,1.63615
254.81158,1.62753
254.57051,1.61550
254.32944,1.60090
254.08837,1.58424
253.84730,1.57133
253.60623,1.56788
253.36516,1.56812
253.12408,1.55925
252.88301,1.53679
252.64194,1.51128
252.40087,1.49848
252.15980,1.50437
251.91873,1.51807
251.67766,1.51984
251.43659,1.50339
251.19552,1.48329
250.95445,1.47470
250.71338,1.47906
250.47231,1.48863
250.23124,1.49724
249.99017,1.50477
249.74910,1.50959
249.50803,1.50508
249.26696,1.49136
249.02589,1.48033
248.78481,1.48008
248.54374,1.48375
248.30267,1.48056
248.06160,1.47065
247.82053,1.46304
247.57946,1.46433
247.33839,1.47339
247.09732,1.48284
246.85625,1.48644
246.61518,1.48700
246.37411,1.49161
246.13304,1.50094
245.89197,1.50987
245.65090,1.51764
245.40983,1.52949
245.16876,1.54926
244.92769,1.57679
244.68661,1.60829
244.44554,1.63607
244.20447,1.65701
243.96340,1.68047
243.72233,1.71532
243.48126,1.76300
243.24019,1.82161
242.99912,1.88416
242.75805,1.94193
242.51698,1.97633
242.27591,1.89284
242.03484,1.75154
241.79377,1.63866
241.55270,1.54615
241.31163,1.46161
241.07056,1.38539
240.82949,1.32103
240.58842,1.26932
240.34734,1.22573
240.10627,1.18353
239.86520,1.14142
239.62413,1.10388
239.38306,1.07283
239.14199,1.04479
238.90092,1.01688
238.65985,0.99020
238.41878,0.96685
238.17771,0.94772
237.93664,0.93250
237.69557,0.91938
237.45450,0.90583
237.21343,0.89141
236.97236,0.87820
236.73129,0.86735
236.49022,0.85722
236.24915,0.84592
236.00807,0.83424
235.76700,0.82472
235.52593,0.81871
235.28486,0.81525
235.04379,0.81228
234.80272,0.80806
234.56165,0.80181
234.32058,0.79452
234.07951,0.78848
233.83844,0.78489
233.59737,0.78228
233.35630,0.77842
233.11523,0.77356
232.87416,0.76987
232.63309,0.76816
232.39202,0.76705
232.15095,0.76574
231.90988,0.76525
231.66880,0.76585
231.42773,0.76573
231.18666,0.76387
230.94559,0.76215
230.70452,0.76250
230.46345,0.76411
230.22238,0.76517
229.98131,0.76545
229.74024,0.76545
229.49917,0.76447
229.25810,0.76196
229.01703,0.75907
228.77596,0.75769
228.53489,0.75802
228.29382,0.75859
228.05275,0.75820
227.81168,0.75696
227.57061,0.75524
227.32953,0.75267
227.08846,0.74896
226.84739,0.74538
226.60632,0.74396
226.36525,0.74508
226.12418,0.74718
225.88311,0.74869
225.64204,0.74891
225.40097,0.74827
225.15990,0.74878
224.91883,0.75203
224.67776,0.75704
224.43669,0.76214
224.19562,0.76764
223.95455,0.77397
223.71348,0.77978
223.47241,0.78401
223.23134,0.78754
222.99026,0.79141
222.74919,0.79563
222.50812,0.80005
222.26705,0.80488
222.02598,0.81069
221.78491,0.81785
221.54384,0.82600
221.30277,0.83449
221.06170,0.84275
220.82063,0.84993
220.57956,0.85588
220.33849,0.86257
220.09742,0.87217
219.85635,0.88407
219.61528,0.89583
219.37421,0.90605
219.13314,0.91506
218.89207,0.92427
218.65099,0.93536
218.40992,0.94832
218.16885,0.96127
217.92778,0.97346
217.68671,0.98660
217.44564,1.00219
217.20457,1.01963
216.96350,1.03715
216.72243,1.05346
216.48136,1.06823
216.24029,1.08192
215.99922,1.09587
215.75815,1.11140
215.51708,1.12764
215.27601,1.14132
215.03494,1.15136
214.79387,1.16203
214.55280,1.17850
214.31172,1.20041
214.07065,1.22240
213.82958,1.23951
213.58851,1.25035
213.34744,1.25634
213.10637,1.25973
212.86530,1.26218
212.62423,1.26457
212.38316,1.26922
212.14209,1.28081
211.90102,1.30188
211.65995,1.32789
211.41888,1.34962
211.17781,1.36202
210.93674,1.36753
210.69567,1.36798
210.45460,1.36062
210.21353,1.34613
209.97245,1.33261
209.73138,1.32704
209.49031,1.32813
209.24924,1.32994
209.00817,1.32985
208.76710,1.32987
208.52603,1.33076
208.28496,1.32887
208.04389,1.32050
207.80282,1.30673
207.56175,1.29188
207.32068,1.27866
207.07961,1.26696
206.83854,1.25541
206.59747,1.24225
206.35640,1.22616
206.11533,1.20808
205.87426,1.19075
205.63318,1.17531
205.39211,1.16044
205.15104,1.14510
204.90997,1.13048
204.66890,1.11845
204.42783,1.10909
204.18676,1.09982
203.94569,1.08650
203.70462,1.06663
203.46355,1.04272
203.22248,1.02093
202.98141,1.00572
202.74034,0.99562
202.49927,0.98455
202.25820,0.96816
202.01713,0.94728
201.77606,0.92504
201.53499,0.90414
201.29391,0.88672
201.05284,0.87365
200.81177,0.86346
200.57070,0.85290
200.32963,0.83932
200.08856,0.82277
199.84749,0.80565
199.60642,0.79057
199.36535,0.77895
199.12428,0.77068
198.88321,0.76372
198.64214,0.75452
198.40107,0.74152
198.16000,0.72755
197.91893,0.71662
197.67786,0.70931
197.43679,0.70281
197.19572,0.69447
196.95464,0.68407
196.71357,0.67336
196.47250,0.66400
196.23143,0.65552
195.99036,0.64600
195.74929,0.63540
195.50822,0.62649
195.26715,0.62142
195.02608,0.61887
194.78501,0.61571
194.54394,0.61018
194.30287,0.60277
194.06180,0.59518
193.82073,0.58941
193.57966,0.58663
193.33859,0.58565
193.09752,0.58339
192.85645,0.57822
192.61537,0.57206
192.37430,0.56787
192.13323,0.56600
191.89216,0.56415
191.65109,0.56038
191.41002,0.55521
191.16895,0.55041
190.92788,0.54685
190.68681,0.54396
190.44574,0.54074
190.20467,0.53713
189.96360,0.53408
189.72253,0.53236
189.48146,0.53196
189.24039,0.53214
188.99932,0.53202
188.75825,0.53126
188.51718,0.53018
188.27610,0.52897
188.03503,0.52732
187.79396,0.52540
187.55289,0.52427
187.31182,0.52448
187.07075,0.52488
186.82968,0.52358
186.58861,0.52034
186.34754,0.51729
186.10647,0.51671
185.86540,0.51823
185.62433,0.51936
185.38326,0.51939
185.14219,0.52050
184.90112,0.52391
184.66005,0.52772
184.41898,0.53029
184.17791,0.53307
183.93683,0.53765
183.69576,0.54225
183.45469,0.54381
183.21362,0.54241
182.97255,0.54138
182.73148,0.54293
182.49041,0.54578
182.24934,0.54782
182.00827,0.54927
181.76720,0.55132
181.52613,0.55351
181.28506,0.55471
181.04399,0.55523
180.80292,0.55582
180.56185,0.55684
180.32078,0.55901
180.07971,0.56280
179.83864,0.56693
179.59756,0.57036
179.35649,0.57428
179.11542,0.58010
178.87435,0.58754
178.63328,0.59650
178.39221,0.60760
178.15114,0.61981
177.91007,0.63114
177.66900,0.64174
177.42793,0.65300
177.18686,0.66446
176.94579,0.67543
176.70472,0.68797
176.46365,0.70484
176.22258,0.72548
175.98151,0.74666
175.74044,0.76647
175.49937,0.78506
175.25829,0.80268
175.01722,0.82022
174.77615,0.84031
174.53508,0.86467
174.29401,0.89162
174.05294,0.91845
173.81187,0.94447
173.57080,0.96927
173.32973,0.99081
173.08866,1.00735
172.84759,1.01950
172.60652,1.03003
172.36545,1.04176
172.12438,1.05508
171.88331,1.06673
171.64224,1.07142
171.40117,1.06632
171.16010,1.05514
170.91902,1.04524
170.67795,1.03911
170.43688,1.03193
170.19581,1.01992
169.95474,1.00658
169.71367,0.99696
169.47260,0.99040
169.23153,0.98194
168.99046,0.96917
168.74939,0.95546
168.50832,0.94620
168.26725,0.94346
168.02618,0.94471
167.78511,0.94656
167.54404,0.94904
167.30297,0.95436
167.06190,0.96198
166.82083,0.96749
166.57975,0.96763
166.33868,0.96457
166.09761,0.96379
165.85654,0.96897
165.61547,0.97969
165.37440,0.99206
165.13333,1.00198
164.89226,1.00909
164.65119,1.01670
164.41012,1.02719
164.16905,1.03946
163.92798,1.05207
163.68691,1.06653
163.44584,1.08414
163.20477,1.10245
162.96370,1.11918
162.72263,1.13547
162.48156,1.15008
162.24048,1.15683
161.99941,1.15395
161.75834,1.14900
161.51727,1.14991
161.27620,1.15753
161.03513,1.16788
160.79406,1.17718
160.55299,1.18213
160.31192,1.18064
160.07085,1.17458
159.82978,1.16743
159.58871,1.15972
159.34764,1.14965
159.10657,1.13695
158.86550,1.12375
158.62443,1.11259
158.38336,1.10514
158.14229,1.10185
157.90121,1.10071
157.66014,1.09812
157.41907,1.09289
157.17800,1.08685
156.93693,1.08106
156.69586,1.07354
156.45479,1.06227
156.21372,1.04935
155.97265,1.03968
155.73158,1.03514
155.49051,1.03157
155.24944,1.02341
155.00837,1.00964
154.76730,0.99321
154.52623,0.97635
154.28516,0.95939
154.04409,0.94229
153.80302,0.92534
153.56194,0.90879
153.32087,0.89226
153.07980,0.87412
152.83873,0.85177
152.59766,0.82413
152.35659,0.79419
152.11552,0.76761
151.87445,0.74824
151.63338,0.73511
151.39231,0.72357
151.15124,0.70934
150.91017,0.69149
150.66910,0.67154
150.42803,0.65179
150.18696,0.63501
149.94589,0.62279
149.70482,0.61358
149.46375,0.60388
149.22267,0.59179
148.98160,0.57864
148.74053,0.56743
148.49946,0.55988
148.25839,0.55519
148.01732,0.55134
147.77625,0.54742
147.53518,0.54381
147.29411,0.54081
147.05304,0.53833
146.81197,0.53691
146.57090,0.53739
146.32983,0.53976
146.08876,0.54342
145.84769,0.54849
145.60662,0.55510
145.36555,0.56196
145.12448,0.56751
144.88340,0.57242
144.64233,0.57889
144.40126,0.58712
144.16019,0.59411
143.91912,0.59678
143.67805,0.59507
143.43698,0.59113
143.19591,0.58627
142.95484,0.57965
142.71377,0.57023
142.47270,0.55863
142.23163,0.54683
141.99056,0.53680
141.74949,0.52934
141.50842,0.52339
141.26735,0.51703
141.02628,0.50963
140.78521,0.50275
140.54413,0.49835
140.30306,0.49676
140.06199,0.49701
139.82092,0.49866
139.57985,0.50242
139.33878,0.50840
139.09771,0.51513
138.85664,0.52156
138.61557,0.52893
138.37450,0.53912
138.13343,0.55204
137.89236,0.56607
137.65129,0.58051
137.41022,0.59631
137.16915,0.61431
136.92808,0.63398
136.68701,0.65436
136.44594,0.67569
136.20486,0.69947
135.96379,0.72703
135.72272,0.75851
135.48165,0.79283
135.24058,0.82877
134.99951,0.86640
134.75844,0.90573
134.51737,0.94439
134.27630,0.97971
134.03523,1.01287
133.79416,1.04694
133.55309,1.08189
133.31202,1.11519
133.07095,1.14554
132.82988,1.17265
132.58881,1.19521
132.34774,1.21167
132.10667,1.22206
131.86559,1.22729
131.62452,1.22655
131.38345,1.21656
131.14238,1.19499
130.90131,1.16325
130.66024,1.12472
130.41917,1.08309
130.17810,1.04204
129.93703,1.00323
129.69596,0.96485
129.45489,0.92438
129.21382,0.88205
128.97275,0.83985
128.73168,0.79879
128.49061,0.75938
128.24954,0.72311
128.00847,0.69124
127.76740,0.66358
127.52632,0.63889
127.28525,0.61570
127.04418,0.59282
126.80311,0.57052
126.56204,0.55038
126.32097,0.53308
126.07990,0.51733
125.83883,0.50174
125.59776,0.48672
125.35669,0.47336
125.11562,0.46166
124.87455,0.45100
124.63348,0.44155
124.39241,0.43377
124.15134,0.42726
123.91027,0.42131
123.66920,0.41606
123.42812,0.41205
123.18705,0.40928
122.94598,0.40723
122.70491,0.40571
122.46384,0.40529
122.22277,0.40689
121.98170,0.41061
121.74063,0.41535
121.49956,0.42019
121.25849,0.42524
121.01742,0.43059
120.77635,0.43599
120.53528,0.44219
120.29421,0.45086
120.05314,0.46304
119.81207,0.47897
119.57100,0.49875
119.32993,0.52193
119.08885,0.54753
118.84778,0.57554
118.60671,0.60729
118.36564,0.64343
118.12457,0.68223
117.88350,0.71982
117.64243,0.75201
117.40136,0.77706
117.16029,0.79622
116.91922,0.80977
116.67815,0.81455
116.43708,0.80824
116.19601,0.79377
115.95494,0.77649
115.71387,0.75920
115.47280,0.74217
115.23173,0.72567
114.99066,0.70984
114.74958,0.69387
114.50851,0.67739
114.26744,0.66240
114.02637,0.65227
113.78530,0.64872
113.54423,0.64996
113.30316,0.65223
113.06209,0.65364
112.82102,0.65619
112.57995,0.66353
112.33888,0.67727
112.09781,0.69545
111.85674,0.71422
111.61567,0.73100
111.37460,0.74557
111.13353,0.75791
110.89246,0.76607
110.65139,0.76723
110.41031,0.76046
110.16924,0.74675
109.92817,0.72758
109.68710,0.70557
109.44603,0.68460
109.20496,0.66682
108.96389,0.65034
108.72282,0.63198
108.48175,0.61161
108.24068,0.59093
107.99961,0.56969
107.75854,0.54677
107.51747,0.52316
107.27640,0.50034
107.03533,0.47771
106.79426,0.45468
106.55319,0.43341
106.31212,0.41719
106.07104,0.40726
105.82997,0.40174
105.58890,0.39693
105.34783,0.38963
105.10676,0.37889
104.86569,0.36586
104.62462,0.35227
104.38355,0.33942
104.14248,0.32826
103.90141,0.31978
103.66034,0.31515
103.41927,0.31474
103.17820,0.31693
102.93713,0.31789
102.69606,0.31361
102.45499,0.30328
102.21392,0.29014
101.97285,0.27871
101.73177,0.27173
101.49070,0.26952
101.24963,0.27056
101.00856,0.27187
100.76749,0.26975
100.52642,0.26257
100.28535,0.25306
100.04428,0.24620
99.80321,0.24502
99.56214,0.24886
99.32107,0.25383
99.08000,0.25489
98.83893,0.24983
98.59786,0.24191
98.35679,0.23697
98.11572,0.23791
97.87465,0.24212
97.63358,0.24462
97.39250,0.24412
97.15143,0.24441
96.91036,0.24900
96.66929,0.25684
96.42822,0.26420
96.18715,0.26977
95.94608,0.27591
95.70501,0.28530
95.46394,0.29815
95.22287,0.31145
94.98180,0.32014
94.74073,0.32211
94.49966,0.32170
94.25859,0.32461
94.01752,0.33011
93.77645,0.33168
93.53538,0.32723
93.29431,0.32352
93.05323,0.32651
92.81216,0.33281
92.57109,0.33453
92.33002,0.33124
92.08895,0.33052
91.84788,0.33629
91.60681,0.34428
91.36574,0.35124
91.12467,0.36221
90.88360,0.38224
90.64253,0.40849
90.40146,0.43723
90.16039,0.47254
89.91932,0.51874
89.67825,0.57217
89.43718,0.62697
89.19611,0.67953
88.95504,0.72257
88.71396,0.74890
88.47289,0.75725
88.23182,0.74281
87.99075,0.70032
87.74968,0.64024
87.50861,0.58026
87.26754,0.52766
87.02647,0.48137
86.78540,0.44100
86.54433,0.40771
86.30326,0.38053
86.06219,0.35616
85.82112,0.33251
85.58005,0.31040
85.33898,0.29115
85.09791,0.27436
84.85684,0.25910
84.61577,0.24541
84.37469,0.23380
84.13362,0.22453
83.89255,0.21741
83.65148,0.21155
83.41041,0.20591
83.16934,0.20023
82.92827,0.19510
82.68720,0.19119
82.44613,0.18841
82.20506,0.18561
81.96399,0.18165
81.72292,0.17679
81.48185,0.17264
81.24078,0.17065
80.99971,0.17059
80.75864,0.17060
80.51757,0.16911
80.27650,0.16642
80.03542,0.16371
79.79435,0.16130
79.55328,0.15932
79.31221,0.15841
79.07114,0.15885
78.83007,0.15981
78.58900,0.16060
78.34793,0.16137
78.10686,0.16191
77.86579,0.16099
77.62472,0.15781
77.38365,0.15353
77.14258,0.15025
76.90151,0.14902
76.66044,0.14931
76.41937,0.15012
76.17830,0.15099
75.93723,0.15164
75.69615,0.15134
75.45508,0.14923
75.21401,0.14567
74.97294,0.14235
74.73187,0.14093
74.49080,0.14179
74.24973,0.14395
74.00866,0.14606
73.76759,0.14746
73.52652,0.14828
73.28545,0.14886
73.04438,0.14962
72.80331,0.15059
72.56224,0.15033
72.32117,0.14702
72.08010,0.14182
71.83903,0.13913
71.59796,0.14252
71.35688,0.15152
71.11581,0.16171
70.87474,0.16789
70.63367,0.16920
70.39260,0.17024
70.15153,0.17649
69.91046,0.19056
69.66939,0.21174
69.42832,0.23678
69.18725,0.25979
68.94618,0.27326
68.70511,0.27233
68.46404,0.25829
68.22297,0.23664
67.98190,0.21281
67.74083,0.19038
67.49976,0.17156
67.25869,0.15752
67.01761,0.14791
66.77654,0.14106
66.53547,0.13575
66.29440,0.13232
66.05333,0.13169
65.81226,0.13375
65.57119,0.13744
65.33012,0.14223
65.08905,0.14852
64.84798,0.15644
64.60691,0.16512
64.36584,0.17349
64.12477,0.18067
63.88370,0.18524
63.64263,0.18554
63.40156,0.18134
63.16049,0.17427
62.91942,0.16654
62.67834,0.15962
62.43727,0.15354
62.19620,0.14759
61.95513,0.14225
61.71406,0.13902
61.47299,0.13778
61.23192,0.13618
60.99085,0.13286
60.74978,0.12970
60.50871,0.12966
60.26764,0.13366
60.02657,0.14024
59.78550,0.14720
59.54443,0.15299
59.30336,0.15700
59.06229,0.15902
58.82122,0.15865
58.58015,0.15580
58.33907,0.15186
58.09800,0.14898
57.85693,0.14749
57.61586,0.14550
57.37479,0.14113
57.13372,0.13424
56.89265,0.12587
56.65158,0.11729
56.41051,0.10998
56.16944,0.10564
55.92837,0.10594
55.68730,0.11264
55.44623,0.12717
55.20516,0.14884
54.96409,0.17341
54.72302,0.19401
54.48195,0.20344
54.24088,0.19789
53.99980,0.18077
53.75873,0.16019
53.51766,0.14232
53.27659,0.12910
53.03552,0.12113
52.79445,0.12137
52.55338,0.13432
52.31231,0.16057
52.07124,0.19141
51.83017,0.20813
51.58910,0.19468
51.34803,0.15800
51.10696,0.11945
50.86589,0.09573
50.62482,0.09592
50.38375,0.12252
50.14268,0.16508
49.90161,0.18848
49.66053,0.16424
49.41946,0.12177
49.17839,0.09710
48.93732,0.10329
48.69625,0.13655
48.45518,0.16943
48.21411,0.16440
47.97304,0.13382
47.73197,0.11978
47.49090,0.13816
47.24983,0.16665
47.00876,0.16319
46.76769,0.13493
46.52662,0.12757
46.28555,0.15455
46.04448,0.17802
45.80341,0.16081
45.56234,0.13861
45.32126,0.14167
45.08019,0.15220
44.83912,0.14481
44.59805,0.13494
44.35698,0.14066
44.11591,0.15192
43.87484,0.15736
43.63377,0.16188
43.39270,0.16707
43.15163,0.17048
42.91056,0.17520
42.66949,0.18095
42.42842,0.18178
42.18735,0.17774
41.94628,0.17349
41.70521,0.16902
41.46414,0.16175
41.22307,0.15480
40.98199,0.15571
40.74092,0.16582
40.49985,0.17625
40.25878,0.17837
40.01771,0.17423
39.77664,0.16959
39.53557,0.16605
39.29450,0.16464
39.05343,0.16792
38.81236,0.17780
38.57129,0.19331
38.33022,0.20753
38.08915,0.21286
37.84808,0.21140
37.60701,0.21072
37.36594,0.21309
37.12487,0.21621
36.88380,0.21862
36.64272,0.22009
36.40165,0.22000
36.16058,0.21693
35.91951,0.21054
35.67844,0.20282
35.43737,0.19488
35.19630,0.18575
34.95523,0.17824
34.71416,0.17749
34.47309,0.18171
34.23202,0.18413
33.99095,0.18202
33.74988,0.17602
33.50881,0.16599
33.26774,0.15624
33.02667,0.15824
32.78560,0.17915
32.54453,0.20724
32.30345,0.21396
32.06238,0.18723
31.82131,0.14763
31.58024,0.11566
31.33917,0.09593
31.09810,0.08159
30.85703,0.06632
30.61596,0.05449
30.37489,0.05234
30.13382,0.05531
29.89275,0.05717
29.65168,0.05830
29.41061,0.05578
29.16954,0.04024
28.92847,0.00893
28.68740,-0.02973
28.44633,-0.06354
28.20526,-0.08407
27.96418,-0.09395
27.72311,-0.10182
27.48204,-0.11321
27.24097,-0.12839
26.99990,-0.14170
26.75883,-0.14987
26.51776,-0.15850
26.27669,-0.17130
26.03562,-0.18083
25.79455,-0.17961
25.55348,-0.17451
25.31241,-0.17642
25.07134,-0.18688
24.83027,-0.20298
24.58920,-0.22230
24.34813,-0.24063
24.10706,-0.25307
23.86599,-0.26163
23.62491,-0.27588
23.38384,-0.29969
23.14277,-0.32222
22.90170,-0.33146
22.66063,-0.32982
22.41956,-0.32713
22.17849,-0.33254
21.93742,-0.35119
21.69635,-0.37770
21.45528,-0.40077
21.21421,-0.41554
20.97314,-0.42075
20.73207,-0.40940
20.49100,-0.38280
20.24993,-0.36506
20.00886,-0.37756
19.76779,-0.41850
19.52672,-0.46990
19.28564,-0.50930
19.04457,-0.51956
18.80350,-0.50070
18.56243,-0.47103
18.32136,-0.44341
18.08029,-0.42564
17.83922,-0.41560
17.59815,-0.40730
17.35708,-0.41295
17.11601,-0.44589
16.87494,-0.47724
16.63387,-0.48890
16.39280,-0.50027
16.15173,-0.49455
15.91066,-0.47361
15.66959,-0.46640
15.42852,-0.47520
15.18745,-0.48365
14.94637,-0.48729
14.70530,-0.49405
14.46423,-0.50885
14.22316,-0.51543
13.98209,-0.50073
13.74102,-0.48703
13.49995,-0.48973
13.25888,-0.49440
13.01781,-0.46777
12.77674,-0.43933
12.53567,-0.44517
12.29460,-0.46129
12.05353,-0.46393
11.81246,-0.46338
11.57139,-0.45731
11.33032,-0.45867
11.08925,-0.47993
10.84818,-0.51550
10.60710,-0.52967
10.36603,-0.53381
10.12496,-0.52484
9.88389,-0.50720
9.64282,-0.49446
9.40175,-0.49016
9.16068,-0.49463
8.91961,-0.50112
8.67854,-0.49712
8.43747,-0.48486
8.19640,-0.47451
7.95533,-0.46118
7.71426,-0.43944
7.47319,-0.42513
7.23212,-0.43565
6.99105,-0.46601
6.74998,-0.49905
6.50891,-0.51643
6.26783,-0.51209
6.02676,-0.49896
5.78569,-0.48077
5.54462,-0.45759
5.30355,-0.43703
5.06248,-0.42351
4.82141,-0.41495
4.58034,-0.41930
4.33927,-0.44074
4.09820,-0.45615
3.85713,-0.44824
3.61606,-0.43122
3.37499,-0.41808
3.13392,-0.41465
2.89285,-0.42101
2.65178,-0.42174
2.41071,-0.41513
2.16964,-0.41530
1.92856,-0.41199
1.68749,-0.39694
1.44642,-0.40022
1.20535,-0.42138
0.96428,-0.44459
0.72321,-0.48965
0.48214,-0.56266
0.24107,-0.55805
-0.00000,-0.39896
