399.69498,1.45082
399.45391,1.45307
399.21284,1.45290
398.97177,1.44958
398.73070,1.44627
398.48963,1.44602
398.24856,1.44826
398.00749,1.45232
397.76642,1.45777
397.52535,1.46052
397.28428,1.45825
397.04321,1.45730
396.80214,1.46466
396.56107,1.47769
396.32000,1.48891
396.07892,1.49567
395.83785,1.49743
395.59678,1.49368
395.35571,1.49032
395.11464,1.49543
394.87357,1.50882
394.63250,1.52026
394.39143,1.52248
394.15036,1.52073
393.90929,1.51850
393.66822,1.51345
393.42715,1.50794
393.18608,1.50824
392.94501,1.51098
392.70394,1.50604
392.46287,1.49447
392.22180,1.48742
391.98073,1.49025
391.73965,1.49906
391.49858,1.50938
391.25751,1.51685
391.01644,1.51391
390.77537,1.50111
390.53430,1.49089
390.29323,1.49183
390.05216,1.49858
389.81109,1.50015
389.57002,1.49364
389.32895,1.48673
389.08788,1.48714
388.84681,1.49267
388.60574,1.49569
388.36467,1.48569
388.12360,1.45421
387.88253,1.41461
387.64146,1.39641
387.40038,1.41284
387.15931,1.44461
386.91824,1.46100
386.67717,1.46109
386.43610,1.46303
386.19503,1.46847
385.95396,1.46784
385.71289,1.46019
385.47182,1.44991
385.23075,1.43548
384.98968,1.41409
384.74861,1.38676
384.50754,1.36049
384.26647,1.34965
384.02540,1.35708
383.78433,1.36700
383.54326,1.36542
383.30219,1.35461
383.06111,1.34430
382.82004,1.34378
382.57897,1.35402
382.33790,1.36262
382.09683,1.35592
381.85576,1.33407
381.61469,1.31347
381.37362,1.30300
381.13255,1.29849
380.89148,1.29485
380.65041,1.28839
380.40934,1.27857
380.16827,1.26751
379.92720,1.25578
379.68613,1.24454
379.44506,1.24137
379.20399,1.25016
378.96292,1.26079
378.72184,1.26341
378.48077,1.26448
378.23970,1.27728
377.99863,1.30513
377.75756,1.33566
377.51649,1.34823
377.27542,1.33752
377.03435,1.32449
376.79328,1.33051
376.55221,1.35301
376.31114,1.37404
376.07007,1.38622
375.82900,1.39702
375.58793,1.40911
375.34686,1.41413
375.10579,1.40668
374.86472,1.39210
374.62365,1.37997
374.38257,1.37614
374.14150,1.38126
373.90043,1.39266
373.65936,1.40519
373.41829,1.41321
373.17722,1.41497
372.93615,1.41218
372.69508,1.40373
372.45401,1.38638
372.21294,1.36408
371.97187,1.34708
371.73080,1.34092
371.48973,1.34234
371.24866,1.34576
371.00759,1.34994
370.76652,1.35398
370.52545,1.35062
370.28437,1.33295
370.04330,1.30624
369.80223,1.28133
369.56116,1.26162
369.32009,1.24562
369.07902,1.23478
368.83795,1.23252
368.59688,1.23840
368.35581,1.24665
368.11474,1.24925
367.87367,1.24168
367.63260,1.22774
367.39153,1.21649
367.15046,1.21296
366.90939,1.21388
366.66832,1.21383
366.42725,1.21315
366.18618,1.21522
365.94510,1.21771
365.70403,1.21497
365.46296,1.20769
365.22189,1.20115
364.98082,1.19640
364.73975,1.19075
364.49868,1.18379
364.25761,1.17765
364.01654,1.17409
363.77547,1.17428
363.53440,1.17842
363.29333,1.18405
363.05226,1.18751
362.81119,1.18732
362.57012,1.18380
362.32905,1.17794
362.08798,1.17225
361.84691,1.16984
361.60583,1.17111
361.36476,1.17298
361.12369,1.17057
360.88262,1.16091
360.64155,1.14765
360.40048,1.13984
360.15941,1.14267
359.91834,1.15083
359.67727,1.15460
359.43620,1.15245
359.19513,1.15168
358.95406,1.15647
358.71299,1.16192
358.47192,1.16252
358.23085,1.15983
357.98978,1.15727
357.74871,1.15459
357.50764,1.15127
357.26656,1.14926
357.02549,1.14917
356.78442,1.14824
356.54335,1.14450
356.30228,1.14063
356.06121,1.14180
355.82014,1.14945
355.57907,1.15800
355.33800,1.16060
355.09693,1.15761
354.85586,1.15371
354.61479,1.14907
354.37372,1.14181
354.13265,1.13616
353.89158,1.13850
353.65051,1.14721
353.40944,1.15409
353.16837,1.15607
352.92729,1.15850
352.68622,1.16472
352.44515,1.16915
352.20408,1.16429
351.96301,1.15153
351.72194,1.14068
351.48087,1.13853
351.23980,1.14291
350.99873,1.14859
350.75766,1.15429
350.51659,1.16146
350.27552,1.16980
350.03445,1.17689
349.79338,1.18085
349.55231,1.18212
349.31124,1.18280
349.07017,1.18382
348.82910,1.18466
348.58802,1.18510
348.34695,1.18535
348.10588,1.18436
347.86481,1.18065
347.62374,1.17575
347.38267,1.17360
347.14160,1.17593
346.90053,1.18118
346.65946,1.18834
346.41839,1.19861
346.17732,1.20991
345.93625,1.21459
345.69518,1.20737
345.45411,1.19369
345.21304,1.18487
344.97197,1.18699
344.73090,1.19944
344.48983,1.21966
344.24875,1.24145
344.00768,1.25373
343.76661,1.25208
343.52554,1.24531
343.28447,1.24355
343.04340,1.24859
342.80233,1.25755
342.56126,1.26804
342.32019,1.27892
342.07912,1.28930
341.83805,1.29741
341.59698,1.30187
341.35591,1.30346
341.11484,1.30714
340.87377,1.31753
340.63270,1.33055
340.39163,1.33747
340.15056,1.33769
339.90948,1.33934
339.66841,1.34665
339.42734,1.35378
339.18627,1.35544
338.94520,1.35652
338.70413,1.36230
338.46306,1.37124
338.22199,1.38113
337.98092,1.39329
337.73985,1.40779
337.49878,1.42151
337.25771,1.43094
337.01664,1.43159
336.77557,1.41981
336.53450,1.40003
336.29343,1.38403
336.05236,1.37948
335.81129,1.38237
335.57021,1.38226
335.32914,1.37331
335.08807,1.36056
334.84700,1.35541
334.60593,1.36499
334.36486,1.38486
334.12379,1.40398
333.88272,1.41500
333.64165,1.41204
333.40058,1.39072
333.15951,1.35930
332.91844,1.33448
332.67737,1.32421
332.43630,1.32415
332.19523,1.32595
331.95416,1.32235
331.71309,1.30997
331.47202,1.29280
331.23094,1.27874
330.98987,1.27201
330.74880,1.27169
330.50773,1.27341
330.26666,1.27095
330.02559,1.26195
329.78452,1.25193
329.54345,1.24809
329.30238,1.25227
329.06131,1.26170
328.82024,1.27089
328.57917,1.27338
328.33810,1.26673
328.09703,1.25552
327.85596,1.24828
327.61489,1.25020
327.37382,1.25715
327.13275,1.26038
326.89167,1.25804
326.65060,1.25552
326.40953,1.25839
326.16846,1.26697
325.92739,1.27791
325.68632,1.28891
325.44525,1.29831
325.20418,1.30263
324.96311,1.30032
324.72204,1.29673
324.48097,1.29835
324.23990,1.30218
323.99883,1.29917
323.75776,1.28777
323.51669,1.27691
323.27562,1.27739
323.03455,1.29253
322.79348,1.31865
322.55240,1.34642
322.31133,1.36165
322.07026,1.35848
321.82919,1.34637
321.58812,1.33630
321.34705,1.33179
321.10598,1.33250
320.86491,1.33882
320.62384,1.34840
320.38277,1.35058
320.14170,1.33736
319.90063,1.31778
319.65956,1.31001
319.41849,1.32050
319.17742,1.33701
318.93635,1.34261
318.69528,1.33347
318.45421,1.32208
318.21313,1.32663
317.97206,1.35389
317.73099,1.38419
317.48992,1.38247
317.24885,1.34307
317.00778,1.30156
316.76671,1.29076
316.52564,1.31388
316.28457,1.35009
316.04350,1.37695
315.80243,1.39201
315.56136,1.40274
315.32029,1.40055
315.07922,1.37413
314.83815,1.33810
314.59708,1.31617
314.35601,1.31778
314.11494,1.33553
313.87386,1.35513
313.63279,1.36811
313.39172,1.37260
313.15065,1.36639
312.90958,1.35312
312.66851,1.34496
312.42744,1.35042
312.18637,1.36429
311.94530,1.37309
311.70423,1.37018
311.46316,1.36117
311.22209,1.35657
310.98102,1.35723
310.73995,1.35599
310.49888,1.35057
310.25781,1.34338
310.01674,1.33741
309.77567,1.33651
309.53459,1.34239
309.29352,1.35188
309.05245,1.35848
308.81138,1.35996
308.57031,1.36279
308.32924,1.37331
308.08817,1.38685
307.84710,1.39073
307.60603,1.38217
307.36496,1.37327
307.12389,1.37395
306.88282,1.38517
306.64175,1.40278
306.40068,1.41774
306.15961,1.42062
305.91854,1.41324
305.67747,1.40485
305.43640,1.39823
305.19532,1.39289
304.95425,1.39472
304.71318,1.40804
304.47211,1.42297
304.23104,1.42471
303.98997,1.41380
303.74890,1.40380
303.50783,1.39904
303.26676,1.39147
303.02569,1.37964
302.78462,1.37077
302.54355,1.36375
302.30248,1.35188
302.06141,1.33539
301.82034,1.31948
301.57927,1.30772
301.33820,1.30155
301.09713,1.29938
300.85605,1.29373
300.61498,1.27875
300.37391,1.26008
300.13284,1.24644
299.89177,1.23913
299.65070,1.23514
299.40963,1.23218
299.16856,1.22866
298.92749,1.22530
298.68642,1.22624
298.44535,1.23250
298.20428,1.23607
297.96321,1.22863
297.72214,1.21279
297.48107,1.19762
297.24000,1.18889
296.99893,1.18708
296.75786,1.18915
296.51678,1.18925
296.27571,1.18283
296.03464,1.17215
295.79357,1.16391
295.55250,1.16170
295.31143,1.16270
295.07036,1.16034
294.82929,1.15140
294.58822,1.14020
294.34715,1.13349
294.10608,1.13345
293.86501,1.13743
293.62394,1.14027
293.38287,1.13637
293.14180,1.12517
292.90073,1.11387
292.65966,1.11032
292.41859,1.11439
292.17751,1.11861
291.93644,1.11665
291.69537,1.10916
291.45430,1.10129
291.21323,1.09616
290.97216,1.09259
290.73109,1.08848
290.49002,1.08456
290.24895,1.08316
290.00788,1.08416
289.76681,1.08492
289.52574,1.08337
289.28467,1.07980
289.04360,1.07552
288.80253,1.07040
288.56146,1.06351
288.32039,1.05565
288.07932,1.04971
287.83824,1.04748
287.59717,1.04889
287.35610,1.05385
287.11503,1.06037
286.87396,1.06317
286.63289,1.05888
286.39182,1.05083
286.15075,1.04532
285.90968,1.04464
285.66861,1.04650
285.42754,1.04846
285.18647,1.05015
284.94540,1.05169
284.70433,1.05243
284.46326,1.05187
284.22219,1.05075
283.98112,1.05100
283.74005,1.05398
283.49897,1.05825
283.25790,1.05986
283.01683,1.05721
282.77576,1.05440
282.53469,1.05603
282.29362,1.06038
282.05255,1.06213
281.81148,1.06049
281.57041,1.05975
281.32934,1.06173
281.08827,1.06315
280.84720,1.06147
280.60613,1.05889
280.36506,1.05869
280.12399,1.06108
279.88292,1.06330
279.64185,1.06216
279.40078,1.05686
279.15970,1.05024
278.91863,1.04659
278.67756,1.04722
278.43649,1.04950
278.19542,1.05057
277.95435,1.04984
277.71328,1.04786
277.47221,1.04527
277.23114,1.04320
276.99007,1.04259
276.74900,1.04303
276.50793,1.04340
276.26686,1.04340
276.02579,1.04451
275.78472,1.04821
275.54365,1.05305
275.30258,1.05553
275.06151,1.05450
274.82043,1.05242
274.57936,1.05200
274.33829,1.05378
274.09722,1.05651
273.85615,1.05892
273.61508,1.06182
273.37401,1.06726
273.13294,1.07498
272.89187,1.08172
272.65080,1.08608
272.40973,1.09057
272.16866,1.09691
271.92759,1.10341
271.68652,1.10751
271.44545,1.10786
271.20438,1.10491
270.96331,1.10160
270.72224,1.10096
270.48116,1.10263
270.24009,1.10448
269.99902,1.10608
269.75795,1.10815
269.51688,1.11102
269.27581,1.11488
269.03474,1.11907
268.79367,1.12168
268.55260,1.12247
268.31153,1.12530
268.07046,1.13438
267.82939,1.14859
267.58832,1.16163
267.34725,1.16904
267.10618,1.17349
266.86511,1.18075
266.62404,1.19208
266.38297,1.20333
266.14189,1.21058
265.90082,1.21419
265.65975,1.21740
265.41868,1.22369
265.17761,1.23539
264.93654,1.25161
264.69547,1.26702
264.45440,1.27692
264.21333,1.28417
263.97226,1.29645
263.73119,1.31663
263.49012,1.33854
263.24905,1.35423
263.00798,1.36365
262.76691,1.37258
262.52584,1.38385
262.28477,1.39525
262.04370,1.40611
261.80262,1.42096
261.56155,1.44307
261.32048,1.46885
261.07941,1.49286
260.83834,1.51442
260.59727,1.53438
260.35620,1.55107
260.11513,1.56596
259.87406,1.58638
259.63299,1.61936
259.39192,1.66719
259.15085,1.72791
258.90978,1.79402
258.66871,1.85151
258.42764,1.89122
258.18657,1.91675
257.94550,1.93103
257.70443,1.93965
257.46335,1.94376
257.22228,1.92804
256.98121,1.88797
256.74014,1.84271
256.49907,1.81081
256.25800,1.78809
256.01693,1.76176
255.77586,1.73169
255.53479,1.70651
255.29372,1.69166
255.05265,1.68699
254.81158,1.68968
254.57051,1.69363
254.32944,1.69065
254.08837,1.67496
253.84730,1.65030
253.60623,1.63039
253.36516,1.62347
253.12408,1.62341
252.88301,1.61851
252.64194,1.60573
252.40087,1.59372
252.15980,1.59343
251.91873,1.60409
251.67766,1.61126
251.43659,1.60244
251.19552,1.58063
250.95445,1.56024
250.71338,1.55259
250.47231,1.55664
250.23124,1.56343
249.99017,1.56637
249.74910,1.56307
249.50803,1.55457
249.26696,1.54495
249.02589,1.53741
248.78481,1.53274
248.54374,1.53079
248.30267,1.53303
248.06160,1.54135
247.82053,1.55481
247.57946,1.56746
247.33839,1.57272
247.09732,1.57309
246.85625,1.57690
246.61518,1.58406
246.37411,1.58386
246.13304,1.57477
245.89197,1.57378
245.65090,1.59453
245.40983,1.62975
245.16876,1.65781
244.92769,1.66687
244.68661,1.67265
244.44554,1.69884
244.20447,1.75924
243.96340,1.85061
243.72233,1.93521
243.48126,1.96023
243.24019,1.93418
242.99912,1.90752
242.75805,1.89970
242.51698,1.87573
242.27591,1.79616
242.03484,1.68799
241.79377,1.58018
241.55270,1.49098
241.31163,1.42437
241.07056,1.37155
240.82949,1.32187
240.58842,1.27226
240.34734,1.22491
240.10627,1.18071
239.86520,1.13970
239.62413,1.10349
239.38306,1.07245
239.14199,1.04391
238.90092,1.01675
238.65985,0.99385
238.41878,0.97641
238.17771,0.96051
237.93664,0.94201
237.69557,0.92200
237.45450,0.90439
237.21343,0.89074
236.97236,0.87940
236.73129,0.86824
236.49022,0.85684
236.24915,0.84626
236.00807,0.83726
235.76700,0.82954
235.52593,0.82258
235.28486,0.81652
235.04379,0.81157
234.80272,0.80774
234.56165,0.80531
234.32058,0.80437
234.07951,0.80341
233.83844,0.80011
233.59737,0.79432
233.35630,0.78903
233.11523,0.78662
232.87416,0.78536
232.63309,0.78178
232.39202,0.77620
232.15095,0.77234
231.90988,0.77128
231.66880,0.77019
231.42773,0.76708
231.18666,0.76319
230.94559,0.76036
230.70452,0.75909
230.46345,0.75971
230.22238,0.76272
229.98131,0.76715
229.74024,0.77076
229.49917,0.77185
229.25810,0.76975
229.01703,0.76483
228.77596,0.75933
228.53489,0.75631
228.29382,0.75669
228.05275,0.75869
227.81168,0.76016
227.57061,0.76025
227.32953,0.75919
227.08846,0.75780
226.84739,0.75716
226.60632,0.75777
226.36525,0.75928
226.12418,0.76064
225.88311,0.76041
225.64204,0.75864
225.40097,0.75764
225.15990,0.75903
224.91883,0.76146
224.67776,0.76296
224.43669,0.76325
224.19562,0.76304
223.95455,0.76377
223.71348,0.76798
223.47241,0.77635
223.23134,0.78489
222.99026,0.78917
222.74919,0.79043
222.50812,0.79272
222.26705,0.79638
222.02598,0.79946
221.78491,0.80348
221.54384,0.81206
221.30277,0.82480
221.06170,0.83752
220.82063,0.84873
220.57956,0.86093
220.33849,0.87474
220.09742,0.88655
219.85635,0.89359
219.61528,0.89677
219.37421,0.89857
219.13314,0.90251
218.89207,0.91375
218.65099,0.93466
218.40992,0.96011
218.16885,0.98182
217.92778,0.99742
217.68671,1.01016
217.44564,1.02159
217.20457,1.03084
216.96350,1.03922
216.72243,1.04982
216.48136,1.06264
216.24029,1.07407
215.99922,1.08274
215.75815,1.09278
215.51708,1.10923
215.27601,1.13217
215.03494,1.15654
214.79387,1.17598
214.55280,1.18794
214.31172,1.19687
214.07065,1.20947
213.82958,1.22614
213.58851,1.24128
213.34744,1.25206
213.10637,1.26257
212.86530,1.27831
212.62423,1.29819
212.38316,1.31156
212.14209,1.30895
211.90102,1.29537
211.65995,1.28356
211.41888,1.28155
211.17781,1.29130
210.93674,1.31126
210.69567,1.33644
210.45460,1.35630
210.21353,1.35702
209.97245,1.33494
209.73138,1.30478
209.49031,1.28512
209.24924,1.28358
209.00817,1.29562
208.76710,1.30889
208.52603,1.30978
208.28496,1.29529
208.04389,1.27443
207.80282,1.25506
207.56175,1.24241
207.32068,1.24203
207.07961,1.25421
206.83854,1.26855
206.59747,1.26995
206.35640,1.25232
206.11533,1.22407
205.87426,1.19833
205.63318,1.18101
205.39211,1.16830
205.15104,1.15314
204.90997,1.13337
204.66890,1.11293
204.42783,1.09600
204.18676,1.08227
203.94569,1.06864
203.70462,1.05456
203.46355,1.04304
203.22248,1.03559
202.98141,1.02834
202.74034,1.01476
202.49927,0.99301
202.25820,0.96880
202.01713,0.94880
201.77606,0.93436
201.53499,0.92198
201.29391,0.90734
201.05284,0.88877
200.81177,0.86877
200.57070,0.85238
200.32963,0.84243
200.08856,0.83604
199.84749,0.82744
199.60642,0.81458
199.36535,0.80071
199.12428,0.78916
198.88321,0.78008
198.64214,0.77216
198.40107,0.76407
198.16000,0.75413
197.91893,0.74186
197.67786,0.72961
197.43679,0.71997
197.19572,0.71266
196.95464,0.70502
196.71357,0.69445
196.47250,0.68060
196.23143,0.66642
195.99036,0.65595
195.74929,0.65063
195.50822,0.64788
195.26715,0.64274
195.02608,0.63289
194.78501,0.62209
194.54394,0.61659
194.30287,0.61804
194.06180,0.62090
193.82073,0.61853
193.57966,0.61091
193.33859,0.60279
193.09752,0.59698
192.85645,0.59251
192.61537,0.58733
192.37430,0.58107
192.13323,0.57487
191.89216,0.56997
191.65109,0.56639
191.41002,0.56298
191.16895,0.55907
190.92788,0.55576
190.68681,0.55475
190.44574,0.55562
190.20467,0.55570
189.96360,0.55320
189.72253,0.54943
189.48146,0.54707
189.24039,0.54693
188.99932,0.54728
188.75825,0.54648
188.51718,0.54499
188.27610,0.54360
188.03503,0.54156
187.79396,0.53847
187.55289,0.53634
187.31182,0.53692
187.07075,0.53832
186.82968,0.53758
186.58861,0.53589
186.34754,0.53683
186.10647,0.53996
185.86540,0.54088
185.62433,0.53821
185.38326,0.53574
185.14219,0.53661
184.90112,0.53970
184.66005,0.54297
184.41898,0.54658
184.17791,0.55119
183.93683,0.55558
183.69576,0.55777
183.45469,0.55784
183.21362,0.55806
182.97255,0.55963
182.73148,0.56083
182.49041,0.55991
182.24934,0.55809
182.00827,0.55745
181.76720,0.55830
181.52613,0.56018
181.28506,0.56280
181.04399,0.56513
180.80292,0.56647
180.56185,0.56780
180.32078,0.56967
180.07971,0.57112
179.83864,0.57296
179.59756,0.57803
179.35649,0.58634
179.11542,0.59458
178.87435,0.60159
178.63328,0.60949
178.39221,0.61945
178.15114,0.63089
177.91007,0.64384
177.66900,0.65765
177.42793,0.66947
177.18686,0.67805
176.94579,0.68698
176.70472,0.70106
176.46365,0.72075
176.22258,0.74175
175.98151,0.76038
175.74044,0.77815
175.49937,0.79885
175.25829,0.82306
175.01722,0.84841
174.77615,0.87287
174.53508,0.89468
174.29401,0.91269
174.05294,0.92841
173.81187,0.94407
173.57080,0.95964
173.32973,0.97468
173.08866,0.98957
172.84759,1.00400
172.60652,1.01752
172.36545,1.03077
172.12438,1.04413
171.88331,1.05597
171.64224,1.06348
171.40117,1.06461
171.16010,1.06046
170.91902,1.05408
170.67795,1.04574
170.43688,1.03341
170.19581,1.01763
169.95474,1.00236
169.71367,0.99117
169.47260,0.98375
169.23153,0.97657
168.99046,0.96828
168.74939,0.96292
168.50832,0.96390
168.26725,0.96725
168.02618,0.96652
167.78511,0.96240
167.54404,0.96011
167.30297,0.96012
167.06190,0.95892
166.82083,0.95625
166.57975,0.95607
166.33868,0.96110
166.09761,0.97015
165.85654,0.98041
165.61547,0.98972
165.37440,0.99721
165.13333,1.00384
164.89226,1.01110
164.65119,1.01790
164.41012,1.02225
164.16905,1.02691
163.92798,1.03830
163.68691,1.05872
163.44584,1.08431
163.20477,1.10983
162.96370,1.13058
162.72263,1.14274
162.48156,1.14729
162.24048,1.14986
161.99941,1.15413
161.75834,1.15917
161.51727,1.16296
161.27620,1.16506
161.03513,1.16555
160.79406,1.16581
160.55299,1.16911
160.31192,1.17631
160.07085,1.18293
159.82978,1.18197
159.58871,1.16905
159.34764,1.14603
159.10657,1.11995
158.86550,1.09896
158.62443,1.08970
158.38336,1.09443
158.14229,1.10705
157.90121,1.11548
157.66014,1.11151
157.41907,1.09594
157.17800,1.07470
156.93693,1.05451
156.69586,1.04242
156.45479,1.04289
156.21372,1.05158
155.97265,1.05650
155.73158,1.04980
155.49051,1.03484
155.24944,1.01875
155.00837,1.00469
154.76730,0.99196
154.52623,0.97915
154.28516,0.96641
154.04409,0.95461
153.80302,0.94249
153.56194,0.92629
153.32087,0.90482
153.07980,0.88230
152.83873,0.86261
152.59766,0.84455
152.35659,0.82470
152.11552,0.80232
151.87445,0.77939
151.63338,0.75746
151.39231,0.73733
151.15124,0.72014
150.91017,0.70535
150.66910,0.68953
150.42803,0.67067
150.18696,0.65175
149.94589,0.63684
149.70482,0.62624
149.46375,0.61780
149.22267,0.60994
148.98160,0.60119
148.74053,0.58998
148.49946,0.57714
148.25839,0.56680
148.01732,0.56255
147.77625,0.56353
147.53518,0.56494
147.29411,0.56310
147.05304,0.55946
146.81197,0.55810
146.57090,0.56085
146.32983,0.56573
146.08876,0.56962
145.84769,0.57200
145.60662,0.57514
145.36555,0.58084
145.12448,0.58814
144.88340,0.59469
144.64233,0.59936
144.40126,0.60296
144.16019,0.60659
143.91912,0.61024
143.67805,0.61277
143.43698,0.61277
143.19591,0.60946
142.95484,0.60296
142.71377,0.59389
142.47270,0.58302
142.23163,0.57152
141.99056,0.56117
141.74949,0.55290
141.50842,0.54546
141.26735,0.53692
141.02628,0.52756
140.78521,0.51970
140.54413,0.51507
140.30306,0.51355
140.06199,0.51417
139.82092,0.51617
139.57985,0.51943
139.33878,0.52446
139.09771,0.53175
138.85664,0.54091
138.61557,0.55051
138.37450,0.55910
138.13343,0.56685
137.89236,0.57611
137.65129,0.58981
137.41022,0.60826
137.16915,0.62855
136.92808,0.64800
136.68701,0.66718
136.44594,0.68787
136.20486,0.71068
135.96379,0.73580
135.72272,0.76337
135.48165,0.79241
135.24058,0.82320
134.99951,0.85907
134.75844,0.90108
134.51737,0.94371
134.27630,0.98164
134.03523,1.01588
133.79416,1.04820
133.55309,1.07753
133.31202,1.10545
133.07095,1.13455
132.82988,1.16146
132.58881,1.18023
132.34774,1.19010
132.10667,1.19302
131.86559,1.18933
131.62452,1.17980
131.38345,1.16584
131.14238,1.14722
130.90131,1.12265
130.66024,1.09364
130.41917,1.06547
130.17810,1.04017
129.93703,1.01223
129.69596,0.97643
129.45489,0.93424
129.21382,0.88983
128.97275,0.84575
128.73168,0.80383
128.49061,0.76535
128.24954,0.72994
128.00847,0.69706
127.76740,0.66833
127.52632,0.64573
127.28525,0.62783
127.04418,0.60978
126.80311,0.58811
126.56204,0.56401
126.32097,0.54101
126.07990,0.52144
125.83883,0.50576
125.59776,0.49319
125.35669,0.48252
125.11562,0.47332
124.87455,0.46557
124.63348,0.45835
124.39241,0.45042
124.15134,0.44232
123.91027,0.43570
123.66920,0.43104
123.42812,0.42754
123.18705,0.42456
122.94598,0.42207
122.70491,0.42086
122.46384,0.42224
122.22277,0.42660
121.98170,0.43266
121.74063,0.43858
121.49956,0.44377
121.25849,0.44879
121.01742,0.45388
120.77635,0.45839
120.53528,0.46232
120.29421,0.46764
120.05314,0.47713
119.81207,0.49214
119.57100,0.51207
119.32993,0.53592
119.08885,0.56310
118.84778,0.59326
118.60671,0.62619
118.36564,0.66225
118.12457,0.70107
117.88350,0.73906
117.64243,0.77053
117.40136,0.79306
117.16029,0.80883
116.91922,0.81920
116.67815,0.82249
116.43708,0.81732
116.19601,0.80476
115.95494,0.78678
115.71387,0.76565
115.47280,0.74455
115.23173,0.72643
114.99066,0.71331
114.74958,0.70607
114.50851,0.70295
114.26744,0.69962
114.02637,0.69269
113.78530,0.68295
113.54423,0.67315
113.30316,0.66430
113.06209,0.65689
112.82102,0.65330
112.57995,0.65593
112.33888,0.66442
112.09781,0.67666
111.85674,0.69138
111.61567,0.70862
111.37460,0.72811
111.13353,0.74671
110.89246,0.75818
110.65139,0.75840
110.41031,0.74987
110.16924,0.73788
109.92817,0.72487
109.68710,0.71110
109.44603,0.69723
109.20496,0.68334
108.96389,0.66849
108.72282,0.65268
108.48175,0.63638
108.24068,0.61751
107.99961,0.59243
107.75854,0.56131
107.51747,0.52966
107.27640,0.50368
107.03533,0.48576
106.79426,0.47489
106.55319,0.46928
106.31212,0.46651
106.07104,0.46078
105.82997,0.44491
105.58890,0.41918
105.34783,0.39247
105.10676,0.37291
104.86569,0.36265
104.62462,0.35941
104.38355,0.35920
104.14248,0.35774
103.90141,0.35188
103.66034,0.34132
103.41927,0.32854
103.17820,0.31683
102.93713,0.30885
102.69606,0.30607
102.45499,0.30769
102.21392,0.30949
101.97285,0.30642
101.73177,0.29791
101.49070,0.28856
101.24963,0.28293
101.00856,0.28214
100.76749,0.28420
100.52642,0.28518
100.28535,0.28127
100.04428,0.27276
99.80321,0.26479
99.56214,0.26268
99.32107,0.26726
99.08000,0.27341
98.83893,0.27344
98.59786,0.26568
98.35679,0.25733
98.11572,0.25625
97.87465,0.26296
97.63358,0.27002
97.39250,0.26992
97.15143,0.26442
96.91036,0.26242
96.66929,0.27018
96.42822,0.28553
96.18715,0.29925
95.94608,0.30406
95.70501,0.30424
95.46394,0.31029
95.22287,0.32500
94.98180,0.33969
94.74073,0.34598
94.49966,0.34702
94.25859,0.34908
94.01752,0.35072
93.77645,0.34745
93.53538,0.34198
93.29431,0.34169
93.05323,0.34808
92.81216,0.35419
92.57109,0.35402
92.33002,0.35152
92.08895,0.35329
91.84788,0.35811
91.60681,0.36132
91.36574,0.36637
91.12467,0.38001
90.88360,0.39953
90.64253,0.41841
90.40146,0.44247
90.16039,0.48272
89.91932,0.53707
89.67825,0.59372
89.43718,0.64782
89.19611,0.69779
88.95504,0.73569
88.71396,0.75862
88.47289,0.76656
88.23182,0.75055
87.99075,0.70869
87.74968,0.65612
87.50861,0.60541
87.26754,0.55766
87.02647,0.51209
86.78540,0.47120
86.54433,0.43680
86.30326,0.40744
86.06219,0.38080
85.82112,0.35669
85.58005,0.33553
85.33898,0.31578
85.09791,0.29631
84.85684,0.27928
84.61577,0.26615
84.37469,0.25418
84.13362,0.24110
83.89255,0.22938
83.65148,0.22218
83.41041,0.21893
83.16934,0.21643
82.92827,0.21252
82.68720,0.20754
82.44613,0.20299
82.20506,0.19964
81.96399,0.19732
81.72292,0.19570
81.48185,0.19445
81.24078,0.19344
80.99971,0.19290
80.75864,0.19253
80.51757,0.19129
80.27650,0.18899
80.03542,0.18644
79.79435,0.18422
79.55328,0.18268
79.31221,0.18235
79.07114,0.18319
78.83007,0.18428
78.58900,0.18457
78.34793,0.18367
78.10686,0.18193
77.86579,0.17965
77.62472,0.17623
77.38365,0.17141
77.14258,0.16687
76.90151,0.16491
76.66044,0.16596
76.41937,0.16809
76.17830,0.16904
75.93723,0.16829
75.69615,0.16736
75.45508,0.16790
75.21401,0.16960
74.97294,0.17007
74.73187,0.16704
74.49080,0.16122
74.24973,0.15656
74.00866,0.15697
73.76759,0.16252
73.52652,0.16915
73.28545,0.17181
73.04438,0.16864
72.80331,0.16285
72.56224,0.16000
72.32117,0.16314
72.08010,0.17108
71.83903,0.18025
71.59796,0.18682
71.35688,0.18830
71.11581,0.18494
70.87474,0.17963
70.63367,0.17637
70.39260,0.17914
70.15153,0.19101
69.91046,0.21289
69.66939,0.24266
69.42832,0.27464
69.18725,0.30006
68.94618,0.31029
68.70511,0.30192
68.46404,0.27874
68.22297,0.24862
67.98190,0.21926
67.74083,0.19558
67.49976,0.17925
67.25869,0.16963
67.01761,0.16503
66.77654,0.16302
66.53547,0.16078
66.29440,0.15688
66.05333,0.15285
65.81226,0.15177
65.57119,0.15486
65.33012,0.16023
65.08905,0.16571
64.84798,0.17184
64.60691,0.18051
64.36584,0.19147
64.12477,0.20157
63.88370,0.20698
63.64263,0.20516
63.40156,0.19583
63.16049,0.18174
62.91942,0.16767
62.67834,0.15668
62.43727,0.14853
62.19620,0.14224
61.95513,0.13822
61.71406,0.13669
61.47299,0.13653
61.23192,0.13727
60.99085,0.14025
60.74978,0.14706
60.50871,0.15857
60.26764,0.17494
60.02657,0.19411
59.78550,0.21086
59.54443,0.21964
59.30336,0.21800
59.06229,0.20678
58.82122,0.18814
58.58015,0.16523
58.33907,0.14289
58.09800,0.12608
57.85693,0.11694
57.61586,0.11477
57.37479,0.11850
57.13372,0.12739
56.89265,0.13954
56.65158,0.15166
56.41051,0.16145
56.16944,0.16933
55.92837,0.17537
55.68730,0.17513
55.44623,0.16360
55.20516,0.14381
54.96409,0.12518
54.72302,0.11483
54.48195,0.11447
54.24088,0.12504
53.99980,0.15033
53.75873,0.19187
53.51766,0.23554
53.27659,0.24605
53.03552,0.21085
52.79445,0.16306
52.55338,0.12983
52.31231,0.12108
52.07124,0.13814
51.83017,0.17668
51.58910,0.22392
51.34803,0.24394
51.10696,0.20695
50.86589,0.15213
50.62482,0.11843
50.38375,0.11746
50.14268,0.15061
49.90161,0.20377
49.66053,0.22405
49.41946,0.17737
49.17839,0.12150
48.93732,0.10519
48.69625,0.14040
48.45518,0.19749
48.21411,0.19757
47.97304,0.14565
47.73197,0.11795
47.49090,0.14119
47.24983,0.18858
47.00876,0.18763
46.76769,0.13934
46.52662,0.11790
46.28555,0.13485
46.04448,0.14492
45.80341,0.12608
45.56234,0.12111
45.32126,0.14912
45.08019,0.17021
44.83912,0.15804
44.59805,0.14974
44.35698,0.15907
44.11591,0.16394
43.87484,0.16275
43.63377,0.17126
43.39270,0.18057
43.15163,0.17853
42.91056,0.17432
42.66949,0.17443
42.42842,0.17472
42.18735,0.17561
41.94628,0.17741
41.70521,0.17385
41.46414,0.16444
41.22307,0.15931
40.98199,0.16761
40.74092,0.18528
40.49985,0.19547
40.25878,0.19273
40.01771,0.19139
39.77664,0.19820
39.53557,0.20449
39.29450,0.20652
39.05343,0.21068
38.81236,0.21644
38.57129,0.21955
38.33022,0.22467
38.08915,0.23855
37.84808,0.25969
37.60701,0.27767
37.36594,0.27998
37.12487,0.26506
36.88380,0.24501
36.64272,0.23321
36.40165,0.23652
36.16058,0.24933
35.91951,0.25601
35.67844,0.25175
35.43737,0.24709
35.19630,0.24619
34.95523,0.24268
34.71416,0.23821
34.47309,0.24199
34.23202,0.25584
33.99095,0.27528
33.74988,0.29144
33.50881,0.28959
33.26774,0.26530
33.02667,0.23323
32.78560,0.20952
32.54453,0.20257
32.30345,0.21109
32.06238,0.21859
31.82131,0.20495
31.58024,0.17091
31.33917,0.13753
31.09810,0.12104
30.85703,0.11505
30.61596,0.10276
30.37489,0.08492
30.13382,0.07873
29.89275,0.08865
29.65168,0.09523
29.41061,0.08111
29.16954,0.05391
28.92847,0.03249
28.68740,0.02512
28.44633,0.02836
28.20526,0.03402
27.96418,0.03389
27.72311,0.02271
27.48204,0.00181
27.24097,-0.01730
26.99990,-0.02337
26.75883,-0.01433
26.51776,0.00073
26.27669,0.00672
26.03562,-0.00467
25.79455,-0.03142
25.55348,-0.06878
25.31241,-0.10947
25.07134,-0.14430
24.83027,-0.17116
24.58920,-0.19438
24.34813,-0.21927
24.10706,-0.24924
23.86599,-0.27780
23.62491,-0.28773
23.38384,-0.27206
23.14277,-0.24570
22.90170,-0.22719
22.66063,-0.22097
22.41956,-0.22811
22.17849,-0.24353
21.93742,-0.24956
21.69635,-0.24174
21.45528,-0.24183
21.21421,-0.26723
20.97314,-0.28073
20.73207,-0.27011
20.49100,-0.25374
20.24993,-0.24416
20.00886,-0.25229
19.76779,-0.27438
19.52672,-0.29369
19.28564,-0.29237
19.04457,-0.28691
18.80350,-0.28719
18.56243,-0.28707
18.32136,-0.28040
18.08029,-0.27311
17.83922,-0.27708
17.59815,-0.28973
17.35708,-0.31245
17.11601,-0.32396
16.87494,-0.30839
16.63387,-0.30287
16.39280,-0.32155
16.15173,-0.34915
15.91066,-0.34551
15.66959,-0.34315
15.42852,-0.34854
15.18745,-0.31892
14.94637,-0.30748
14.70530,-0.33509
14.46423,-0.38031
14.22316,-0.40324
13.98209,-0.39010
13.74102,-0.37863
13.49995,-0.36939
13.25888,-0.35019
13.01781,-0.33816
12.77674,-0.33501
12.53567,-0.32393
12.29460,-0.30124
12.05353,-0.27938
11.81246,-0.26999
11.57139,-0.27117
11.33032,-0.26641
11.08925,-0.26893
10.84818,-0.29337
10.60710,-0.32154
10.36603,-0.31741
10.12496,-0.27382
9.88389,-0.23082
9.64282,-0.22161
9.40175,-0.25007
9.16068,-0.29590
8.91961,-0.33613
8.67854,-0.35292
8.43747,-0.34385
8.19640,-0.33299
7.95533,-0.32939
7.71426,-0.33340
7.47319,-0.34278
7.23212,-0.34406
6.99105,-0.33114
6.74998,-0.31219
6.50891,-0.29207
6.26783,-0.27059
6.02676,-0.26225
5.78569,-0.27886
5.54462,-0.31292
5.30355,-0.34733
5.06248,-0.36371
4.82141,-0.35601
4.58034,-0.34111
4.33927,-0.33553
4.09820,-0.33957
3.85713,-0.34280
3.61606,-0.33712
3.37499,-0.32873
3.13392,-0.33039
2.89285,-0.34037
2.65178,-0.33809
2.41071,-0.31915
2.16964,-0.30950
1.92856,-0.31331
1.68749,-0.32308
1.44642,-0.33826
1.20535,-0.34836
0.96428,-0.35500
0.72321,-0.37828
0.48214,-0.41645
0.24107,-0.38254
-0.00000,-0.10638
