399.69498,1.51807
399.45391,1.52548
399.21284,1.52646
398.97177,1.51770
398.73070,1.50563
398.48963,1.49611
398.24856,1.48904
398.00749,1.48679
397.76642,1.49444
397.52535,1.50933
397.28428,1.52032
397.04321,1.52107
396.80214,1.51618
396.56107,1.51257
396.32000,1.51522
396.07892,1.52849
395.83785,1.54895
395.59678,1.56158
395.35571,1.55690
395.11464,1.54598
394.87357,1.54505
394.63250,1.55410
394.39143,1.56167
394.15036,1.56358
393.90929,1.56237
393.66822,1.55681
393.42715,1.54396
393.18608,1.52847
392.94501,1.52131
392.70394,1.52527
392.46287,1.52827
392.22180,1.52067
391.98073,1.50902
391.73965,1.50397
391.49858,1.50584
391.25751,1.50749
391.01644,1.50945
390.77537,1.51695
390.53430,1.52525
390.29323,1.52656
390.05216,1.52433
389.81109,1.52296
389.57002,1.51716
389.32895,1.50780
389.08788,1.50764
388.84681,1.51790
388.60574,1.52387
388.36467,1.51763
388.12360,1.50591
387.88253,1.49519
387.64146,1.48204
387.40038,1.46152
387.15931,1.43732
386.91824,1.42127
386.67717,1.42147
386.43610,1.43013
386.19503,1.42813
385.95396,1.40959
385.71289,1.39154
385.47182,1.38801
385.23075,1.39326
384.98968,1.39473
384.74861,1.38794
384.50754,1.38119
384.26647,1.38268
384.02540,1.39004
383.78433,1.39787
383.54326,1.40223
383.30219,1.39605
383.06111,1.37499
382.82004,1.34494
382.57897,1.31878
382.33790,1.30673
382.09683,1.30790
381.85576,1.31220
381.61469,1.31132
381.37362,1.30480
381.13255,1.29746
380.89148,1.29248
380.65041,1.28898
380.40934,1.28542
380.16827,1.28466
379.92720,1.29263
379.68613,1.30929
379.44506,1.32573
379.20399,1.33343
378.96292,1.33245
378.72184,1.33088
378.48077,1.33561
378.23970,1.34660
377.99863,1.35932
377.75756,1.37040
377.51649,1.38135
377.27542,1.39368
377.03435,1.40314
376.79328,1.40825
376.55221,1.41626
376.31114,1.43095
376.07007,1.44445
375.82900,1.44840
375.58793,1.44523
375.34686,1.43869
375.10579,1.42816
374.86472,1.41768
374.62365,1.41584
374.38257,1.42320
374.14150,1.43028
373.90043,1.42968
373.65936,1.42312
373.41829,1.41523
373.17722,1.40640
372.93615,1.39565
372.69508,1.38606
372.45401,1.38199
372.21294,1.38247
371.97187,1.38146
371.73080,1.37475
371.48973,1.36459
371.24866,1.35681
371.00759,1.35464
370.76652,1.35488
370.52545,1.34909
370.28437,1.33175
370.04330,1.30920
369.80223,1.29523
369.56116,1.29630
369.32009,1.30485
369.07902,1.30871
368.83795,1.30339
368.59688,1.29247
368.35581,1.28161
368.11474,1.27438
367.87367,1.27151
367.63260,1.27132
367.39153,1.27157
367.15046,1.27188
366.90939,1.27301
366.66832,1.27387
366.42725,1.27230
366.18618,1.26800
365.94510,1.26225
365.70403,1.25633
365.46296,1.25144
365.22189,1.24895
364.98082,1.24885
364.73975,1.24850
364.49868,1.24622
364.25761,1.24343
364.01654,1.24159
363.77547,1.24032
363.53440,1.23887
363.29333,1.23771
363.05226,1.23765
362.81119,1.23767
362.57012,1.23471
362.32905,1.22685
362.08798,1.21633
361.84691,1.20836
361.60583,1.20672
361.36476,1.20991
361.12369,1.21244
360.88262,1.21189
360.64155,1.21205
360.40048,1.21612
360.15941,1.22023
359.91834,1.21753
359.67727,1.20771
359.43620,1.19727
359.19513,1.19185
358.95406,1.19257
358.71299,1.19813
358.47192,1.20612
358.23085,1.21208
357.98978,1.21207
357.74871,1.20805
357.50764,1.20663
357.26656,1.21058
357.02549,1.21489
356.78442,1.21385
356.54335,1.20946
356.30228,1.20761
356.06121,1.20905
355.82014,1.21002
355.57907,1.20925
355.33800,1.20904
355.09693,1.20985
354.85586,1.20791
354.61479,1.20042
354.37372,1.19246
354.13265,1.19212
353.89158,1.19897
353.65051,1.20426
353.40944,1.20344
353.16837,1.20092
352.92729,1.20072
352.68622,1.20114
352.44515,1.19999
352.20408,1.19771
351.96301,1.19562
351.72194,1.19574
351.48087,1.20109
351.23980,1.21208
350.99873,1.22291
350.75766,1.22538
350.51659,1.21812
350.27552,1.20801
350.03445,1.20271
349.79338,1.20605
349.55231,1.21767
349.31124,1.23148
349.07017,1.23841
348.82910,1.23675
348.58802,1.23409
348.34695,1.23525
348.10588,1.23587
347.86481,1.23138
347.62374,1.22496
347.38267,1.22247
347.14160,1.22570
346.90053,1.23304
346.65946,1.24183
346.41839,1.24941
346.17732,1.25523
345.93625,1.26188
345.69518,1.27080
345.45411,1.27833
345.21304,1.27931
344.97197,1.27381
344.73090,1.26763
344.48983,1.26669
344.24875,1.27254
344.00768,1.28149
343.76661,1.28821
343.52554,1.29286
343.28447,1.30046
343.04340,1.31203
342.80233,1.32418
342.56126,1.33460
342.32019,1.34046
342.07912,1.33850
341.83805,1.32987
341.59698,1.32111
341.35591,1.32035
341.11484,1.33098
340.87377,1.34834
340.63270,1.36293
340.39163,1.36799
340.15056,1.36627
339.90948,1.36751
339.66841,1.37714
339.42734,1.38861
339.18627,1.39153
338.94520,1.38708
338.70413,1.38619
338.46306,1.39390
338.22199,1.40467
337.98092,1.41382
337.73985,1.42308
337.49878,1.43047
337.25771,1.43076
337.01664,1.42517
336.77557,1.41888
336.53450,1.41093
336.29343,1.39759
336.05236,1.38390
335.81129,1.38036
335.57021,1.39012
335.32914,1.40489
335.08807,1.41321
334.84700,1.41242
334.60593,1.40998
334.36486,1.41097
334.12379,1.41083
333.88272,1.40355
333.64165,1.39038
333.40058,1.37740
333.15951,1.36916
332.91844,1.36460
332.67737,1.35622
332.43630,1.34008
332.19523,1.32612
331.95416,1.32681
331.71309,1.34040
331.47202,1.35416
331.23094,1.36093
330.98987,1.36222
330.74880,1.35601
330.50773,1.33832
330.26666,1.31570
330.02559,1.30087
329.78452,1.29801
329.54345,1.30039
329.30238,1.30115
329.06131,1.30040
328.82024,1.30201
328.57917,1.30868
328.33810,1.31968
328.09703,1.32900
327.85596,1.32843
327.61489,1.31893
327.37382,1.31119
327.13275,1.30861
326.89167,1.30254
326.65060,1.28900
326.40953,1.27725
326.16846,1.27691
325.92739,1.28803
325.68632,1.30551
325.44525,1.32487
325.20418,1.34165
324.96311,1.35189
324.72204,1.35367
324.48097,1.34717
324.23990,1.33665
323.99883,1.32958
323.75776,1.32827
323.51669,1.32760
323.27562,1.32420
323.03455,1.32222
322.79348,1.32424
322.55240,1.32473
322.31133,1.32022
322.07026,1.31578
321.82919,1.31420
321.58812,1.31090
321.34705,1.30389
321.10598,1.29955
320.86491,1.30395
320.62384,1.31397
320.38277,1.32154
320.14170,1.32437
319.90063,1.32831
319.65956,1.33799
319.41849,1.34842
319.17742,1.35046
318.93635,1.34498
318.69528,1.34185
318.45421,1.34507
318.21313,1.34963
317.97206,1.35241
317.73099,1.35557
317.48992,1.35824
317.24885,1.35784
317.00778,1.36011
316.76671,1.37153
316.52564,1.38264
316.28457,1.37555
316.04350,1.35205
315.80243,1.33081
315.56136,1.32094
315.32029,1.31845
315.07922,1.32059
314.83815,1.33078
314.59708,1.35076
314.35601,1.37441
314.11494,1.39014
313.87386,1.39180
313.63279,1.38759
313.39172,1.38989
313.15065,1.40108
312.90958,1.41102
312.66851,1.40839
312.42744,1.39437
312.18637,1.37923
311.94530,1.37121
311.70423,1.37503
311.46316,1.38865
311.22209,1.40370
310.98102,1.41809
310.73995,1.43591
310.49888,1.45366
310.25781,1.46072
310.01674,1.45269
309.77567,1.43660
309.53459,1.42257
309.29352,1.41312
309.05245,1.40732
308.81138,1.40839
308.57031,1.42251
308.32924,1.44671
308.08817,1.46121
307.84710,1.45126
307.60603,1.42897
307.36496,1.41355
307.12389,1.40982
306.88282,1.41363
306.64175,1.42187
306.40068,1.43125
306.15961,1.43667
305.91854,1.43700
305.67747,1.43571
305.43640,1.43262
305.19532,1.42559
304.95425,1.41876
304.71318,1.41756
304.47211,1.41888
304.23104,1.41491
303.98997,1.40484
303.74890,1.39392
303.50783,1.38355
303.26676,1.37125
303.02569,1.35829
302.78462,1.34888
302.54355,1.34399
302.30248,1.34339
302.06141,1.34752
301.82034,1.35172
301.57927,1.34771
301.33820,1.33544
301.09713,1.32348
300.85605,1.31571
300.61498,1.30750
300.37391,1.29608
300.13284,1.28642
299.89177,1.28361
299.65070,1.28467
299.40963,1.28280
299.16856,1.27772
298.92749,1.27458
298.68642,1.27291
298.44535,1.26639
298.20428,1.25421
297.96321,1.24306
297.72214,1.23651
297.48107,1.23081
297.24000,1.22260
296.99893,1.21350
296.75786,1.20607
296.51678,1.20091
296.27571,1.19738
296.03464,1.19387
295.79357,1.18896
295.55250,1.18394
295.31143,1.18260
295.07036,1.18648
294.82929,1.19247
294.58822,1.19703
294.34715,1.19939
294.10608,1.19835
293.86501,1.19182
293.62394,1.18118
293.38287,1.17153
293.14180,1.16656
292.90073,1.16579
292.65966,1.16609
292.41859,1.16420
292.17751,1.15925
291.93644,1.15408
291.69537,1.15197
291.45430,1.15203
291.21323,1.15030
290.97216,1.14527
290.73109,1.13923
290.49002,1.13399
290.24895,1.12883
290.00788,1.12372
289.76681,1.12116
289.52574,1.12292
289.28467,1.12658
289.04360,1.12776
288.80253,1.12512
288.56146,1.12045
288.32039,1.11581
288.07932,1.11264
287.83824,1.11146
287.59717,1.11160
287.35610,1.11235
287.11503,1.11418
286.87396,1.11671
286.63289,1.11728
286.39182,1.11387
286.15075,1.10827
285.90968,1.10382
285.66861,1.10146
285.42754,1.10048
285.18647,1.10148
284.94540,1.10514
284.70433,1.10926
284.46326,1.11089
284.22219,1.11051
283.98112,1.11088
283.74005,1.11271
283.49897,1.11331
283.25790,1.10915
283.01683,1.09992
282.77576,1.09047
282.53469,1.08732
282.29362,1.09240
282.05255,1.10059
281.81148,1.10501
281.57041,1.10465
281.32934,1.10378
281.08827,1.10482
280.84720,1.10618
280.60613,1.10651
280.36506,1.10702
280.12399,1.10879
279.88292,1.10977
279.64185,1.10685
279.40078,1.10084
279.15970,1.09672
278.91863,1.09722
278.67756,1.09884
278.43649,1.09693
278.19542,1.09287
277.95435,1.09163
277.71328,1.09444
277.47221,1.09854
277.23114,1.10217
276.99007,1.10613
276.74900,1.11092
276.50793,1.11505
276.26686,1.11735
276.02579,1.11888
275.78472,1.12051
275.54365,1.12081
275.30258,1.11874
275.06151,1.11557
274.82043,1.11285
274.57936,1.11123
274.33829,1.11166
274.09722,1.11463
273.85615,1.11886
273.61508,1.12236
273.37401,1.12444
273.13294,1.12614
272.89187,1.12966
272.65080,1.13610
272.40973,1.14311
272.16866,1.14695
271.92759,1.14730
271.68652,1.14757
271.44545,1.15031
271.20438,1.15488
270.96331,1.15899
270.72224,1.16104
270.48116,1.16177
270.24009,1.16416
269.99902,1.17003
269.75795,1.17678
269.51688,1.18041
269.27581,1.18127
269.03474,1.18362
268.79367,1.19011
268.55260,1.19937
268.31153,1.20806
268.07046,1.21433
267.82939,1.21959
267.58832,1.22654
267.34725,1.23547
267.10618,1.24373
266.86511,1.24862
266.62404,1.24960
266.38297,1.24831
266.14189,1.24807
265.90082,1.25280
265.65975,1.26487
265.41868,1.28309
265.17761,1.30250
264.93654,1.31806
264.69547,1.32878
264.45440,1.33619
264.21333,1.34100
263.97226,1.34400
263.73119,1.34878
263.49012,1.35949
263.24905,1.37647
263.00798,1.39640
262.76691,1.41646
262.52584,1.43598
262.28477,1.45243
262.04370,1.46180
261.80262,1.46747
261.56155,1.47941
261.32048,1.50111
261.07941,1.52654
260.83834,1.55112
260.59727,1.57741
260.35620,1.60776
260.11513,1.64055
259.87406,1.67431
259.63299,1.70601
259.39192,1.72960
259.15085,1.74478
258.90978,1.75837
258.66871,1.77580
258.42764,1.80160
258.18657,1.83919
257.94550,1.87918
257.70443,1.89877
257.46335,1.89132
257.22228,1.87731
256.98121,1.87222
256.74014,1.86858
256.49907,1.84828
256.25800,1.81270
256.01693,1.78432
255.77586,1.77638
255.53479,1.77790
255.29372,1.76411
255.05265,1.73099
254.81158,1.69658
254.57051,1.67218
254.32944,1.66118
254.08837,1.66413
253.84730,1.67642
253.60623,1.68891
253.36516,1.69363
253.12408,1.68694
252.88301,1.66690
252.64194,1.63445
252.40087,1.59699
252.15980,1.56576
251.91873,1.55045
251.67766,1.55324
251.43659,1.56624
251.19552,1.57686
250.95445,1.57871
250.71338,1.57582
250.47231,1.57491
250.23124,1.57660
249.99017,1.57482
249.74910,1.56550
249.50803,1.55342
249.26696,1.54693
249.02589,1.54972
248.78481,1.55865
248.54374,1.56604
248.30267,1.56448
248.06160,1.55336
247.82053,1.54176
247.57946,1.53967
247.33839,1.54938
247.09732,1.56717
246.85625,1.58724
246.61518,1.60473
246.37411,1.61675
246.13304,1.62103
245.89197,1.62002
245.65090,1.62400
245.40983,1.63981
245.16876,1.66088
244.92769,1.68048
244.68661,1.70240
244.44554,1.72651
244.20447,1.74111
243.96340,1.74228
243.72233,1.74804
243.48126,1.78196
243.24019,1.85356
242.99912,1.95084
242.75805,2.02079
242.51698,1.98572
242.27591,1.88040
242.03484,1.77931
241.79377,1.68553
241.55270,1.58946
241.31163,1.49651
241.07056,1.41672
240.82949,1.35334
240.58842,1.30376
240.34734,1.26517
240.10627,1.23419
239.86520,1.20461
239.62413,1.17154
239.38306,1.13687
239.14199,1.10588
238.90092,1.07988
238.65985,1.05580
238.41878,1.03091
238.17771,1.00525
237.93664,0.98082
237.69557,0.95999
237.45450,0.94432
237.21343,0.93322
236.97236,0.92309
236.73129,0.90988
236.49022,0.89391
236.24915,0.87985
236.00807,0.87074
235.76700,0.86458
235.52593,0.85808
235.28486,0.85121
235.04379,0.84631
234.80272,0.84413
234.56165,0.84247
234.32058,0.83852
234.07951,0.83210
233.83844,0.82528
233.59737,0.81926
233.35630,0.81352
233.11523,0.80809
232.87416,0.80456
232.63309,0.80377
232.39202,0.80397
232.15095,0.80250
231.90988,0.79889
231.66880,0.79525
231.42773,0.79372
231.18666,0.79441
230.94559,0.79597
230.70452,0.79737
230.46345,0.79839
230.22238,0.79912
229.98131,0.79930
229.74024,0.79819
229.49917,0.79546
229.25810,0.79163
229.01703,0.78754
228.77596,0.78423
228.53489,0.78330
228.29382,0.78527
228.05275,0.78780
227.81168,0.78757
227.57061,0.78456
227.32953,0.78198
227.08846,0.78184
226.84739,0.78292
226.60632,0.78344
226.36525,0.78353
226.12418,0.78453
225.88311,0.78675
225.64204,0.78908
225.40097,0.79000
225.15990,0.78924
224.91883,0.78880
224.67776,0.79086
224.43669,0.79506
224.19562,0.79924
223.95455,0.80272
223.71348,0.80703
223.47241,0.81312
223.23134,0.81932
222.99026,0.82282
222.74919,0.82319
222.50812,0.82314
222.26705,0.82532
222.02598,0.83041
221.78491,0.83904
221.54384,0.85165
221.30277,0.86541
221.06170,0.87610
220.82063,0.88349
220.57956,0.89018
220.33849,0.89680
220.09742,0.90361
219.85635,0.91303
219.61528,0.92565
219.37421,0.93815
219.13314,0.94812
218.89207,0.95709
218.65099,0.96732
218.40992,0.97943
218.16885,0.99354
217.92778,1.00995
217.68671,1.02838
217.44564,1.04741
217.20457,1.06536
216.96350,1.08169
216.72243,1.09641
216.48136,1.10890
216.24029,1.11909
215.99922,1.12964
215.75815,1.14529
215.51708,1.16941
215.27601,1.20086
215.03494,1.23243
214.79387,1.25426
214.55280,1.26273
214.31172,1.26439
214.07065,1.26801
213.82958,1.27547
213.58851,1.28343
213.34744,1.29133
213.10637,1.30292
212.86530,1.32088
212.62423,1.34191
212.38316,1.35834
212.14209,1.36599
211.90102,1.36858
211.65995,1.37228
211.41888,1.37832
211.17781,1.38251
210.93674,1.38223
210.69567,1.38180
210.45460,1.38782
210.21353,1.40164
209.97245,1.42028
209.73138,1.43969
209.49031,1.45256
209.24924,1.45009
209.00817,1.43189
208.76710,1.40864
208.52603,1.39148
208.28496,1.38210
208.04389,1.37638
207.80282,1.37213
207.56175,1.36772
207.32068,1.35871
207.07961,1.34197
206.83854,1.32105
206.59747,1.30298
206.35640,1.29104
206.11533,1.28255
205.87426,1.27242
205.63318,1.25728
205.39211,1.23751
205.15104,1.21560
204.90997,1.19300
204.66890,1.17056
204.42783,1.15154
204.18676,1.13970
203.94569,1.13324
203.70462,1.12508
203.46355,1.11069
203.22248,1.09142
202.98141,1.07008
202.74034,1.04901
202.49927,1.03044
202.25820,1.01405
202.01713,0.99667
201.77606,0.97681
201.53499,0.95664
201.29391,0.93853
201.05284,0.92232
200.81177,0.90667
200.57070,0.89134
200.32963,0.87709
200.08856,0.86443
199.84749,0.85316
199.60642,0.84253
199.36535,0.83164
199.12428,0.82021
198.88321,0.80902
198.64214,0.79889
198.40107,0.78881
198.16000,0.77633
197.91893,0.76081
197.67786,0.74504
197.43679,0.73292
197.19572,0.72591
196.95464,0.72161
196.71357,0.71576
196.47250,0.70587
196.23143,0.69303
195.99036,0.68038
195.74929,0.67053
195.50822,0.66417
195.26715,0.65993
195.02608,0.65555
194.78501,0.64962
194.54394,0.64247
194.30287,0.63574
194.06180,0.63084
193.82073,0.62741
193.57966,0.62368
193.33859,0.61883
193.09752,0.61412
192.85645,0.61071
192.61537,0.60758
192.37430,0.60306
192.13323,0.59741
191.89216,0.59229
191.65109,0.58835
191.41002,0.58483
191.16895,0.58104
190.92788,0.57684
190.68681,0.57253
190.44574,0.56875
190.20467,0.56618
189.96360,0.56470
189.72253,0.56318
189.48146,0.56105
189.24039,0.55937
188.99932,0.55934
188.75825,0.56005
188.51718,0.55891
188.27610,0.55514
188.03503,0.55123
187.79396,0.54987
187.55289,0.55059
187.31182,0.55060
187.07075,0.54878
186.82968,0.54699
186.58861,0.54692
186.34754,0.54744
186.10647,0.54656
185.86540,0.54471
185.62433,0.54412
185.38326,0.54546
185.14219,0.54710
184.90112,0.54768
184.66005,0.54799
184.41898,0.54950
184.17791,0.55213
183.93683,0.55475
183.69576,0.55720
183.45469,0.56017
183.21362,0.56357
182.97255,0.56637
182.73148,0.56810
182.49041,0.56929
182.24934,0.57056
182.00827,0.57233
181.76720,0.57504
181.52613,0.57842
181.28506,0.58106
181.04399,0.58186
180.80292,0.58178
180.56185,0.58302
180.32078,0.58667
180.07971,0.59159
179.83864,0.59581
179.59756,0.59856
179.35649,0.60096
179.11542,0.60483
178.87435,0.61137
178.63328,0.62051
178.39221,0.63086
178.15114,0.64083
177.91007,0.65088
177.66900,0.66288
177.42793,0.67700
177.18686,0.69178
176.94579,0.70759
176.70472,0.72620
176.46365,0.74693
176.22258,0.76759
175.98151,0.78820
175.74044,0.80940
175.49937,0.83004
175.25829,0.85057
175.01722,0.87357
174.77615,0.89858
174.53508,0.92190
174.29401,0.94269
174.05294,0.96399
173.81187,0.98693
173.57080,1.00883
173.32973,1.02727
173.08866,1.04207
172.84759,1.05417
172.60652,1.06550
172.36545,1.07773
172.12438,1.08947
171.88331,1.09688
171.64224,1.09888
171.40117,1.09840
171.16010,1.09742
170.91902,1.09401
170.67795,1.08532
170.43688,1.07278
170.19581,1.06144
169.95474,1.05357
169.71367,1.04625
169.47260,1.03663
169.23153,1.02631
168.99046,1.01828
168.74939,1.01230
168.50832,1.00616
168.26725,0.99956
168.02618,0.99402
167.78511,0.99057
167.54404,0.98975
167.30297,0.99249
167.06190,0.99847
166.82083,1.00476
166.57975,1.00868
166.33868,1.01084
166.09761,1.01269
165.85654,1.01381
165.61547,1.01456
165.37440,1.01817
165.13333,1.02730
164.89226,1.04118
164.65119,1.05809
164.41012,1.07802
164.16905,1.10075
163.92798,1.12395
163.68691,1.14514
163.44584,1.16347
163.20477,1.17754
162.96370,1.18525
162.72263,1.18814
162.48156,1.19185
162.24048,1.20054
161.99941,1.21268
161.75834,1.22351
161.51727,1.23106
161.27620,1.23734
161.03513,1.24389
160.79406,1.24907
160.55299,1.24919
160.31192,1.24179
160.07085,1.22831
159.82978,1.21344
159.58871,1.20098
159.34764,1.19052
159.10657,1.17975
158.86550,1.16957
158.62443,1.16350
158.38336,1.16185
158.14229,1.16024
157.90121,1.15408
157.66014,1.14223
157.41907,1.12733
157.17800,1.11513
156.93693,1.11069
156.69586,1.11282
156.45479,1.11388
156.21372,1.10792
155.97265,1.09631
155.73158,1.08257
155.49051,1.06713
155.24944,1.05030
155.00837,1.03514
154.76730,1.02401
154.52623,1.01546
154.28516,1.00655
154.04409,0.99549
153.80302,0.98064
153.56194,0.96004
153.32087,0.93402
153.07980,0.90661
152.83873,0.88197
152.59766,0.86081
152.35659,0.84154
152.11552,0.82277
151.87445,0.80365
151.63338,0.78336
151.39231,0.76220
151.15124,0.74233
150.91017,0.72558
150.66910,0.71100
150.42803,0.69570
150.18696,0.67811
149.94589,0.65934
149.70482,0.64166
149.46375,0.62679
149.22267,0.61540
148.98160,0.60653
148.74053,0.59827
148.49946,0.58972
148.25839,0.58186
148.01732,0.57599
147.77625,0.57223
147.53518,0.57000
147.29411,0.56893
147.05304,0.56856
146.81197,0.56828
146.57090,0.56841
146.32983,0.57055
146.08876,0.57598
145.84769,0.58366
145.60662,0.59070
145.36555,0.59525
145.12448,0.59823
144.88340,0.60212
144.64233,0.60825
144.40126,0.61570
144.16019,0.62221
143.91912,0.62614
143.67805,0.62731
143.43698,0.62604
143.19591,0.62172
142.95484,0.61304
142.71377,0.60035
142.47270,0.58710
142.23163,0.57692
141.99056,0.56939
141.74949,0.56127
141.50842,0.55149
141.26735,0.54258
141.02628,0.53669
140.78521,0.53315
140.54413,0.53038
140.30306,0.52827
140.06199,0.52774
139.82092,0.52894
139.57985,0.53118
139.33878,0.53444
139.09771,0.53978
138.85664,0.54777
138.61557,0.55774
138.37450,0.56877
138.13343,0.58034
137.89236,0.59211
137.65129,0.60424
137.41022,0.61780
137.16915,0.63398
136.92808,0.65325
136.68701,0.67582
136.44594,0.70197
136.20486,0.73153
135.96379,0.76314
135.72272,0.79488
135.48165,0.82618
135.24058,0.85839
134.99951,0.89315
134.75844,0.93090
134.51737,0.97069
134.27630,1.01043
134.03523,1.04850
133.79416,1.08486
133.55309,1.11934
133.31202,1.15074
133.07095,1.17882
132.82988,1.20304
132.58881,1.22134
132.34774,1.23462
132.10667,1.24536
131.86559,1.24969
131.62452,1.24242
131.38345,1.22804
131.14238,1.21385
130.90131,1.19736
130.66024,1.16897
130.41917,1.12684
130.17810,1.08004
129.93703,1.03769
129.69596,1.00044
129.45489,0.96314
129.21382,0.92272
128.97275,0.88030
128.73168,0.83819
128.49061,0.79793
128.24954,0.76013
128.00847,0.72490
127.76740,0.69323
127.52632,0.66646
127.28525,0.64360
127.04418,0.62143
126.80311,0.59823
126.56204,0.57547
126.32097,0.55513
126.07990,0.53712
125.83883,0.52042
125.59776,0.50529
125.35669,0.49282
125.11562,0.48264
124.87455,0.47309
124.63348,0.46349
124.39241,0.45431
124.15134,0.44582
123.91027,0.43825
123.66920,0.43267
123.42812,0.42982
123.18705,0.42881
122.94598,0.42790
122.70491,0.42661
122.46384,0.42626
122.22277,0.42803
121.98170,0.43124
121.74063,0.43447
121.49956,0.43782
121.25849,0.44252
121.01742,0.44905
120.77635,0.45691
120.53528,0.46534
120.29421,0.47367
120.05314,0.48241
119.81207,0.49429
119.57100,0.51245
119.32993,0.53729
119.08885,0.56620
118.84778,0.59625
118.60671,0.62657
118.36564,0.65826
118.12457,0.69234
117.88350,0.72707
117.64243,0.75828
117.40136,0.78369
117.16029,0.80497
116.91922,0.82335
116.67815,0.83634
116.43708,0.84111
116.19601,0.83780
115.95494,0.82770
115.71387,0.81162
115.47280,0.79115
115.23173,0.76906
114.99066,0.74767
114.74958,0.72802
114.50851,0.71058
114.26744,0.69539
114.02637,0.68193
113.78530,0.67045
113.54423,0.66323
113.30316,0.66228
113.06209,0.66585
112.82102,0.67025
112.57995,0.67501
112.33888,0.68257
112.09781,0.69457
111.85674,0.71219
111.61567,0.73596
111.37460,0.76086
111.13353,0.77657
110.89246,0.77741
110.65139,0.76793
110.41031,0.75601
110.16924,0.74568
109.92817,0.73692
109.68710,0.72803
109.44603,0.71705
109.20496,0.70297
108.96389,0.68562
108.72282,0.66452
108.48175,0.63957
108.24068,0.61235
107.99961,0.58480
107.75854,0.55732
107.51747,0.53005
107.27640,0.50489
107.03533,0.48427
106.79426,0.46872
106.55319,0.45700
106.31212,0.44759
106.07104,0.43880
105.82997,0.42835
105.58890,0.41439
105.34783,0.39722
105.10676,0.37944
104.86569,0.36397
104.62462,0.35245
104.38355,0.34523
104.14248,0.34176
103.90141,0.34017
103.66034,0.33729
103.41927,0.33059
103.17820,0.32025
102.93713,0.30875
102.69606,0.29853
102.45499,0.29074
102.21392,0.28587
101.97285,0.28420
101.73177,0.28464
101.49070,0.28423
101.24963,0.28048
101.00856,0.27397
100.76749,0.26742
100.52642,0.26279
100.28535,0.26032
100.04428,0.25940
99.80321,0.25911
99.56214,0.25817
99.32107,0.25566
99.08000,0.25183
98.83893,0.24817
98.59786,0.24652
98.35679,0.24717
98.11572,0.24802
97.87465,0.24709
97.63358,0.24550
97.39250,0.24646
97.15143,0.25174
96.91036,0.25961
96.66929,0.26588
96.42822,0.26825
96.18715,0.26981
95.94608,0.27592
95.70501,0.28814
95.46394,0.30223
95.22287,0.31215
94.98180,0.31720
94.74073,0.32221
94.49966,0.32937
94.25859,0.33437
94.01752,0.33274
93.77645,0.32772
93.53538,0.32666
93.29431,0.33153
93.05323,0.33697
92.81216,0.33775
92.57109,0.33584
92.33002,0.33649
92.08895,0.34067
91.84788,0.34528
91.60681,0.34992
91.36574,0.35857
91.12467,0.37408
90.88360,0.39526
90.64253,0.42040
90.40146,0.45163
90.16039,0.49189
89.91932,0.53927
89.67825,0.59008
89.43718,0.64460
89.19611,0.69928
88.95504,0.73995
88.71396,0.75917
88.47289,0.76277
88.23182,0.74749
87.99075,0.70551
87.74968,0.64773
87.50861,0.59072
87.26754,0.53864
87.02647,0.49170
86.78540,0.45313
86.54433,0.42232
86.30326,0.39382
86.06219,0.36527
85.82112,0.33905
85.58005,0.31669
85.33898,0.29669
85.09791,0.27754
84.85684,0.25986
84.61577,0.24500
84.37469,0.23287
84.13362,0.22215
83.89255,0.21221
83.65148,0.20373
83.41041,0.19722
83.16934,0.19208
82.92827,0.18720
82.68720,0.18218
82.44613,0.17777
82.20506,0.17475
81.96399,0.17297
81.72292,0.17188
81.48185,0.17126
81.24078,0.17106
80.99971,0.17131
80.75864,0.17181
80.51757,0.17180
80.27650,0.17049
80.03542,0.16791
79.79435,0.16506
79.55328,0.16308
79.31221,0.16233
79.07114,0.16216
78.83007,0.16179
78.58900,0.16118
78.34793,0.16037
78.10686,0.15868
77.86579,0.15554
77.62472,0.15139
77.38365,0.14740
77.14258,0.14484
76.90151,0.14441
76.66044,0.14527
76.41937,0.14544
76.17830,0.14360
75.93723,0.14027
75.69615,0.13709
75.45508,0.13539
75.21401,0.13522
74.97294,0.13565
74.73187,0.13592
74.49080,0.13617
74.24973,0.13711
74.00866,0.13921
73.76759,0.14193
73.52652,0.14379
73.28545,0.14339
73.04438,0.14068
72.80331,0.13731
72.56224,0.13569
72.32117,0.13760
72.08010,0.14301
71.83903,0.14992
71.59796,0.15552
71.35688,0.15807
71.11581,0.15790
70.87474,0.15677
70.63367,0.15730
70.39260,0.16287
70.15153,0.17634
69.91046,0.19778
69.66939,0.22374
69.42832,0.24884
69.18725,0.26759
68.94618,0.27556
68.70511,0.27026
68.46404,0.25252
68.22297,0.22734
67.98190,0.20191
67.74083,0.18156
67.49976,0.16743
67.25869,0.15739
67.01761,0.14891
66.77654,0.14096
66.53547,0.13402
66.29440,0.12890
66.05333,0.12598
65.81226,0.12544
65.57119,0.12756
65.33012,0.13273
65.08905,0.14107
64.84798,0.15185
64.60691,0.16340
64.36584,0.17370
64.12477,0.18086
63.88370,0.18334
63.64263,0.18074
63.40156,0.17389
63.16049,0.16407
62.91942,0.15320
62.67834,0.14403
62.43727,0.13830
62.19620,0.13514
61.95513,0.13243
61.71406,0.12884
61.47299,0.12449
61.23192,0.12045
60.99085,0.11791
60.74978,0.11750
60.50871,0.11934
60.26764,0.12354
60.02657,0.12984
59.78550,0.13695
59.54443,0.14294
59.30336,0.14665
59.06229,0.14890
58.82122,0.15151
58.58015,0.15440
58.33907,0.15496
58.09800,0.15115
57.85693,0.14385
57.61586,0.13508
57.37479,0.12521
57.13372,0.11351
56.89265,0.10110
56.65158,0.09151
56.41051,0.08791
56.16944,0.09068
55.92837,0.09799
55.68730,0.10793
55.44623,0.12002
55.20516,0.13494
54.96409,0.15233
54.72302,0.16787
54.48195,0.17371
54.24088,0.16568
53.99980,0.14865
53.75873,0.13067
53.51766,0.11724
53.27659,0.11172
53.03552,0.11640
52.79445,0.13164
52.55338,0.15462
52.31231,0.17801
52.07124,0.18845
51.83017,0.17481
51.58910,0.14420
51.34803,0.11544
51.10696,0.10249
50.86589,0.11013
50.62482,0.13645
50.38375,0.16979
50.14268,0.18285
49.90161,0.15890
49.66053,0.11908
49.41946,0.09113
49.17839,0.09010
48.93732,0.11751
48.69625,0.15088
48.45518,0.14832
48.21411,0.11500
47.97304,0.09427
47.73197,0.10588
47.49090,0.13769
47.24983,0.14708
47.00876,0.11747
46.76769,0.09423
46.52662,0.10559
46.28555,0.13408
46.04448,0.14001
45.80341,0.12111
45.56234,0.11367
45.32126,0.12573
45.08019,0.12898
44.83912,0.11487
44.59805,0.11176
44.35698,0.12828
44.11591,0.14194
43.87484,0.14345
43.63377,0.14656
43.39270,0.14952
43.15163,0.14487
42.91056,0.14517
42.66949,0.15550
42.42842,0.16067
42.18735,0.15349
41.94628,0.14477
41.70521,0.14079
41.46414,0.13861
41.22307,0.13716
40.98199,0.13810
40.74092,0.14220
40.49985,0.14890
40.25878,0.15690
40.01771,0.16502
39.77664,0.17011
39.53557,0.16752
39.29450,0.15987
39.05343,0.15761
38.81236,0.16698
38.57129,0.18319
38.33022,0.19746
38.08915,0.20704
37.84808,0.21380
37.60701,0.21773
37.36594,0.21763
37.12487,0.21536
36.88380,0.21294
36.64272,0.20857
36.40165,0.20261
36.16058,0.20104
35.91951,0.20457
35.67844,0.20437
35.43737,0.19692
35.19630,0.19166
34.95523,0.19594
34.71416,0.20316
34.47309,0.20513
34.23202,0.20656
33.99095,0.21603
33.74988,0.22869
33.50881,0.23004
33.26774,0.21727
33.02667,0.20404
32.78560,0.20248
32.54453,0.21429
32.30345,0.23309
32.06238,0.24761
31.82131,0.24917
31.58024,0.23875
31.33917,0.22452
31.09810,0.21035
30.85703,0.19001
30.61596,0.15562
30.37489,0.11187
30.13382,0.07407
29.89275,0.05216
29.65168,0.04542
29.41061,0.04788
29.16954,0.05355
28.92847,0.05802
28.68740,0.05540
28.44633,0.04107
28.20526,0.02395
27.96418,0.02241
27.72311,0.03854
27.48204,0.05246
27.24097,0.05321
26.99990,0.05015
26.75883,0.05074
26.51776,0.04835
26.27669,0.03533
26.03562,0.01784
25.79455,0.00392
25.55348,-0.01020
25.31241,-0.02954
25.07134,-0.04956
24.83027,-0.06497
24.58920,-0.08026
24.34813,-0.10181
24.10706,-0.12651
23.86599,-0.14513
23.62491,-0.15361
23.38384,-0.15759
23.14277,-0.16034
22.90170,-0.15753
22.66063,-0.15099
22.41956,-0.15317
22.17849,-0.17214
21.93742,-0.19692
21.69635,-0.20715
21.45528,-0.19850
21.21421,-0.18481
20.97314,-0.17954
20.73207,-0.18930
20.49100,-0.22027
20.24993,-0.26854
20.00886,-0.30288
19.76779,-0.29244
19.52672,-0.25111
19.28564,-0.21367
19.04457,-0.19577
18.80350,-0.19765
18.56243,-0.21770
18.32136,-0.24356
18.08029,-0.25214
17.83922,-0.23850
17.59815,-0.22361
17.35708,-0.22087
17.11601,-0.22231
16.87494,-0.21854
16.63387,-0.21300
16.39280,-0.21334
16.15173,-0.21817
15.91066,-0.22885
15.66959,-0.24893
15.42852,-0.26969
15.18745,-0.28128
14.94637,-0.28717
14.70530,-0.29637
14.46423,-0.31183
14.22316,-0.32967
13.98209,-0.34311
13.74102,-0.35008
13.49995,-0.35428
13.25888,-0.35528
13.01781,-0.34725
12.77674,-0.32707
12.53567,-0.30002
12.29460,-0.27783
12.05353,-0.26830
11.81246,-0.27059
11.57139,-0.28559
11.33032,-0.31096
11.08925,-0.32610
10.84818,-0.31598
10.60710,-0.29426
10.36603,-0.28324
10.12496,-0.28711
9.88389,-0.30020
9.64282,-0.32483
9.40175,-0.35706
9.16068,-0.37321
8.91961,-0.37062
8.67854,-0.34825
8.43747,-0.32167
8.19640,-0.31506
7.95533,-0.32466
7.71426,-0.34172
7.47319,-0.35037
7.23212,-0.34292
6.99105,-0.32954
6.74998,-0.31958
6.50891,-0.31478
6.26783,-0.32274
6.02676,-0.35069
5.78569,-0.38151
5.54462,-0.38725
5.30355,-0.36471
5.06248,-0.33213
4.82141,-0.30597
4.58034,-0.29757
4.33927,-0.30942
4.09820,-0.33166
3.85713,-0.35128
3.61606,-0.35267
3.37499,-0.33463
3.13392,-0.31300
2.89285,-0.29872
2.65178,-0.28877
2.41071,-0.28328
2.16964,-0.29347
1.92856,-0.31203
1.68749,-0.32410
1.44642,-0.32979
1.20535,-0.32845
0.96428,-0.32548
0.72321,-0.35122
0.48214,-0.39144
0.24107,-0.38073
-0.00000,-0.28078
