399.69498,1.42592
399.45391,1.44968
399.21284,1.46004
398.97177,1.45216
398.73070,1.43616
398.48963,1.42626
398.24856,1.42858
398.00749,1.43650
397.76642,1.43831
397.52535,1.43231
397.28428,1.42732
397.04321,1.42786
396.80214,1.42998
396.56107,1.43052
396.32000,1.43112
396.07892,1.43253
395.83785,1.43040
395.59678,1.42144
395.35571,1.41215
395.11464,1.41338
394.87357,1.42720
394.63250,1.44610
394.39143,1.46281
394.15036,1.47357
393.90929,1.47292
393.66822,1.45712
393.42715,1.43500
393.18608,1.42217
392.94501,1.42631
392.70394,1.44134
392.46287,1.45192
392.22180,1.44654
391.98073,1.43165
391.73965,1.42757
391.49858,1.44426
391.25751,1.46842
391.01644,1.47917
390.77537,1.47302
390.53430,1.46132
390.29323,1.44930
390.05216,1.43722
389.81109,1.43096
389.57002,1.43579
389.32895,1.44767
389.08788,1.45737
388.84681,1.45857
388.60574,1.44972
388.36467,1.43484
388.12360,1.42369
387.88253,1.42243
387.64146,1.42591
387.40038,1.42702
387.15931,1.42842
386.91824,1.43504
386.67717,1.44033
386.43610,1.43004
386.19503,1.40096
385.95396,1.36668
385.71289,1.34185
385.47182,1.32862
385.23075,1.32024
384.98968,1.31355
384.74861,1.31283
384.50754,1.31891
384.26647,1.32230
384.02540,1.31456
383.78433,1.29934
383.54326,1.28717
383.30219,1.28681
383.06111,1.29964
382.82004,1.31621
382.57897,1.32269
382.33790,1.31251
382.09683,1.28600
381.85576,1.24975
381.61469,1.21869
381.37362,1.20465
381.13255,1.20645
380.89148,1.21601
380.65041,1.22831
380.40934,1.24197
380.16827,1.25321
379.92720,1.25508
379.68613,1.24574
379.44506,1.23406
379.20399,1.23210
378.96292,1.23934
378.72184,1.24316
378.48077,1.23982
378.23970,1.24249
377.99863,1.25956
377.75756,1.28163
377.51649,1.29641
377.27542,1.30513
377.03435,1.31602
376.79328,1.33057
376.55221,1.34285
376.31114,1.34472
376.07007,1.33366
375.82900,1.31887
375.58793,1.31220
375.34686,1.31503
375.10579,1.31828
374.86472,1.31441
374.62365,1.30819
374.38257,1.31086
374.14150,1.32571
373.90043,1.34264
373.65936,1.34650
373.41829,1.33270
373.17722,1.31236
372.93615,1.30037
372.69508,1.30112
372.45401,1.30517
372.21294,1.30123
371.97187,1.29036
371.73080,1.28068
371.48973,1.27447
371.24866,1.26824
371.00759,1.26031
370.76652,1.25208
370.52545,1.24407
370.28437,1.23551
370.04330,1.22755
369.80223,1.22224
369.56116,1.21882
369.32009,1.21413
369.07902,1.20614
368.83795,1.19540
368.59688,1.18399
368.35581,1.17406
368.11474,1.16636
367.87367,1.16030
367.63260,1.15638
367.39153,1.15587
367.15046,1.15748
366.90939,1.15755
366.66832,1.15382
366.42725,1.14664
366.18618,1.13792
365.94510,1.13189
365.70403,1.13274
365.46296,1.13885
365.22189,1.14331
364.98082,1.14069
364.73975,1.13094
364.49868,1.11824
364.25761,1.10869
364.01654,1.10646
363.77547,1.11001
363.53440,1.11332
363.29333,1.11167
363.05226,1.10626
362.81119,1.10179
362.57012,1.09968
362.32905,1.09737
362.08798,1.09459
361.84691,1.09512
361.60583,1.10052
361.36476,1.10694
361.12369,1.11004
360.88262,1.10951
360.64155,1.10682
360.40048,1.10252
360.15941,1.09795
359.91834,1.09609
359.67727,1.09754
359.43620,1.09826
359.19513,1.09474
358.95406,1.08893
358.71299,1.08520
358.47192,1.08548
358.23085,1.08916
357.98978,1.09374
357.74871,1.09495
357.50764,1.09058
357.26656,1.08362
357.02549,1.07784
356.78442,1.07401
356.54335,1.07229
356.30228,1.07410
356.06121,1.07921
355.82014,1.08379
355.57907,1.08389
355.33800,1.08015
355.09693,1.07778
354.85586,1.08016
354.61479,1.08414
354.37372,1.08456
354.13265,1.08122
353.89158,1.07788
353.65051,1.07686
353.40944,1.07767
353.16837,1.07909
352.92729,1.08107
352.68622,1.08374
352.44515,1.08543
352.20408,1.08456
351.96301,1.08359
351.72194,1.08664
351.48087,1.09246
351.23980,1.09499
350.99873,1.09231
350.75766,1.08967
350.51659,1.09214
350.27552,1.09895
350.03445,1.10615
349.79338,1.11173
349.55231,1.11632
349.31124,1.12034
349.07017,1.12305
348.82910,1.12449
348.58802,1.12576
348.34695,1.12670
348.10588,1.12576
347.86481,1.12266
347.62374,1.11944
347.38267,1.11824
347.14160,1.12034
346.90053,1.12615
346.65946,1.13387
346.41839,1.14046
346.17732,1.14522
345.93625,1.14915
345.69518,1.15139
345.45411,1.15051
345.21304,1.14904
344.97197,1.15229
344.73090,1.16245
344.48983,1.17483
344.24875,1.18114
344.00768,1.17915
343.76661,1.17711
343.52554,1.18326
343.28447,1.19499
343.04340,1.20365
342.80233,1.20769
342.56126,1.21314
342.32019,1.22168
342.07912,1.22771
341.83805,1.22875
341.59698,1.23014
341.35591,1.23566
341.11484,1.24208
340.87377,1.24719
340.63270,1.25488
340.39163,1.26702
340.15056,1.27824
339.90948,1.28478
339.66841,1.29051
339.42734,1.29672
339.18627,1.29811
338.94520,1.29459
338.70413,1.29463
338.46306,1.30514
338.22199,1.32445
337.98092,1.34390
337.73985,1.35524
337.49878,1.35706
337.25771,1.35576
337.01664,1.35891
336.77557,1.36631
336.53450,1.37071
336.29343,1.36721
336.05236,1.35963
335.81129,1.35357
335.57021,1.34678
335.32914,1.33561
335.08807,1.32504
334.84700,1.32339
334.60593,1.33116
334.36486,1.33895
334.12379,1.33753
333.88272,1.32969
333.64165,1.32606
333.40058,1.33161
333.15951,1.33970
332.91844,1.33763
332.67737,1.31936
332.43630,1.29243
332.19523,1.26962
331.95416,1.25808
331.71309,1.25753
331.47202,1.26232
331.23094,1.26550
330.98987,1.26379
330.74880,1.25967
330.50773,1.25889
330.26666,1.26208
330.02559,1.26292
329.78452,1.25677
329.54345,1.24561
329.30238,1.23465
329.06131,1.22728
328.82024,1.22400
328.57917,1.22368
328.33810,1.22453
328.09703,1.22447
327.85596,1.22086
327.61489,1.21323
327.37382,1.20645
327.13275,1.20722
326.89167,1.21756
326.65060,1.23204
326.40953,1.24152
326.16846,1.24176
325.92739,1.23691
325.68632,1.23256
325.44525,1.22852
325.20418,1.22292
324.96311,1.22007
324.72204,1.22675
324.48097,1.24095
324.23990,1.25107
323.99883,1.25086
323.75776,1.24775
323.51669,1.25065
323.27562,1.25942
323.03455,1.27013
322.79348,1.28147
322.55240,1.29055
322.31133,1.28911
322.07026,1.27435
321.82919,1.25667
321.58812,1.24716
321.34705,1.24637
321.10598,1.24910
320.86491,1.25365
320.62384,1.26152
320.38277,1.27009
320.14170,1.27212
319.90063,1.26531
319.65956,1.25579
319.41849,1.25039
319.17742,1.25246
318.93635,1.26293
318.69528,1.27712
318.45421,1.28376
318.21313,1.27623
317.97206,1.25955
317.73099,1.24361
317.48992,1.23704
317.24885,1.24422
317.00778,1.26173
316.76671,1.27901
316.52564,1.28780
316.28457,1.28902
316.04350,1.28527
315.80243,1.27680
315.56136,1.26732
315.32029,1.26610
315.07922,1.28087
314.83815,1.30592
314.59708,1.32188
314.35601,1.31601
314.11494,1.29908
313.87386,1.29151
313.63279,1.29969
313.39172,1.31177
313.15065,1.31531
312.90958,1.31432
312.66851,1.31964
312.42744,1.32978
312.18637,1.33393
311.94530,1.33051
311.70423,1.32843
311.46316,1.33238
311.22209,1.33674
310.98102,1.33334
310.73995,1.32167
310.49888,1.31061
310.25781,1.31059
310.01674,1.32433
309.77567,1.34209
309.53459,1.34750
309.29352,1.33559
309.05245,1.32094
308.81138,1.32066
308.57031,1.33732
308.32924,1.36048
308.08817,1.37766
307.84710,1.38231
307.60603,1.37460
307.36496,1.35980
307.12389,1.34627
306.88282,1.34166
306.64175,1.34895
306.40068,1.36404
306.15961,1.37663
305.91854,1.37794
305.67747,1.36818
305.43640,1.35372
305.19532,1.34140
304.95425,1.33488
304.71318,1.33288
304.47211,1.33105
304.23104,1.32824
303.98997,1.32840
303.74890,1.33229
303.50783,1.33311
303.26676,1.32474
303.02569,1.30938
302.78462,1.29327
302.54355,1.27961
302.30248,1.26790
302.06141,1.25635
301.82034,1.24547
301.57927,1.23776
301.33820,1.23162
301.09713,1.22244
300.85605,1.21199
300.61498,1.20727
300.37391,1.20879
300.13284,1.20829
299.89177,1.20041
299.65070,1.18951
299.40963,1.18160
299.16856,1.17646
298.92749,1.17046
298.68642,1.16314
298.44535,1.15800
298.20428,1.15717
297.96321,1.15782
297.72214,1.15501
297.48107,1.14711
297.24000,1.13732
296.99893,1.13050
296.75786,1.12870
296.51678,1.12923
296.27571,1.12720
296.03464,1.12022
295.79357,1.10960
295.55250,1.09855
295.31143,1.09080
295.07036,1.08835
294.82929,1.08877
294.58822,1.08629
294.34715,1.07818
294.10608,1.06873
293.86501,1.06393
293.62394,1.06427
293.38287,1.06607
293.14180,1.06777
292.90073,1.07044
292.65966,1.07280
292.41859,1.07148
292.17751,1.06716
291.93644,1.06477
291.69537,1.06625
291.45430,1.06746
291.21323,1.06395
290.97216,1.05696
290.73109,1.05109
290.49002,1.04822
290.24895,1.04597
290.00788,1.04171
289.76681,1.03572
289.52574,1.02993
289.28467,1.02528
289.04360,1.02174
288.80253,1.01983
288.56146,1.02001
288.32039,1.02069
288.07932,1.01938
287.83824,1.01586
287.59717,1.01213
287.35610,1.00956
287.11503,1.00845
286.87396,1.00966
286.63289,1.01364
286.39182,1.01851
286.15075,1.02080
285.90968,1.01832
285.66861,1.01203
285.42754,1.00517
285.18647,1.00061
284.94540,0.99898
284.70433,0.99908
284.46326,0.99953
284.22219,0.99966
283.98112,0.99919
283.74005,0.99808
283.49897,0.99639
283.25790,0.99451
283.01683,0.99353
282.77576,0.99491
282.53469,0.99920
282.29362,1.00463
282.05255,1.00748
281.81148,1.00564
281.57041,1.00190
281.32934,1.00136
281.08827,1.00557
280.84720,1.01097
280.60613,1.01255
280.36506,1.00820
280.12399,1.00015
279.88292,0.99279
279.64185,0.98898
279.40078,0.98841
279.15970,0.98936
278.91863,0.99087
278.67756,0.99258
278.43649,0.99444
278.19542,0.99742
277.95435,1.00222
277.71328,1.00761
277.47221,1.01138
277.23114,1.01228
276.99007,1.01084
276.74900,1.00878
276.50793,1.00781
276.26686,1.00866
276.02579,1.01100
275.78472,1.01386
275.54365,1.01570
275.30258,1.01551
275.06151,1.01451
274.82043,1.01544
274.57936,1.01938
274.33829,1.02412
274.09722,1.02644
273.85615,1.02605
273.61508,1.02606
273.37401,1.02914
273.13294,1.03466
272.89187,1.04013
272.65080,1.04368
272.40973,1.04488
272.16866,1.04506
271.92759,1.04648
271.68652,1.04946
271.44545,1.05166
271.20438,1.05144
270.96331,1.05053
270.72224,1.05162
270.48116,1.05480
270.24009,1.05760
269.99902,1.05845
269.75795,1.05861
269.51688,1.06033
269.27581,1.06432
269.03474,1.07043
268.79367,1.07886
268.55260,1.08874
268.31153,1.09741
268.07046,1.10263
267.82939,1.10463
267.58832,1.10571
267.34725,1.10924
267.10618,1.11724
266.86511,1.12742
266.62404,1.13533
266.38297,1.14069
266.14189,1.14770
265.90082,1.15847
265.65975,1.17044
265.41868,1.18084
265.17761,1.18951
264.93654,1.19658
264.69547,1.20158
264.45440,1.20712
264.21333,1.21899
263.97226,1.23959
263.73119,1.26323
263.49012,1.28057
263.24905,1.28900
263.00798,1.29653
262.76691,1.31217
262.52584,1.33548
262.28477,1.35804
262.04370,1.37411
261.80262,1.38670
261.56155,1.40294
261.32048,1.42740
261.07941,1.45856
260.83834,1.48965
260.59727,1.51516
260.35620,1.53516
260.11513,1.55303
259.87406,1.57369
259.63299,1.60021
259.39192,1.62847
259.15085,1.65125
258.90978,1.67028
258.66871,1.69607
258.42764,1.73375
258.18657,1.77120
257.94550,1.78563
257.70443,1.77884
257.46335,1.77443
257.22228,1.77692
256.98121,1.77788
256.74014,1.77606
256.49907,1.77169
256.25800,1.75820
256.01693,1.73372
255.77586,1.70515
255.53479,1.67780
255.29372,1.65667
255.05265,1.64462
254.81158,1.63442
254.57051,1.61707
254.32944,1.59628
254.08837,1.58344
253.84730,1.58218
253.60623,1.58611
253.36516,1.58851
253.12408,1.58514
252.88301,1.57270
252.64194,1.55398
252.40087,1.53667
252.15980,1.52456
251.91873,1.51567
251.67766,1.50628
251.43659,1.49521
251.19552,1.48474
250.95445,1.47816
250.71338,1.47770
250.47231,1.48311
250.23124,1.49075
249.99017,1.49595
249.74910,1.49701
249.50803,1.49439
249.26696,1.48872
249.02589,1.48297
248.78481,1.48125
248.54374,1.48305
248.30267,1.48555
248.06160,1.48971
247.82053,1.49675
247.57946,1.50423
247.33839,1.51024
247.09732,1.51636
246.85625,1.52427
246.61518,1.53141
246.37411,1.53335
246.13304,1.53066
245.89197,1.53107
245.65090,1.54420
245.40983,1.57318
245.16876,1.61092
244.92769,1.64546
244.68661,1.67083
244.44554,1.69058
244.20447,1.71137
243.96340,1.73877
243.72233,1.77926
243.48126,1.83799
243.24019,1.90696
242.99912,1.95412
242.75805,1.93740
242.51698,1.84991
242.27591,1.73956
242.03484,1.63694
241.79377,1.54649
241.55270,1.46960
241.31163,1.40483
241.07056,1.34663
240.82949,1.29011
240.58842,1.23566
240.34734,1.18733
240.10627,1.14765
239.86520,1.11435
239.62413,1.08248
239.38306,1.04957
239.14199,1.01690
238.90092,0.98678
238.65985,0.96080
238.41878,0.93968
238.17771,0.92256
237.93664,0.90697
237.69557,0.89139
237.45450,0.87683
237.21343,0.86455
236.97236,0.85342
236.73129,0.84116
236.49022,0.82753
236.24915,0.81491
236.00807,0.80547
235.76700,0.79853
235.52593,0.79136
235.28486,0.78295
235.04379,0.77543
234.80272,0.77085
234.56165,0.76830
234.32058,0.76521
234.07951,0.76022
233.83844,0.75410
233.59737,0.74852
233.35630,0.74483
233.11523,0.74326
232.87416,0.74275
232.63309,0.74182
232.39202,0.73996
232.15095,0.73780
231.90988,0.73618
231.66880,0.73577
231.42773,0.73698
231.18666,0.73923
230.94559,0.74097
230.70452,0.74135
230.46345,0.74105
230.22238,0.74062
229.98131,0.73929
229.74024,0.73618
229.49917,0.73207
229.25810,0.72934
229.01703,0.72965
228.77596,0.73217
228.53489,0.73442
228.29382,0.73438
228.05275,0.73163
227.81168,0.72742
227.57061,0.72390
227.32953,0.72221
227.08846,0.72220
226.84739,0.72368
226.60632,0.72618
226.36525,0.72794
226.12418,0.72731
225.88311,0.72475
225.64204,0.72206
225.40097,0.72055
225.15990,0.72081
224.91883,0.72277
224.67776,0.72600
224.43669,0.73050
224.19562,0.73691
223.95455,0.74511
223.71348,0.75334
223.47241,0.75915
223.23134,0.76114
222.99026,0.75996
222.74919,0.75809
222.50812,0.75876
222.26705,0.76410
222.02598,0.77355
221.78491,0.78423
221.54384,0.79367
221.30277,0.80172
221.06170,0.80932
220.82063,0.81681
220.57956,0.82430
220.33849,0.83238
220.09742,0.84166
219.85635,0.85220
219.61528,0.86344
219.37421,0.87492
219.13314,0.88710
218.89207,0.90067
218.65099,0.91467
218.40992,0.92741
218.16885,0.93927
217.92778,0.95212
217.68671,0.96670
217.44564,0.98255
217.20457,0.99914
216.96350,1.01535
216.72243,1.03002
216.48136,1.04328
216.24029,1.05580
215.99922,1.06805
215.75815,1.08148
215.51708,1.09655
215.27601,1.10972
215.03494,1.11822
214.79387,1.12634
214.55280,1.14107
214.31172,1.16420
214.07065,1.19148
213.82958,1.21558
213.58851,1.22939
213.34744,1.23141
213.10637,1.22808
212.86530,1.22816
212.62423,1.23692
212.38316,1.25465
212.14209,1.27662
211.90102,1.29433
211.65995,1.30147
211.41888,1.30037
211.17781,1.29830
210.93674,1.29906
210.69567,1.30291
210.45460,1.30921
210.21353,1.31564
209.97245,1.31866
209.73138,1.31604
209.49031,1.30741
209.24924,1.29546
209.00817,1.28740
208.76710,1.28943
208.52603,1.30012
208.28496,1.31064
208.04389,1.31234
207.80282,1.30347
207.56175,1.28781
207.32068,1.26989
207.07961,1.25262
206.83854,1.23723
206.59747,1.22351
206.35640,1.20933
206.11533,1.19232
205.87426,1.17300
205.63318,1.15389
205.39211,1.13632
205.15104,1.11980
204.90997,1.10452
204.66890,1.09194
204.42783,1.08203
204.18676,1.07186
203.94569,1.05916
203.70462,1.04541
203.46355,1.03341
203.22248,1.02337
202.98141,1.01198
202.74034,0.99485
202.49927,0.97170
202.25820,0.94791
202.01713,0.92820
201.77606,0.91170
201.53499,0.89469
201.29391,0.87624
201.05284,0.85954
200.81177,0.84747
200.57070,0.83926
200.32963,0.83149
200.08856,0.82126
199.84749,0.80784
199.60642,0.79234
199.36535,0.77699
199.12428,0.76412
198.88321,0.75424
198.64214,0.74521
198.40107,0.73445
198.16000,0.72172
197.91893,0.70865
197.67786,0.69668
197.43679,0.68654
197.19572,0.67873
196.95464,0.67278
196.71357,0.66683
196.47250,0.65964
196.23143,0.65200
195.99036,0.64465
195.74929,0.63640
195.50822,0.62632
195.26715,0.61625
195.02608,0.60923
194.78501,0.60575
194.54394,0.60287
194.30287,0.59743
194.06180,0.58998
193.82073,0.58395
193.57966,0.58073
193.33859,0.57744
193.09752,0.57101
192.85645,0.56285
192.61537,0.55686
192.37430,0.55433
192.13323,0.55301
191.89216,0.55053
191.65109,0.54696
191.41002,0.54347
191.16895,0.54033
190.92788,0.53725
190.68681,0.53442
190.44574,0.53202
190.20467,0.52965
189.96360,0.52722
189.72253,0.52534
189.48146,0.52420
189.24039,0.52303
188.99932,0.52118
188.75825,0.51890
188.51718,0.51680
188.27610,0.51497
188.03503,0.51319
187.79396,0.51180
187.55289,0.51151
187.31182,0.51204
187.07075,0.51224
186.82968,0.51193
186.58861,0.51210
186.34754,0.51271
186.10647,0.51264
185.86540,0.51183
185.62433,0.51128
185.38326,0.51125
185.14219,0.51154
184.90112,0.51268
184.66005,0.51516
184.41898,0.51832
184.17791,0.52130
183.93683,0.52399
183.69576,0.52656
183.45469,0.52879
183.21362,0.53071
182.97255,0.53288
182.73148,0.53536
182.49041,0.53705
182.24934,0.53739
182.00827,0.53746
181.76720,0.53800
181.52613,0.53812
181.28506,0.53747
181.04399,0.53738
180.80292,0.53863
180.56185,0.54047
180.32078,0.54271
180.07971,0.54626
179.83864,0.55143
179.59756,0.55765
179.35649,0.56459
179.11542,0.57237
178.87435,0.58073
178.63328,0.58897
178.39221,0.59675
178.15114,0.60471
177.91007,0.61403
177.66900,0.62550
177.42793,0.63871
177.18686,0.65250
176.94579,0.66633
176.70472,0.68090
176.46365,0.69682
176.22258,0.71382
175.98151,0.73233
175.74044,0.75392
175.49937,0.77881
175.25829,0.80481
175.01722,0.82982
174.77615,0.85312
174.53508,0.87494
174.29401,0.89672
174.05294,0.92012
173.81187,0.94412
173.57080,0.96584
173.32973,0.98426
173.08866,1.00070
172.84759,1.01614
172.60652,1.02941
172.36545,1.03679
172.12438,1.03570
171.88331,1.03005
171.64224,1.02714
171.40117,1.02878
171.16010,1.02971
170.91902,1.02539
170.67795,1.01716
170.43688,1.00830
170.19581,0.99935
169.95474,0.98950
169.71367,0.98006
169.47260,0.97343
169.23153,0.96904
168.99046,0.96364
168.74939,0.95644
168.50832,0.95105
168.26725,0.95079
168.02618,0.95485
167.78511,0.95946
167.54404,0.96079
167.30297,0.95678
167.06190,0.94842
166.82083,0.93902
166.57975,0.93164
166.33868,0.92863
166.09761,0.93273
165.85654,0.94506
165.61547,0.96209
165.37440,0.97827
165.13333,0.99177
164.89226,1.00440
164.65119,1.01695
164.41012,1.02859
164.16905,1.03952
163.92798,1.05056
163.68691,1.06095
163.44584,1.07013
163.20477,1.08105
162.96370,1.09794
162.72263,1.12072
162.48156,1.14454
162.24048,1.16407
161.99941,1.17541
161.75834,1.17587
161.51727,1.16736
161.27620,1.15782
161.03513,1.15446
160.79406,1.15760
160.55299,1.16200
160.31192,1.16159
160.07085,1.15307
159.82978,1.13808
159.58871,1.12370
159.34764,1.11753
159.10657,1.12052
158.86550,1.12699
158.62443,1.13158
158.38336,1.13187
158.14229,1.12514
157.90121,1.10907
157.66014,1.08765
157.41907,1.07017
157.17800,1.06240
156.93693,1.06287
156.69586,1.06632
156.45479,1.06790
156.21372,1.06413
155.97265,1.05290
155.73158,1.03562
155.49051,1.01794
155.24944,1.00498
155.00837,0.99661
154.76730,0.98849
154.52623,0.97634
154.28516,0.95901
154.04409,0.93880
153.80302,0.91953
153.56194,0.90301
153.32087,0.88693
153.07980,0.86728
152.83873,0.84325
152.59766,0.81835
152.35659,0.79618
152.11552,0.77766
151.87445,0.76211
151.63338,0.74804
151.39231,0.73275
151.15124,0.71434
150.91017,0.69425
150.66910,0.67576
150.42803,0.66031
150.18696,0.64675
149.94589,0.63323
149.70482,0.61901
149.46375,0.60479
149.22267,0.59208
148.98160,0.58191
148.74053,0.57385
148.49946,0.56641
148.25839,0.55853
148.01732,0.55073
147.77625,0.54474
147.53518,0.54170
147.29411,0.54072
147.05304,0.53973
146.81197,0.53827
146.57090,0.53815
146.32983,0.54072
146.08876,0.54482
145.84769,0.54851
145.60662,0.55189
145.36555,0.55704
145.12448,0.56504
144.88340,0.57428
144.64233,0.58178
144.40126,0.58631
144.16019,0.58916
143.91912,0.59147
143.67805,0.59249
143.43698,0.59089
143.19591,0.58650
142.95484,0.57986
142.71377,0.57135
142.47270,0.56135
142.23163,0.55073
141.99056,0.54063
141.74949,0.53144
141.50842,0.52276
141.26735,0.51453
141.02628,0.50763
140.78521,0.50308
140.54413,0.50105
140.30306,0.50101
140.06199,0.50231
139.82092,0.50456
139.57985,0.50788
139.33878,0.51280
139.09771,0.51946
138.85664,0.52691
138.61557,0.53404
138.37450,0.54101
138.13343,0.54901
137.89236,0.55915
137.65129,0.57250
137.41022,0.58999
137.16915,0.61095
136.92808,0.63308
136.68701,0.65501
136.44594,0.67733
136.20486,0.70047
135.96379,0.72434
135.72272,0.75064
135.48165,0.78209
135.24058,0.81831
134.99951,0.85558
134.75844,0.89184
134.51737,0.92892
134.27630,0.96856
134.03523,1.00942
133.79416,1.04873
133.55309,1.08486
133.31202,1.11864
133.07095,1.15236
132.82988,1.18524
132.58881,1.21053
132.34774,1.22197
132.10667,1.22039
131.86559,1.20962
131.62452,1.19331
131.38345,1.17597
131.14238,1.15866
130.90131,1.13700
130.66024,1.10902
130.41917,1.07744
130.17810,1.04341
129.93703,1.00599
129.69596,0.96658
129.45489,0.92744
129.21382,0.88823
128.97275,0.84809
128.73168,0.80788
128.49061,0.76879
128.24954,0.73150
128.00847,0.69705
127.76740,0.66688
127.52632,0.64139
127.28525,0.61898
127.04418,0.59701
126.80311,0.57437
126.56204,0.55267
126.32097,0.53381
126.07990,0.51744
125.83883,0.50204
125.59776,0.48740
125.35669,0.47447
125.11562,0.46345
124.87455,0.45357
124.63348,0.44434
124.39241,0.43604
124.15134,0.42894
123.91027,0.42291
123.66920,0.41760
123.42812,0.41310
123.18705,0.40992
122.94598,0.40810
122.70491,0.40698
122.46384,0.40647
122.22277,0.40765
121.98170,0.41094
121.74063,0.41514
121.49956,0.41915
121.25849,0.42359
121.01742,0.42990
120.77635,0.43881
120.53528,0.45015
120.29421,0.46320
120.05314,0.47697
119.81207,0.49063
119.57100,0.50464
119.32993,0.52107
119.08885,0.54210
118.84778,0.56813
118.60671,0.59812
118.36564,0.63162
118.12457,0.66880
117.88350,0.70791
117.64243,0.74383
117.40136,0.77131
117.16029,0.78963
116.91922,0.80161
116.67815,0.80851
116.43708,0.80904
116.19601,0.80243
115.95494,0.78907
115.71387,0.76943
115.47280,0.74515
115.23173,0.71950
114.99066,0.69541
114.74958,0.67455
114.50851,0.65808
114.26744,0.64704
114.02637,0.64193
113.78530,0.64221
113.54423,0.64674
113.30316,0.65416
113.06209,0.66263
112.82102,0.66976
112.57995,0.67427
112.33888,0.67734
112.09781,0.68179
111.85674,0.69012
111.61567,0.70299
111.37460,0.71900
111.13353,0.73539
110.89246,0.74914
110.65139,0.75796
110.41031,0.76142
110.16924,0.76071
109.92817,0.75582
109.68710,0.74339
109.44603,0.72003
109.20496,0.68732
108.96389,0.65107
108.72282,0.61700
108.48175,0.58857
108.24068,0.56752
107.99961,0.55375
107.75854,0.54343
107.51747,0.53025
107.27640,0.51067
107.03533,0.48630
106.79426,0.46167
106.55319,0.44132
106.31212,0.42725
106.07104,0.41781
105.82997,0.40951
105.58890,0.39983
105.34783,0.38804
105.10676,0.37439
104.86569,0.35988
104.62462,0.34658
104.38355,0.33708
104.14248,0.33252
103.90141,0.33061
103.66034,0.32704
103.41927,0.31972
103.17820,0.31051
102.93713,0.30250
102.69606,0.29722
102.45499,0.29414
102.21392,0.29163
101.97285,0.28812
101.73177,0.28332
101.49070,0.27846
101.24963,0.27515
101.00856,0.27379
100.76749,0.27269
100.52642,0.26899
100.28535,0.26156
100.04428,0.25287
99.80321,0.24710
99.56214,0.24650
99.32107,0.24950
99.08000,0.25154
98.83893,0.24905
98.59786,0.24365
98.35679,0.24089
98.11572,0.24404
97.87465,0.25030
97.63358,0.25333
97.39250,0.25081
97.15143,0.24774
96.91036,0.24967
96.66929,0.25595
96.42822,0.26154
96.18715,0.26513
95.94608,0.27118
95.70501,0.28233
95.46394,0.29449
95.22287,0.30213
94.98180,0.30625
94.74073,0.31209
94.49966,0.32050
94.25859,0.32692
94.01752,0.32874
93.77645,0.32793
93.53538,0.32624
93.29431,0.32428
93.05323,0.32484
92.81216,0.32995
92.57109,0.33602
92.33002,0.33836
92.08895,0.33839
91.84788,0.34063
91.60681,0.34609
91.36574,0.35387
91.12467,0.36576
90.88360,0.38472
90.64253,0.41087
90.40146,0.44280
90.16039,0.48121
89.91932,0.52641
89.67825,0.57479
89.43718,0.62321
89.19611,0.67143
88.95504,0.71330
88.71396,0.73715
88.47289,0.74007
88.23182,0.72574
87.99075,0.69381
87.74968,0.64710
87.50861,0.59429
87.26754,0.54109
87.02647,0.49076
86.78540,0.44760
86.54433,0.41291
86.30326,0.38356
86.06219,0.35708
85.82112,0.33345
85.58005,0.31199
85.33898,0.29157
85.09791,0.27286
84.85684,0.25686
84.61577,0.24323
84.37469,0.23154
84.13362,0.22202
83.89255,0.21438
83.65148,0.20793
83.41041,0.20264
83.16934,0.19862
82.92827,0.19521
82.68720,0.19162
82.44613,0.18768
82.20506,0.18369
81.96399,0.18025
81.72292,0.17775
81.48185,0.17583
81.24078,0.17414
80.99971,0.17316
80.75864,0.17297
80.51757,0.17257
80.27650,0.17119
80.03542,0.16880
79.79435,0.16539
79.55328,0.16183
79.31221,0.16016
79.07114,0.16108
78.83007,0.16294
78.58900,0.16418
78.34793,0.16440
78.10686,0.16305
77.86579,0.15988
77.62472,0.15619
77.38365,0.15355
77.14258,0.15215
76.90151,0.15157
76.66044,0.15164
76.41937,0.15199
76.17830,0.15181
75.93723,0.15060
75.69615,0.14879
75.45508,0.14725
75.21401,0.14648
74.97294,0.14656
74.73187,0.14743
74.49080,0.14869
74.24973,0.14915
74.00866,0.14810
73.76759,0.14687
73.52652,0.14787
73.28545,0.15163
73.04438,0.15597
72.80331,0.15841
72.56224,0.15862
72.32117,0.15823
72.08010,0.15887
71.83903,0.16092
71.59796,0.16353
71.35688,0.16543
71.11581,0.16618
70.87474,0.16701
70.63367,0.17016
70.39260,0.17776
70.15153,0.19098
69.91046,0.20934
69.66939,0.23075
69.42832,0.25167
69.18725,0.26721
68.94618,0.27223
68.70511,0.26417
68.46404,0.24508
68.22297,0.22023
67.98190,0.19513
67.74083,0.17374
67.49976,0.15811
67.25869,0.14877
67.01761,0.14463
66.77654,0.14294
66.53547,0.14072
66.29440,0.13718
66.05333,0.13391
65.81226,0.13315
65.57119,0.13628
65.33012,0.14330
65.08905,0.15272
64.84798,0.16260
64.60691,0.17206
64.36584,0.18096
64.12477,0.18777
63.88370,0.18988
63.64263,0.18663
63.40156,0.18012
63.16049,0.17271
62.91942,0.16590
62.67834,0.16110
62.43727,0.15906
62.19620,0.15868
61.95513,0.15784
61.71406,0.15500
61.47299,0.14945
61.23192,0.14155
60.99085,0.13343
60.74978,0.12783
60.50871,0.12547
60.26764,0.12476
60.02657,0.12396
59.78550,0.12258
59.54443,0.12052
59.30336,0.11755
59.06229,0.11452
58.82122,0.11368
58.58015,0.11658
58.33907,0.12289
58.09800,0.13176
57.85693,0.14303
57.61586,0.15644
57.37479,0.16948
57.13372,0.17711
56.89265,0.17506
56.65158,0.16336
56.41051,0.14629
56.16944,0.12932
55.92837,0.11636
55.68730,0.10905
55.44623,0.10774
55.20516,0.11263
54.96409,0.12404
54.72302,0.14141
54.48195,0.16046
54.24088,0.17141
53.99980,0.16550
53.75873,0.14613
53.51766,0.12473
53.27659,0.11045
53.03552,0.10977
52.79445,0.12715
52.55338,0.15971
52.31231,0.19033
52.07124,0.19407
51.83017,0.16887
51.58910,0.13923
51.34803,0.12378
51.10696,0.12820
50.86589,0.15081
50.62482,0.17832
50.38375,0.18362
50.14268,0.15693
49.90161,0.12430
49.66053,0.11293
49.41946,0.13110
49.17839,0.15658
48.93732,0.14825
48.69625,0.11682
48.45518,0.10665
48.21411,0.13191
47.97304,0.16315
47.73197,0.15447
47.49090,0.12401
47.24983,0.11483
47.00876,0.12587
46.76769,0.12909
46.52662,0.11919
46.28555,0.11595
46.04448,0.12248
45.80341,0.12374
45.56234,0.11954
45.32126,0.12262
45.08019,0.12905
44.83912,0.12860
44.59805,0.12947
44.35698,0.13753
44.11591,0.14004
43.87484,0.13367
43.63377,0.13324
43.39270,0.14044
43.15163,0.14460
42.91056,0.14619
42.66949,0.14871
42.42842,0.14739
42.18735,0.14325
41.94628,0.14210
41.70521,0.14085
41.46414,0.13681
41.22307,0.13484
40.98199,0.13670
40.74092,0.14007
40.49985,0.14642
40.25878,0.15614
40.01771,0.16278
39.77664,0.16290
39.53557,0.16176
39.29450,0.16287
39.05343,0.16444
38.81236,0.16787
38.57129,0.17852
38.33022,0.19599
38.08915,0.21109
37.84808,0.21610
37.60701,0.21259
37.36594,0.20525
37.12487,0.19401
36.88380,0.17756
36.64272,0.16153
36.40165,0.15571
36.16058,0.15926
35.91951,0.15945
35.67844,0.14982
35.43737,0.13609
35.19630,0.12515
34.95523,0.12137
34.71416,0.12773
34.47309,0.14024
34.23202,0.14914
33.99095,0.15173
33.74988,0.15250
33.50881,0.15131
33.26774,0.14295
33.02667,0.12701
32.78560,0.10923
32.54453,0.09238
32.30345,0.07697
32.06238,0.06623
31.82131,0.06050
31.58024,0.05632
31.33917,0.05155
31.09810,0.04707
30.85703,0.04027
30.61596,0.02328
30.37489,-0.00495
30.13382,-0.03216
29.89275,-0.04573
29.65168,-0.04606
29.41061,-0.04545
29.16954,-0.05529
28.92847,-0.07581
28.68740,-0.09993
28.44633,-0.11844
28.20526,-0.12299
27.96418,-0.12094
27.72311,-0.13048
27.48204,-0.15585
27.24097,-0.17939
26.99990,-0.18142
26.75883,-0.16750
26.51776,-0.16294
26.27669,-0.18240
26.03562,-0.21536
25.79455,-0.24058
25.55348,-0.25631
25.31241,-0.27862
25.07134,-0.30617
24.83027,-0.31425
24.58920,-0.29601
24.34813,-0.27383
24.10706,-0.26552
23.86599,-0.27575
23.62491,-0.30370
23.38384,-0.33970
23.14277,-0.36230
22.90170,-0.34992
22.66063,-0.31221
22.41956,-0.28660
22.17849,-0.29707
21.93742,-0.33802
21.69635,-0.38490
21.45528,-0.42117
21.21421,-0.44289
20.97314,-0.43971
20.73207,-0.43146
20.49100,-0.42589
20.24993,-0.41121
20.00886,-0.39335
19.76779,-0.40587
19.52672,-0.43432
19.28564,-0.45086
19.04457,-0.44283
18.80350,-0.41898
18.56243,-0.39810
18.32136,-0.38620
18.08029,-0.37339
17.83922,-0.35253
17.59815,-0.33156
17.35708,-0.32216
17.11601,-0.32605
16.87494,-0.33846
16.63387,-0.36069
16.39280,-0.39046
16.15173,-0.40288
15.91066,-0.38807
15.66959,-0.37515
15.42852,-0.38042
15.18745,-0.39301
14.94637,-0.39682
14.70530,-0.38505
14.46423,-0.36343
14.22316,-0.34223
13.98209,-0.33273
13.74102,-0.33786
13.49995,-0.34656
13.25888,-0.35073
13.01781,-0.34958
12.77674,-0.34436
12.53567,-0.34096
12.29460,-0.34319
12.05353,-0.35753
11.81246,-0.37626
11.57139,-0.37098
11.33032,-0.34845
11.08925,-0.33054
10.84818,-0.32253
10.60710,-0.32216
10.36603,-0.32997
10.12496,-0.34123
9.88389,-0.34440
9.64282,-0.33547
9.40175,-0.32689
9.16068,-0.33235
8.91961,-0.34820
8.67854,-0.35912
8.43747,-0.36081
8.19640,-0.36124
7.95533,-0.36347
7.71426,-0.36296
7.47319,-0.36291
7.23212,-0.36799
6.99105,-0.37423
6.74998,-0.37672
6.50891,-0.37587
6.26783,-0.37624
6.02676,-0.38293
5.78569,-0.39383
5.54462,-0.40122
5.30355,-0.40554
5.06248,-0.41170
4.82141,-0.41682
4.58034,-0.41579
4.33927,-0.40641
4.09820,-0.38854
3.85713,-0.36862
3.61606,-0.35519
3.37499,-0.35029
3.13392,-0.35525
2.89285,-0.36841
2.65178,-0.37466
2.41071,-0.36218
2.16964,-0.34900
1.92856,-0.34893
1.68749,-0.36041
1.44642,-0.37396
1.20535,-0.36723
0.96428,-0.34393
0.72321,-0.35243
0.48214,-0.36747
0.24107,-0.34220
-0.00000,-0.28766
