399.69498,1.49684
399.45391,1.49873
399.21284,1.49629
398.97177,1.49207
398.73070,1.49006
398.48963,1.49125
398.24856,1.49179
398.00749,1.49018
397.76642,1.49197
397.52535,1.49924
397.28428,1.50232
397.04321,1.49250
396.80214,1.47514
396.56107,1.46091
396.32000,1.45379
396.07892,1.45206
395.83785,1.45260
395.59678,1.45208
395.35571,1.45047
395.11464,1.45079
394.87357,1.45467
394.63250,1.46346
394.39143,1.47879
394.15036,1.49511
393.90929,1.50084
393.66822,1.49410
393.42715,1.48483
393.18608,1.47968
392.94501,1.47817
392.70394,1.48062
392.46287,1.48834
392.22180,1.49566
391.98073,1.49516
391.73965,1.49080
391.49858,1.49112
391.25751,1.49587
391.01644,1.49782
390.77537,1.48920
390.53430,1.47243
390.29323,1.45997
390.05216,1.45436
389.81109,1.44722
389.57002,1.43786
389.32895,1.43497
389.08788,1.44113
388.84681,1.44648
388.60574,1.44111
388.36467,1.42810
388.12360,1.41869
387.88253,1.41927
387.64146,1.42371
387.40038,1.42049
387.15931,1.40693
386.91824,1.39076
386.67717,1.37681
386.43610,1.36152
386.19503,1.34393
385.95396,1.33166
385.71289,1.33130
385.47182,1.33921
385.23075,1.34331
384.98968,1.33635
384.74861,1.32419
384.50754,1.31447
384.26647,1.30692
384.02540,1.29655
383.78433,1.28116
383.54326,1.26399
383.30219,1.25024
383.06111,1.24472
382.82004,1.24893
382.57897,1.25710
382.33790,1.26070
382.09683,1.25937
381.85576,1.26202
381.61469,1.27211
381.37362,1.27941
381.13255,1.27401
380.89148,1.26108
380.65041,1.25168
380.40934,1.24812
380.16827,1.24694
379.92720,1.24867
379.68613,1.25391
379.44506,1.25572
379.20399,1.24922
378.96292,1.24123
378.72184,1.23950
378.48077,1.24294
378.23970,1.24777
377.99863,1.25277
377.75756,1.25661
377.51649,1.26024
377.27542,1.27070
377.03435,1.29268
376.79328,1.32044
376.55221,1.34505
376.31114,1.36352
376.07007,1.37580
375.82900,1.38239
375.58793,1.38717
375.34686,1.39192
375.10579,1.39224
374.86472,1.38580
374.62365,1.37572
374.38257,1.36317
374.14150,1.34694
373.90043,1.33132
373.65936,1.32356
373.41829,1.32370
373.17722,1.32518
372.93615,1.32492
372.69508,1.32504
372.45401,1.32478
372.21294,1.32012
371.97187,1.31306
371.73080,1.31084
371.48973,1.31327
371.24866,1.31130
371.00759,1.30163
370.76652,1.29200
370.52545,1.28819
370.28437,1.28586
370.04330,1.27848
369.80223,1.26675
369.56116,1.25629
369.32009,1.24922
369.07902,1.24416
368.83795,1.24054
368.59688,1.23866
368.35581,1.23717
368.11474,1.23348
367.87367,1.22766
367.63260,1.22270
367.39153,1.21940
367.15046,1.21439
366.90939,1.20581
366.66832,1.19736
366.42725,1.19321
366.18618,1.19319
365.94510,1.19502
365.70403,1.19698
365.46296,1.19686
365.22189,1.19286
364.98082,1.18784
364.73975,1.18705
364.49868,1.18986
364.25761,1.18975
364.01654,1.18435
363.77547,1.17810
363.53440,1.17416
363.29333,1.17084
363.05226,1.16652
362.81119,1.16315
362.57012,1.16308
362.32905,1.16587
362.08798,1.16846
361.84691,1.16767
361.60583,1.16334
361.36476,1.15772
361.12369,1.15267
360.88262,1.14940
360.64155,1.14907
360.40048,1.15147
360.15941,1.15510
359.91834,1.15823
359.67727,1.15857
359.43620,1.15453
359.19513,1.14783
358.95406,1.14223
358.71299,1.13964
358.47192,1.13973
358.23085,1.14196
357.98978,1.14467
357.74871,1.14397
357.50764,1.13851
357.26656,1.13267
357.02549,1.13085
356.78442,1.13295
356.54335,1.13722
356.30228,1.14244
356.06121,1.14612
355.82014,1.14568
355.57907,1.14264
355.33800,1.13997
355.09693,1.13739
354.85586,1.13404
354.61479,1.13276
354.37372,1.13758
354.13265,1.14798
353.89158,1.15769
353.65051,1.16076
353.40944,1.15750
353.16837,1.15217
352.92729,1.14703
352.68622,1.14300
352.44515,1.14233
352.20408,1.14502
351.96301,1.14686
351.72194,1.14571
351.48087,1.14566
351.23980,1.15116
350.99873,1.16036
350.75766,1.16707
350.51659,1.16790
350.27552,1.16505
350.03445,1.16320
349.79338,1.16562
349.55231,1.17120
349.31124,1.17528
349.07017,1.17530
348.82910,1.17400
348.58802,1.17479
348.34695,1.17615
348.10588,1.17399
347.86481,1.16862
347.62374,1.16466
347.38267,1.16537
347.14160,1.17179
346.90053,1.18396
346.65946,1.19798
346.41839,1.20569
346.17732,1.20323
345.93625,1.19666
345.69518,1.19515
345.45411,1.20255
345.21304,1.21469
344.97197,1.22233
344.73090,1.21938
344.48983,1.21127
344.24875,1.21107
344.00768,1.22373
343.76661,1.23934
343.52554,1.24707
343.28447,1.24880
343.04340,1.25218
342.80233,1.25827
342.56126,1.26217
342.32019,1.26094
342.07912,1.25646
341.83805,1.25379
341.59698,1.25731
341.35591,1.26614
341.11484,1.27484
340.87377,1.27997
340.63270,1.28394
340.39163,1.28939
340.15056,1.29311
339.90948,1.29275
339.66841,1.29389
339.42734,1.30235
339.18627,1.31599
338.94520,1.32897
338.70413,1.33797
338.46306,1.34121
338.22199,1.33894
337.98092,1.33676
337.73985,1.33982
337.49878,1.34552
337.25771,1.34901
337.01664,1.35203
336.77557,1.35803
336.53450,1.36442
336.29343,1.36781
336.05236,1.36924
335.81129,1.36901
335.57021,1.36415
335.32914,1.35479
335.08807,1.34700
334.84700,1.34428
334.60593,1.34090
334.36486,1.33103
334.12379,1.32010
333.88272,1.31658
333.64165,1.31788
333.40058,1.31326
333.15951,1.29866
332.91844,1.28101
332.67737,1.26772
332.43630,1.25995
332.19523,1.25580
331.95416,1.25284
331.71309,1.24793
331.47202,1.24019
331.23094,1.23360
330.98987,1.23261
330.74880,1.23726
330.50773,1.24460
330.26666,1.25156
330.02559,1.25527
329.78452,1.25311
329.54345,1.24513
329.30238,1.23624
329.06131,1.23259
328.82024,1.23544
328.57917,1.23953
328.33810,1.23905
328.09703,1.23344
327.85596,1.22643
327.61489,1.22308
327.37382,1.22607
327.13275,1.23186
326.89167,1.23322
326.65060,1.22748
326.40953,1.22038
326.16846,1.22000
325.92739,1.22906
325.68632,1.24153
325.44525,1.24761
325.20418,1.24604
324.96311,1.24377
324.72204,1.24311
324.48097,1.24032
324.23990,1.23600
323.99883,1.23622
323.75776,1.24295
323.51669,1.25139
323.27562,1.25783
323.03455,1.26471
322.79348,1.27444
322.55240,1.28235
322.31133,1.28051
322.07026,1.26920
321.82919,1.25625
321.58812,1.24491
321.34705,1.23409
321.10598,1.22712
320.86491,1.23108
320.62384,1.24755
320.38277,1.26788
320.14170,1.27943
319.90063,1.27645
319.65956,1.26374
319.41849,1.24911
319.17742,1.23726
318.93635,1.23302
318.69528,1.23875
318.45421,1.24998
318.21313,1.26081
317.97206,1.26952
317.73099,1.27711
317.48992,1.28365
317.24885,1.28664
317.00778,1.28282
316.76671,1.27089
316.52564,1.25462
316.28457,1.24235
316.04350,1.23906
315.80243,1.24242
315.56136,1.24988
315.32029,1.26320
315.07922,1.28102
314.83815,1.29449
314.59708,1.29833
314.35601,1.29912
314.11494,1.30435
313.87386,1.31214
313.63279,1.31529
313.39172,1.31078
313.15065,1.30333
312.90958,1.29795
312.66851,1.29383
312.42744,1.28987
312.18637,1.28870
311.94530,1.29015
311.70423,1.28927
311.46316,1.28567
311.22209,1.28643
310.98102,1.29580
310.73995,1.30801
310.49888,1.31397
310.25781,1.31192
310.01674,1.30788
309.77567,1.30862
309.53459,1.31721
309.29352,1.33076
309.05245,1.33917
308.81138,1.33391
308.57031,1.31946
308.32924,1.30698
308.08817,1.30213
307.84710,1.30735
307.60603,1.32432
307.36496,1.34636
307.12389,1.35909
306.88282,1.35665
306.64175,1.34760
306.40068,1.34196
306.15961,1.34184
305.91854,1.34563
305.67747,1.35347
305.43640,1.36489
305.19532,1.37439
304.95425,1.37420
304.71318,1.36288
304.47211,1.34683
304.23104,1.33349
303.98997,1.32737
303.74890,1.32951
303.50783,1.33599
303.26676,1.33851
303.02569,1.33103
302.78462,1.31641
302.54355,1.30234
302.30248,1.29254
302.06141,1.28607
301.82034,1.28111
301.57927,1.27694
301.33820,1.27367
301.09713,1.27037
300.85605,1.26399
300.61498,1.25195
300.37391,1.23710
300.13284,1.22635
299.89177,1.22304
299.65070,1.22409
299.40963,1.22467
299.16856,1.22271
298.92749,1.21816
298.68642,1.21075
298.44535,1.20075
298.20428,1.19059
297.96321,1.18367
297.72214,1.18116
297.48107,1.18208
297.24000,1.18508
296.99893,1.18710
296.75786,1.18354
296.51678,1.17358
296.27571,1.16208
296.03464,1.15415
295.79357,1.15069
295.55250,1.14999
295.31143,1.15010
295.07036,1.14864
294.82929,1.14359
294.58822,1.13622
294.34715,1.13108
294.10608,1.13082
293.86501,1.13239
293.62394,1.13058
293.38287,1.12444
293.14180,1.11762
292.90073,1.11305
292.65966,1.11101
292.41859,1.11097
292.17751,1.11206
291.93644,1.11285
291.69537,1.11219
291.45430,1.10930
291.21323,1.10346
290.97216,1.09506
290.73109,1.08619
290.49002,1.07983
290.24895,1.07793
290.00788,1.08025
289.76681,1.08455
289.52574,1.08720
289.28467,1.08493
289.04360,1.07725
288.80253,1.06790
288.56146,1.06330
288.32039,1.06673
288.07932,1.07461
287.83824,1.07996
287.59717,1.07922
287.35610,1.07435
287.11503,1.06848
286.87396,1.06281
286.63289,1.05755
286.39182,1.05351
286.15075,1.05178
285.90968,1.05255
285.66861,1.05471
285.42754,1.05616
285.18647,1.05541
284.94540,1.05364
284.70433,1.05325
284.46326,1.05412
284.22219,1.05370
283.98112,1.05111
283.74005,1.04889
283.49897,1.04977
283.25790,1.05306
283.01683,1.05511
282.77576,1.05394
282.53469,1.05257
282.29362,1.05559
282.05255,1.06255
281.81148,1.06742
281.57041,1.06574
281.32934,1.05942
281.08827,1.05309
280.84720,1.04892
280.60613,1.04675
280.36506,1.04682
280.12399,1.04960
279.88292,1.05353
279.64185,1.05595
279.40078,1.05697
279.15970,1.05974
278.91863,1.06552
278.67756,1.07034
278.43649,1.06902
278.19542,1.06261
277.95435,1.05744
277.71328,1.05696
277.47221,1.05947
277.23114,1.06254
276.99007,1.06542
276.74900,1.06776
276.50793,1.06875
276.26686,1.06797
276.02579,1.06639
275.78472,1.06584
275.54365,1.06733
275.30258,1.06962
275.06151,1.07046
274.82043,1.06980
274.57936,1.07029
274.33829,1.07410
274.09722,1.08037
273.85615,1.08609
273.61508,1.08926
273.37401,1.08990
273.13294,1.08887
272.89187,1.08796
272.65080,1.08936
272.40973,1.09356
272.16866,1.09880
271.92759,1.10311
271.68652,1.10570
271.44545,1.10663
271.20438,1.10672
270.96331,1.10708
270.72224,1.10833
270.48116,1.11026
270.24009,1.11218
269.99902,1.11424
269.75795,1.11826
269.51688,1.12546
269.27581,1.13335
269.03474,1.13792
268.79367,1.13940
268.55260,1.14263
268.31153,1.15071
268.07046,1.16085
267.82939,1.16746
267.58832,1.16929
267.34725,1.17153
267.10618,1.17920
266.86511,1.19081
266.62404,1.20082
266.38297,1.20717
266.14189,1.21316
265.90082,1.22165
265.65975,1.23076
265.41868,1.23739
265.17761,1.24190
264.93654,1.24674
264.69547,1.25314
264.45440,1.26149
264.21333,1.27312
263.97226,1.28918
263.73119,1.30823
263.49012,1.32611
263.24905,1.33940
263.00798,1.34899
262.76691,1.35922
262.52584,1.37276
262.28477,1.38975
262.04370,1.41116
261.80262,1.43825
261.56155,1.47002
261.32048,1.50334
261.07941,1.53412
260.83834,1.55807
260.59727,1.57435
260.35620,1.58859
260.11513,1.60764
259.87406,1.63231
259.63299,1.65802
259.39192,1.68070
259.15085,1.69978
258.90978,1.72193
258.66871,1.75419
258.42764,1.78319
258.18657,1.78633
257.94550,1.77734
257.70443,1.78673
257.46335,1.80943
257.22228,1.80366
256.98121,1.76600
256.74014,1.72993
256.49907,1.71046
256.25800,1.70319
256.01693,1.69672
255.77586,1.68142
255.53479,1.65987
255.29372,1.64470
255.05265,1.64140
254.81158,1.64109
254.57051,1.63278
254.32944,1.61370
254.08837,1.58820
253.84730,1.56287
253.60623,1.54191
253.36516,1.52785
253.12408,1.52151
252.88301,1.51996
252.64194,1.51864
252.40087,1.51644
252.15980,1.51714
251.91873,1.52292
251.67766,1.52789
251.43659,1.52245
251.19552,1.50493
250.95445,1.48422
250.71338,1.47175
250.47231,1.47258
250.23124,1.48099
249.99017,1.48633
249.74910,1.48604
249.50803,1.48649
249.26696,1.49286
249.02589,1.50405
248.78481,1.51263
248.54374,1.50974
248.30267,1.49343
248.06160,1.47179
247.82053,1.45772
247.57946,1.45937
247.33839,1.47570
247.09732,1.49833
246.85625,1.51526
246.61518,1.51855
246.37411,1.51217
246.13304,1.50717
245.89197,1.50982
245.65090,1.51997
245.40983,1.53797
245.16876,1.56470
244.92769,1.59347
244.68661,1.61449
244.44554,1.63330
244.20447,1.66902
243.96340,1.72936
243.72233,1.79693
243.48126,1.84467
243.24019,1.86687
242.99912,1.87968
242.75805,1.89706
242.51698,1.91384
242.27591,1.87356
242.03484,1.75711
241.79377,1.64729
241.55270,1.54993
241.31163,1.46642
241.07056,1.39691
240.82949,1.33563
240.58842,1.27968
240.34734,1.22993
240.10627,1.18570
239.86520,1.14506
239.62413,1.10885
239.38306,1.07914
239.14199,1.05457
238.90092,1.03065
238.65985,1.00501
238.41878,0.97990
238.17771,0.95826
237.93664,0.93957
237.69557,0.92143
237.45450,0.90340
237.21343,0.88706
236.97236,0.87329
236.73129,0.86162
236.49022,0.85136
236.24915,0.84214
236.00807,0.83353
235.76700,0.82506
235.52593,0.81679
235.28486,0.80980
235.04379,0.80504
234.80272,0.80170
234.56165,0.79797
234.32058,0.79352
234.07951,0.78976
233.83844,0.78795
233.59737,0.78763
233.35630,0.78680
233.11523,0.78352
232.87416,0.77828
232.63309,0.77377
232.39202,0.77145
232.15095,0.76965
231.90988,0.76613
231.66880,0.76187
231.42773,0.76034
231.18666,0.76253
230.94559,0.76469
230.70452,0.76322
230.46345,0.75985
230.22238,0.75875
229.98131,0.76030
229.74024,0.76159
229.49917,0.76125
229.25810,0.76057
229.01703,0.76063
228.77596,0.76095
228.53489,0.76070
228.29382,0.76003
228.05275,0.75965
227.81168,0.75937
227.57061,0.75786
227.32953,0.75415
227.08846,0.74922
226.84739,0.74580
226.60632,0.74594
226.36525,0.74865
226.12418,0.75103
225.88311,0.75205
225.64204,0.75319
225.40097,0.75520
225.15990,0.75693
224.91883,0.75785
224.67776,0.75924
224.43669,0.76218
224.19562,0.76596
223.95455,0.76907
223.71348,0.77102
223.47241,0.77264
223.23134,0.77521
222.99026,0.77966
222.74919,0.78599
222.50812,0.79301
222.26705,0.79919
222.02598,0.80437
221.78491,0.81023
221.54384,0.81840
221.30277,0.82863
221.06170,0.83970
220.82063,0.85087
220.57956,0.86091
220.33849,0.86794
220.09742,0.87267
219.85635,0.87868
219.61528,0.88803
219.37421,0.89951
219.13314,0.91146
218.89207,0.92307
218.65099,0.93396
218.40992,0.94484
218.16885,0.95716
217.92778,0.97135
217.68671,0.98685
217.44564,1.00351
217.20457,1.02088
216.96350,1.03728
216.72243,1.05110
216.48136,1.06229
216.24029,1.07298
215.99922,1.08665
215.75815,1.10545
215.51708,1.12832
215.27601,1.15192
215.03494,1.17186
214.79387,1.18447
214.55280,1.19048
214.31172,1.19529
214.07065,1.20409
213.82958,1.21836
213.58851,1.23571
213.34744,1.25245
213.10637,1.26818
212.86530,1.28577
212.62423,1.30489
212.38316,1.31993
212.14209,1.32778
211.90102,1.33150
211.65995,1.33246
211.41888,1.32836
211.17781,1.32219
210.93674,1.32373
210.69567,1.33788
210.45460,1.35770
210.21353,1.37157
209.97245,1.37290
209.73138,1.36049
209.49031,1.33667
209.24924,1.30971
209.00817,1.29235
208.76710,1.29293
208.52603,1.30787
208.28496,1.32369
208.04389,1.32912
207.80282,1.32373
207.56175,1.31227
207.32068,1.29686
207.07961,1.27808
206.83854,1.25866
206.59747,1.24172
206.35640,1.22770
206.11533,1.21469
205.87426,1.20104
205.63318,1.18675
205.39211,1.17222
205.15104,1.15647
204.90997,1.13790
204.66890,1.11612
204.42783,1.09360
204.18676,1.07461
203.94569,1.06134
203.70462,1.05237
203.46355,1.04428
203.22248,1.03409
202.98141,1.02007
202.74034,1.00140
202.49927,0.97922
202.25820,0.95666
202.01713,0.93619
201.77606,0.91812
201.53499,0.90165
201.29391,0.88663
201.05284,0.87325
200.81177,0.86078
200.57070,0.84805
200.32963,0.83516
200.08856,0.82323
199.84749,0.81241
199.60642,0.80143
199.36535,0.78914
199.12428,0.77579
198.88321,0.76247
198.64214,0.75015
198.40107,0.73941
198.16000,0.73013
197.91893,0.72118
197.67786,0.71101
197.43679,0.69928
197.19572,0.68769
196.95464,0.67857
196.71357,0.67238
196.47250,0.66644
196.23143,0.65754
195.99036,0.64621
195.74929,0.63637
195.50822,0.63088
195.26715,0.62894
195.02608,0.62714
194.78501,0.62253
194.54394,0.61485
194.30287,0.60615
194.06180,0.59888
193.82073,0.59417
193.57966,0.59112
193.33859,0.58754
193.09752,0.58218
192.85645,0.57617
192.61537,0.57138
192.37430,0.56785
192.13323,0.56406
191.89216,0.55939
191.65109,0.55491
191.41002,0.55195
191.16895,0.55049
190.92788,0.54872
190.68681,0.54484
190.44574,0.53980
190.20467,0.53661
189.96360,0.53645
189.72253,0.53681
189.48146,0.53466
189.24039,0.53031
188.99932,0.52670
188.75825,0.52532
188.51718,0.52474
188.27610,0.52314
188.03503,0.52072
187.79396,0.51884
187.55289,0.51791
187.31182,0.51733
187.07075,0.51689
186.82968,0.51742
186.58861,0.51926
186.34754,0.52118
186.10647,0.52193
185.86540,0.52205
185.62433,0.52292
185.38326,0.52453
185.14219,0.52547
184.90112,0.52527
184.66005,0.52547
184.41898,0.52760
184.17791,0.53097
183.93683,0.53352
183.69576,0.53452
183.45469,0.53531
183.21362,0.53693
182.97255,0.53868
182.73148,0.53943
182.49041,0.53924
182.24934,0.53904
182.00827,0.53939
181.76720,0.54031
181.52613,0.54202
181.28506,0.54454
181.04399,0.54700
180.80292,0.54870
180.56185,0.55040
180.32078,0.55327
180.07971,0.55743
179.83864,0.56236
179.59756,0.56794
179.35649,0.57423
179.11542,0.58104
178.87435,0.58804
178.63328,0.59531
178.39221,0.60373
178.15114,0.61452
177.91007,0.62801
177.66900,0.64250
177.42793,0.65495
177.18686,0.66457
176.94579,0.67467
176.70472,0.68887
176.46365,0.70665
176.22258,0.72557
175.98151,0.74526
175.74044,0.76575
175.49937,0.78569
175.25829,0.80569
175.01722,0.82874
174.77615,0.85471
174.53508,0.87966
174.29401,0.90124
174.05294,0.92090
173.81187,0.94137
173.57080,0.96375
173.32973,0.98562
173.08866,1.00215
172.84759,1.01181
172.60652,1.01855
172.36545,1.02678
172.12438,1.03681
171.88331,1.04499
171.64224,1.04664
171.40117,1.04072
171.16010,1.03213
170.91902,1.02765
170.67795,1.02877
170.43688,1.02914
170.19581,1.02112
169.95474,1.00521
169.71367,0.98852
169.47260,0.97560
169.23153,0.96637
168.99046,0.95989
168.74939,0.95525
168.50832,0.95072
168.26725,0.94560
168.02618,0.94174
167.78511,0.94125
167.54404,0.94405
167.30297,0.94842
167.06190,0.95280
166.82083,0.95714
166.57975,0.96242
166.33868,0.96820
166.09761,0.97205
165.85654,0.97278
165.61547,0.97283
165.37440,0.97605
165.13333,0.98423
164.89226,0.99712
164.65119,1.01420
164.41012,1.03436
164.16905,1.05451
163.92798,1.07120
163.68691,1.08371
163.44584,1.09439
163.20477,1.10608
162.96370,1.11966
162.72263,1.13341
162.48156,1.14397
162.24048,1.14945
161.99941,1.15305
161.75834,1.16152
161.51727,1.17713
161.27620,1.19273
161.03513,1.19865
160.79406,1.19420
160.55299,1.18581
160.31192,1.17594
160.07085,1.16251
159.82978,1.14705
159.58871,1.13509
159.34764,1.12909
159.10657,1.12643
158.86550,1.12379
158.62443,1.12021
158.38336,1.11522
158.14229,1.10677
157.90121,1.09451
157.66014,1.08255
157.41907,1.07587
157.17800,1.07540
156.93693,1.07783
156.69586,1.07988
156.45479,1.08013
156.21372,1.07628
155.97265,1.06481
155.73158,1.04554
155.49051,1.02367
155.24944,1.00577
155.00837,0.99490
154.76730,0.98858
154.52623,0.98060
154.28516,0.96656
154.04409,0.94746
153.80302,0.92622
153.56194,0.90365
153.32087,0.88013
153.07980,0.85769
152.83873,0.83825
152.59766,0.82115
152.35659,0.80345
152.11552,0.78291
151.87445,0.76038
151.63338,0.73860
151.39231,0.71933
151.15124,0.70266
150.91017,0.68769
150.66910,0.67280
150.42803,0.65675
150.18696,0.63993
149.94589,0.62349
149.70482,0.60796
149.46375,0.59401
149.22267,0.58281
148.98160,0.57471
148.74053,0.56821
148.49946,0.56121
148.25839,0.55295
148.01732,0.54486
147.77625,0.53952
147.53518,0.53837
147.29411,0.54009
147.05304,0.54126
146.81197,0.53953
146.57090,0.53615
146.32983,0.53474
146.08876,0.53781
145.84769,0.54485
145.60662,0.55327
145.36555,0.56052
145.12448,0.56569
144.88340,0.56991
144.64233,0.57482
144.40126,0.58047
144.16019,0.58528
143.91912,0.58812
143.67805,0.58918
143.43698,0.58859
143.19591,0.58550
142.95484,0.57941
142.71377,0.57109
142.47270,0.56164
142.23163,0.55155
141.99056,0.54110
141.74949,0.53060
141.50842,0.52062
141.26735,0.51243
141.02628,0.50726
140.78521,0.50457
140.54413,0.50231
140.30306,0.49967
140.06199,0.49799
139.82092,0.49861
139.57985,0.50134
139.33878,0.50576
139.09771,0.51229
138.85664,0.52119
138.61557,0.53135
138.37450,0.54102
138.13343,0.54985
137.89236,0.55994
137.65129,0.57400
137.41022,0.59225
137.16915,0.61229
136.92808,0.63245
136.68701,0.65362
136.44594,0.67715
136.20486,0.70323
135.96379,0.73194
135.72272,0.76318
135.48165,0.79541
135.24058,0.82720
134.99951,0.85961
134.75844,0.89448
134.51737,0.93114
134.27630,0.96782
134.03523,1.00462
133.79416,1.04203
133.55309,1.07845
133.31202,1.11214
133.07095,1.14290
132.82988,1.16958
132.58881,1.19179
132.34774,1.21359
132.10667,1.23543
131.86559,1.24611
131.62452,1.23523
131.38345,1.21039
131.14238,1.18485
130.90131,1.16022
130.66024,1.13060
130.41917,1.09282
130.17810,1.04805
129.93703,1.00019
129.69596,0.95408
129.45489,0.91158
129.21382,0.87105
128.97275,0.83124
128.73168,0.79304
128.49061,0.75754
128.24954,0.72478
128.00847,0.69417
127.76740,0.66541
127.52632,0.63888
127.28525,0.61477
127.04418,0.59214
126.80311,0.57008
126.56204,0.54927
126.32097,0.53073
126.07990,0.51443
125.83883,0.50008
125.59776,0.48776
125.35669,0.47670
125.11562,0.46550
124.87455,0.45399
124.63348,0.44328
124.39241,0.43364
124.15134,0.42423
123.91027,0.41499
123.66920,0.40729
123.42812,0.40251
123.18705,0.40050
122.94598,0.39991
122.70491,0.39982
122.46384,0.40062
122.22277,0.40308
121.98170,0.40673
121.74063,0.41008
121.49956,0.41286
121.25849,0.41700
121.01742,0.42456
120.77635,0.43571
120.53528,0.44911
120.29421,0.46328
120.05314,0.47731
119.81207,0.49145
119.57100,0.50697
119.32993,0.52519
119.08885,0.54683
118.84778,0.57266
118.60671,0.60327
118.36564,0.63776
118.12457,0.67367
117.88350,0.70773
117.64243,0.73650
117.40136,0.75830
117.16029,0.77492
116.91922,0.78888
116.67815,0.79943
116.43708,0.80395
116.19601,0.80153
115.95494,0.79261
115.71387,0.77722
115.47280,0.75613
115.23173,0.73205
114.99066,0.70873
114.74958,0.68964
114.50851,0.67663
114.26744,0.66836
114.02637,0.66146
113.78530,0.65395
113.54423,0.64698
113.30316,0.64312
113.06209,0.64394
112.82102,0.64977
112.57995,0.66069
112.33888,0.67632
112.09781,0.69486
111.85674,0.71385
111.61567,0.73156
111.37460,0.74608
111.13353,0.75400
110.89246,0.75243
110.65139,0.74215
110.41031,0.72747
110.16924,0.71398
109.92817,0.70546
109.68710,0.70042
109.44603,0.69270
109.20496,0.67805
108.96389,0.65831
108.72282,0.63739
108.48175,0.61595
108.24068,0.59163
107.99961,0.56249
107.75854,0.52991
107.51747,0.49872
107.27640,0.47388
107.03533,0.45674
106.79426,0.44516
106.55319,0.43636
106.31212,0.42818
106.07104,0.41864
105.82997,0.40666
105.58890,0.39315
105.34783,0.38003
105.10676,0.36826
104.86569,0.35754
104.62462,0.34763
104.38355,0.33924
104.14248,0.33306
103.90141,0.32840
103.66034,0.32356
103.41927,0.31713
103.17820,0.30872
102.93713,0.29925
102.69606,0.29087
102.45499,0.28562
102.21392,0.28380
101.97285,0.28377
101.73177,0.28323
101.49070,0.28042
101.24963,0.27459
101.00856,0.26655
100.76749,0.25847
100.52642,0.25266
100.28535,0.25017
100.04428,0.25026
99.80321,0.25088
99.56214,0.24953
99.32107,0.24472
99.08000,0.23733
98.83893,0.23080
98.59786,0.22894
98.35679,0.23248
98.11572,0.23742
97.87465,0.23877
97.63358,0.23644
97.39250,0.23535
97.15143,0.23959
96.91036,0.24849
96.66929,0.25734
96.42822,0.26211
96.18715,0.26406
95.94608,0.26822
95.70501,0.27782
95.46394,0.29105
95.22287,0.30229
94.98180,0.30775
94.74073,0.31025
94.49966,0.31504
94.25859,0.32184
94.01752,0.32526
93.77645,0.32341
93.53538,0.32124
93.29431,0.32309
93.05323,0.32676
92.81216,0.32749
92.57109,0.32587
92.33002,0.32704
92.08895,0.33228
91.84788,0.33745
91.60681,0.34073
91.36574,0.34666
91.12467,0.35948
90.88360,0.37791
90.64253,0.39974
90.40146,0.42804
90.16039,0.46722
89.91932,0.51533
89.67825,0.56688
89.43718,0.62082
89.19611,0.67472
88.95504,0.71580
88.71396,0.73469
88.47289,0.73621
88.23182,0.72154
87.99075,0.68578
87.74968,0.63504
87.50861,0.58131
87.26754,0.52930
87.02647,0.48084
86.78540,0.43951
86.54433,0.40596
86.30326,0.37741
86.06219,0.35234
85.82112,0.33027
85.58005,0.30937
85.33898,0.28850
85.09791,0.26930
84.85684,0.25367
84.61577,0.24097
84.37469,0.22937
84.13362,0.21880
83.89255,0.21084
83.65148,0.20580
83.41041,0.20167
83.16934,0.19665
82.92827,0.19097
82.68720,0.18546
82.44613,0.18034
82.20506,0.17575
81.96399,0.17192
81.72292,0.16872
81.48185,0.16594
81.24078,0.16385
80.99971,0.16265
80.75864,0.16179
80.51757,0.16049
80.27650,0.15860
80.03542,0.15673
79.79435,0.15558
79.55328,0.15551
79.31221,0.15646
79.07114,0.15801
78.83007,0.15934
78.58900,0.15944
78.34793,0.15773
78.10686,0.15477
77.86579,0.15195
77.62472,0.15007
77.38365,0.14880
77.14258,0.14790
76.90151,0.14807
76.66044,0.14977
76.41937,0.15181
76.17830,0.15206
75.93723,0.14968
75.69615,0.14628
75.45508,0.14409
75.21401,0.14373
74.97294,0.14408
74.73187,0.14376
74.49080,0.14249
74.24973,0.14131
74.00866,0.14199
73.76759,0.14532
73.52652,0.14930
73.28545,0.15015
73.04438,0.14662
72.80331,0.14179
72.56224,0.13946
72.32117,0.14059
72.08010,0.14395
71.83903,0.14809
71.59796,0.15152
71.35688,0.15247
71.11581,0.15054
70.87474,0.14779
70.63367,0.14753
70.39260,0.15255
70.15153,0.16467
69.91046,0.18453
69.66939,0.21035
69.42832,0.23678
69.18725,0.25623
68.94618,0.26264
68.70511,0.25514
68.46404,0.23783
68.22297,0.21604
67.98190,0.19375
67.74083,0.17404
67.49976,0.15917
67.25869,0.14949
67.01761,0.14341
66.77654,0.13914
66.53547,0.13596
66.29440,0.13416
66.05333,0.13447
65.81226,0.13725
65.57119,0.14190
65.33012,0.14743
65.08905,0.15327
64.84798,0.15959
64.60691,0.16710
64.36584,0.17644
64.12477,0.18710
63.88370,0.19649
63.64263,0.20073
63.40156,0.19710
63.16049,0.18588
62.91942,0.17019
62.67834,0.15439
62.43727,0.14160
62.19620,0.13210
61.95513,0.12405
61.71406,0.11634
61.47299,0.10990
61.23192,0.10589
60.99085,0.10363
60.74978,0.10185
60.50871,0.10121
60.26764,0.10382
60.02657,0.11052
59.78550,0.11974
59.54443,0.12925
59.30336,0.13794
59.06229,0.14574
58.82122,0.15268
58.58015,0.15818
58.33907,0.16111
58.09800,0.16055
57.85693,0.15667
57.61586,0.15060
57.37479,0.14350
57.13372,0.13613
56.89265,0.12880
56.65158,0.12147
56.41051,0.11462
56.16944,0.11011
55.92837,0.11051
55.68730,0.11753
55.44623,0.13095
55.20516,0.14842
54.96409,0.16549
54.72302,0.17572
54.48195,0.17303
54.24088,0.15705
53.99980,0.13464
53.75873,0.11464
53.51766,0.10264
53.27659,0.10057
53.03552,0.10892
52.79445,0.12753
52.55338,0.15304
52.31231,0.17519
52.07124,0.18001
51.83017,0.16340
51.58910,0.13594
51.34803,0.11124
51.10696,0.09889
50.86589,0.10492
50.62482,0.13096
50.38375,0.16818
50.14268,0.19010
49.90161,0.17256
49.66053,0.13235
49.41946,0.10170
49.17839,0.09762
48.93732,0.12311
48.69625,0.15997
48.45518,0.16282
48.21411,0.12555
47.97304,0.09583
47.73197,0.09944
47.49090,0.13090
47.24983,0.15216
47.00876,0.12884
46.76769,0.09705
46.52662,0.09398
46.28555,0.11200
46.04448,0.11794
45.80341,0.10558
45.56234,0.10489
45.32126,0.12333
45.08019,0.13094
44.83912,0.11578
44.59805,0.10848
44.35698,0.12076
44.11591,0.13208
43.87484,0.13322
43.63377,0.13553
43.39270,0.13818
43.15163,0.13467
42.91056,0.13419
42.66949,0.14241
42.42842,0.14845
42.18735,0.14717
41.94628,0.14436
41.70521,0.14079
41.46414,0.13388
41.22307,0.12557
40.98199,0.11870
40.74092,0.11571
40.49985,0.11952
40.25878,0.12948
40.01771,0.14110
39.77664,0.15090
39.53557,0.15819
39.29450,0.16411
39.05343,0.17052
38.81236,0.17886
38.57129,0.18954
38.33022,0.20254
38.08915,0.21590
37.84808,0.22593
37.60701,0.23002
37.36594,0.22726
37.12487,0.21956
36.88380,0.21116
36.64272,0.20511
36.40165,0.20191
36.16058,0.19926
35.91951,0.19228
35.67844,0.17791
35.43737,0.15978
35.19630,0.14428
34.95523,0.13330
34.71416,0.12434
34.47309,0.11460
34.23202,0.10377
33.99095,0.09381
33.74988,0.08505
33.50881,0.07459
33.26774,0.06298
33.02667,0.05869
32.78560,0.06920
32.54453,0.09300
32.30345,0.12042
32.06238,0.13671
31.82131,0.13029
31.58024,0.10240
31.33917,0.06722
31.09810,0.04137
30.85703,0.02821
30.61596,0.01625
30.37489,-0.00057
30.13382,-0.01434
29.89275,-0.01991
29.65168,-0.02569
29.41061,-0.04128
29.16954,-0.06509
28.92847,-0.08774
28.68740,-0.10249
28.44633,-0.10874
28.20526,-0.10874
27.96418,-0.10816
27.72311,-0.10977
27.48204,-0.10729
27.24097,-0.09996
26.99990,-0.10138
26.75883,-0.12047
26.51776,-0.15110
26.27669,-0.18780
26.03562,-0.22864
25.79455,-0.26045
25.55348,-0.27043
25.31241,-0.26799
25.07134,-0.27056
24.83027,-0.28112
24.58920,-0.29119
24.34813,-0.29769
24.10706,-0.30903
23.86599,-0.33374
23.62491,-0.36669
23.38384,-0.38717
23.14277,-0.38073
22.90170,-0.36025
22.66063,-0.34467
22.41956,-0.33733
22.17849,-0.33655
21.93742,-0.33916
21.69635,-0.34493
21.45528,-0.35180
21.21421,-0.35504
20.97314,-0.35871
20.73207,-0.36780
20.49100,-0.38157
20.24993,-0.39445
20.00886,-0.39843
19.76779,-0.39283
19.52672,-0.39092
19.28564,-0.39738
19.04457,-0.39977
18.80350,-0.39678
18.56243,-0.39505
18.32136,-0.39693
18.08029,-0.39850
17.83922,-0.39793
17.59815,-0.39736
17.35708,-0.39606
17.11601,-0.38971
16.87494,-0.37990
16.63387,-0.36739
16.39280,-0.35003
16.15173,-0.34358
15.91066,-0.36612
15.66959,-0.40975
15.42852,-0.44110
15.18745,-0.44389
14.94637,-0.42518
14.70530,-0.40136
14.46423,-0.38611
14.22316,-0.37608
13.98209,-0.36146
13.74102,-0.35091
13.49995,-0.36371
13.25888,-0.39705
13.01781,-0.41892
12.77674,-0.40615
12.53567,-0.37023
12.29460,-0.33305
12.05353,-0.31023
11.81246,-0.30760
11.57139,-0.32065
11.33032,-0.33877
11.08925,-0.35162
10.84818,-0.35622
10.60710,-0.35928
10.36603,-0.36840
10.12496,-0.38411
9.88389,-0.39976
9.64282,-0.40337
9.40175,-0.38658
9.16068,-0.35944
8.91961,-0.33984
8.67854,-0.33351
8.43747,-0.33658
8.19640,-0.34333
7.95533,-0.34835
7.71426,-0.35323
7.47319,-0.36551
7.23212,-0.37936
6.99105,-0.38232
6.74998,-0.38132
6.50891,-0.38233
6.26783,-0.38337
6.02676,-0.38614
5.78569,-0.38853
5.54462,-0.38547
5.30355,-0.38104
5.06248,-0.37820
4.82141,-0.36876
4.58034,-0.34898
4.33927,-0.32755
4.09820,-0.31585
3.85713,-0.32250
3.61606,-0.34494
3.37499,-0.37060
3.13392,-0.39493
2.89285,-0.41264
2.65178,-0.41246
2.41071,-0.40367
2.16964,-0.40979
1.92856,-0.42947
1.68749,-0.43864
1.44642,-0.43177
1.20535,-0.41535
0.96428,-0.39726
0.72321,-0.41689
0.48214,-0.48892
0.24107,-0.46600
-0.00000,-0.33541
