399.69498,1.47833
399.45391,1.46379
399.21284,1.45546
398.97177,1.45463
398.73070,1.45434
398.48963,1.44796
398.24856,1.43946
398.00749,1.43698
397.76642,1.43837
397.52535,1.43516
397.28428,1.42767
397.04321,1.42477
396.80214,1.43180
396.56107,1.44447
396.32000,1.45469
396.07892,1.45930
395.83785,1.46081
395.59678,1.46199
395.35571,1.46386
395.11464,1.46696
394.87357,1.46898
394.63250,1.46450
394.39143,1.45274
394.15036,1.43858
393.90929,1.42613
393.66822,1.41806
393.42715,1.41784
393.18608,1.42688
392.94501,1.44098
392.70394,1.45375
392.46287,1.46136
392.22180,1.46201
391.98073,1.45474
391.73965,1.44076
391.49858,1.42437
391.25751,1.41107
391.01644,1.40518
390.77537,1.40959
390.53430,1.42430
390.29323,1.44152
390.05216,1.44769
389.81109,1.43725
389.57002,1.41833
389.32895,1.40211
389.08788,1.39591
388.84681,1.40223
388.60574,1.41572
388.36467,1.42582
388.12360,1.42817
387.88253,1.42779
387.64146,1.42602
387.40038,1.41555
387.15931,1.39469
386.91824,1.37260
386.67717,1.35620
386.43610,1.34449
386.19503,1.33580
385.95396,1.33204
385.71289,1.33369
385.47182,1.33535
385.23075,1.32994
384.98968,1.31593
384.74861,1.29790
384.50754,1.28142
384.26647,1.26993
384.02540,1.26362
383.78433,1.25878
383.54326,1.25078
383.30219,1.23973
383.06111,1.22945
382.82004,1.22137
382.57897,1.21292
382.33790,1.20185
382.09683,1.18916
381.85576,1.17768
381.61469,1.16911
381.37362,1.16376
381.13255,1.16377
380.89148,1.17180
380.65041,1.18579
380.40934,1.19945
380.16827,1.20743
379.92720,1.20754
379.68613,1.20145
379.44506,1.19519
379.20399,1.19481
378.96292,1.19969
378.72184,1.20530
378.48077,1.21002
378.23970,1.21476
377.99863,1.22005
377.75756,1.22584
377.51649,1.23278
377.27542,1.24152
377.03435,1.25073
376.79328,1.25826
376.55221,1.26504
376.31114,1.27585
376.07007,1.29253
375.82900,1.30787
375.58793,1.31218
375.34686,1.30643
375.10579,1.30149
374.86472,1.30570
374.62365,1.31875
374.38257,1.33321
374.14150,1.34227
373.90043,1.34507
373.65936,1.34399
373.41829,1.34186
373.17722,1.34078
372.93615,1.34020
372.69508,1.33760
372.45401,1.33307
372.21294,1.32888
371.97187,1.32523
371.73080,1.32152
371.48973,1.31882
371.24866,1.31858
371.00759,1.32139
370.76652,1.32667
370.52545,1.33177
370.28437,1.33357
370.04330,1.33278
369.80223,1.33301
369.56116,1.33489
369.32009,1.33457
369.07902,1.32998
368.83795,1.32376
368.59688,1.31939
368.35581,1.31763
368.11474,1.31690
367.87367,1.31542
367.63260,1.31236
367.39153,1.30702
367.15046,1.29894
366.90939,1.29089
366.66832,1.28835
366.42725,1.29283
366.18618,1.29856
365.94510,1.29841
365.70403,1.29077
365.46296,1.28003
365.22189,1.27245
364.98082,1.27221
364.73975,1.27989
364.49868,1.29080
364.25761,1.29700
364.01654,1.29351
363.77547,1.28310
363.53440,1.27390
363.29333,1.27019
363.05226,1.26882
362.81119,1.26573
362.57012,1.26189
362.32905,1.26040
362.08798,1.26031
361.84691,1.25739
361.60583,1.25082
361.36476,1.24489
361.12369,1.24346
360.88262,1.24556
360.64155,1.24810
360.40048,1.24941
360.15941,1.24843
359.91834,1.24373
359.67727,1.23587
359.43620,1.22786
359.19513,1.22189
358.95406,1.21832
358.71299,1.21737
358.47192,1.21941
358.23085,1.22444
357.98978,1.23175
357.74871,1.23931
357.50764,1.24348
357.26656,1.24104
357.02549,1.23236
356.78442,1.22194
356.54335,1.21493
356.30228,1.21338
356.06121,1.21537
355.82014,1.21723
355.57907,1.21681
355.33800,1.21524
355.09693,1.21606
354.85586,1.22103
354.61479,1.22618
354.37372,1.22450
354.13265,1.21438
353.89158,1.20230
353.65051,1.19490
353.40944,1.19284
353.16837,1.19412
352.92729,1.19831
352.68622,1.20528
352.44515,1.21255
352.20408,1.21662
351.96301,1.21706
351.72194,1.21705
351.48087,1.21851
351.23980,1.21937
350.99873,1.21729
350.75766,1.21306
350.51659,1.20823
350.27552,1.20237
350.03445,1.19515
349.79338,1.18857
349.55231,1.18539
349.31124,1.18704
349.07017,1.19347
348.82910,1.20304
348.58802,1.21191
348.34695,1.21541
348.10588,1.21140
347.86481,1.20222
347.62374,1.19280
347.38267,1.18720
347.14160,1.18631
346.90053,1.18844
346.65946,1.19218
346.41839,1.19801
346.17732,1.20640
345.93625,1.21555
345.69518,1.22232
345.45411,1.22506
345.21304,1.22516
344.97197,1.22608
344.73090,1.22907
344.48983,1.23139
344.24875,1.23260
344.00768,1.23746
343.76661,1.24712
343.52554,1.25366
343.28447,1.25077
343.04340,1.24439
342.80233,1.24412
342.56126,1.25037
342.32019,1.25524
342.07912,1.25286
341.83805,1.24563
341.59698,1.24069
341.35591,1.24335
341.11484,1.25384
340.87377,1.26774
340.63270,1.27928
340.39163,1.28560
340.15056,1.28808
339.90948,1.28928
339.66841,1.28988
339.42734,1.28992
339.18627,1.29155
338.94520,1.29856
338.70413,1.31227
338.46306,1.32682
338.22199,1.33117
337.98092,1.32133
337.73985,1.30696
337.49878,1.30030
337.25771,1.30475
337.01664,1.31620
336.77557,1.32810
336.53450,1.33305
336.29343,1.32711
336.05236,1.31309
335.81129,1.29736
335.57021,1.28690
335.32914,1.28709
335.08807,1.29818
334.84700,1.31294
334.60593,1.32007
334.36486,1.31345
334.12379,1.29701
333.88272,1.27999
333.64165,1.26933
333.40058,1.26549
333.15951,1.26441
332.91844,1.26337
332.67737,1.26307
332.43630,1.26337
332.19523,1.26207
331.95416,1.25930
331.71309,1.25773
331.47202,1.25747
331.23094,1.25522
330.98987,1.24785
330.74880,1.23397
330.50773,1.21480
330.26666,1.19656
330.02559,1.18772
329.78452,1.19115
329.54345,1.20105
329.30238,1.20925
329.06131,1.21312
328.82024,1.21459
328.57917,1.21311
328.33810,1.20521
328.09703,1.19228
327.85596,1.18292
327.61489,1.18489
327.37382,1.19629
327.13275,1.20556
326.89167,1.20478
326.65060,1.19917
326.40953,1.19680
326.16846,1.19588
325.92739,1.19015
325.68632,1.18265
325.44525,1.18315
325.20418,1.19350
324.96311,1.20462
324.72204,1.20972
324.48097,1.21134
324.23990,1.21144
323.99883,1.20669
323.75776,1.19826
323.51669,1.19412
323.27562,1.19826
323.03455,1.20690
322.79348,1.21385
322.55240,1.21394
322.31133,1.20457
322.07026,1.18933
321.82919,1.17690
321.58812,1.17312
321.34705,1.17591
321.10598,1.17842
320.86491,1.17682
320.62384,1.17430
320.38277,1.17590
320.14170,1.18298
319.90063,1.19399
319.65956,1.20561
319.41849,1.21260
319.17742,1.21189
318.93635,1.20683
318.69528,1.20214
318.45421,1.19824
318.21313,1.19445
317.97206,1.19155
317.73099,1.18931
317.48992,1.18853
317.24885,1.19422
317.00778,1.20762
316.76671,1.21920
316.52564,1.22111
316.28457,1.21931
316.04350,1.22047
315.80243,1.21966
315.56136,1.21288
315.32029,1.20775
315.07922,1.21101
314.83815,1.21873
314.59708,1.22544
314.35601,1.23170
314.11494,1.23785
313.87386,1.24033
313.63279,1.23821
313.39172,1.23681
313.15065,1.24172
312.90958,1.25214
312.66851,1.26154
312.42744,1.26530
312.18637,1.26631
311.94530,1.26970
311.70423,1.27260
311.46316,1.26717
311.22209,1.25483
310.98102,1.24722
310.73995,1.25220
310.49888,1.26523
310.25781,1.27475
310.01674,1.27411
309.77567,1.26650
309.53459,1.26030
309.29352,1.26180
309.05245,1.27092
308.81138,1.28291
308.57031,1.29419
308.32924,1.30351
308.08817,1.30770
307.84710,1.30395
307.60603,1.29564
307.36496,1.29086
307.12389,1.29497
306.88282,1.30546
306.64175,1.31300
306.40068,1.31047
306.15961,1.30193
305.91854,1.29669
305.67747,1.29678
305.43640,1.29727
305.19532,1.29615
304.95425,1.29616
304.71318,1.29721
304.47211,1.29689
304.23104,1.29655
303.98997,1.29780
303.74890,1.29758
303.50783,1.29488
303.26676,1.29549
303.02569,1.30343
302.78462,1.31174
302.54355,1.31029
302.30248,1.30039
302.06141,1.29057
301.82034,1.28398
301.57927,1.27563
301.33820,1.26215
301.09713,1.25067
300.85605,1.25019
300.61498,1.25731
300.37391,1.25960
300.13284,1.25369
299.89177,1.24867
299.65070,1.25120
299.40963,1.25914
299.16856,1.26701
298.92749,1.26941
298.68642,1.26280
298.44535,1.25008
298.20428,1.23976
297.96321,1.23717
297.72214,1.23941
297.48107,1.24023
297.24000,1.23740
296.99893,1.23346
296.75786,1.23144
296.51678,1.23223
296.27571,1.23469
296.03464,1.23669
295.79357,1.23629
295.55250,1.23305
295.31143,1.22811
295.07036,1.22247
294.82929,1.21648
294.58822,1.21101
294.34715,1.20668
294.10608,1.20208
293.86501,1.19549
293.62394,1.18845
293.38287,1.18508
293.14180,1.18704
292.90073,1.19090
292.65966,1.19233
292.41859,1.19162
292.17751,1.19216
291.93644,1.19458
291.69537,1.19576
291.45430,1.19352
291.21323,1.18889
290.97216,1.18372
290.73109,1.17976
290.49002,1.17831
290.24895,1.17833
290.00788,1.17691
289.76681,1.17325
289.52574,1.16949
289.28467,1.16661
289.04360,1.16247
288.80253,1.15505
288.56146,1.14563
288.32039,1.13851
288.07932,1.13762
287.83824,1.14229
287.59717,1.14726
287.35610,1.14771
287.11503,1.14325
286.87396,1.13650
286.63289,1.13007
286.39182,1.12532
286.15075,1.12255
285.90968,1.12244
285.66861,1.12626
285.42754,1.13292
285.18647,1.13815
284.94540,1.13963
284.70433,1.13972
284.46326,1.14072
284.22219,1.14145
283.98112,1.14036
283.74005,1.13822
283.49897,1.13649
283.25790,1.13576
283.01683,1.13616
282.77576,1.13731
282.53469,1.13765
282.29362,1.13579
282.05255,1.13318
281.81148,1.13254
281.57041,1.13340
281.32934,1.13217
281.08827,1.12754
280.84720,1.12293
280.60613,1.12176
280.36506,1.12270
280.12399,1.12172
279.88292,1.11782
279.64185,1.11493
279.40078,1.11748
279.15970,1.12495
278.91863,1.13118
278.67756,1.12996
278.43649,1.12144
278.19542,1.11159
277.95435,1.10561
277.71328,1.10383
277.47221,1.10420
277.23114,1.10695
276.99007,1.11399
276.74900,1.12409
276.50793,1.13184
276.26686,1.13279
276.02579,1.12759
275.78472,1.12062
275.54365,1.11653
275.30258,1.11828
275.06151,1.12509
274.82043,1.13207
274.57936,1.13455
274.33829,1.13356
274.09722,1.13431
273.85615,1.13869
273.61508,1.14244
273.37401,1.14126
273.13294,1.13673
272.89187,1.13339
272.65080,1.13290
272.40973,1.13354
272.16866,1.13318
271.92759,1.13122
271.68652,1.12883
271.44545,1.12818
271.20438,1.13009
270.96331,1.13277
270.72224,1.13394
270.48116,1.13474
270.24009,1.13880
269.99902,1.14689
269.75795,1.15527
269.51688,1.16044
269.27581,1.16311
269.03474,1.16668
268.79367,1.17374
268.55260,1.18364
268.31153,1.19179
268.07046,1.19327
267.82939,1.18882
267.58832,1.18460
267.34725,1.18529
267.10618,1.18997
266.86511,1.19486
266.62404,1.19822
266.38297,1.20186
266.14189,1.20825
265.90082,1.21820
265.65975,1.23072
265.41868,1.24219
265.17761,1.24770
264.93654,1.24662
264.69547,1.24425
264.45440,1.24583
264.21333,1.25264
263.97226,1.26396
263.73119,1.27839
263.49012,1.29242
263.24905,1.30249
263.00798,1.30910
262.76691,1.31452
262.52584,1.31935
262.28477,1.32417
262.04370,1.33067
261.80262,1.34054
261.56155,1.35492
261.32048,1.37335
261.07941,1.39261
260.83834,1.40924
260.59727,1.42297
260.35620,1.43652
260.11513,1.45240
259.87406,1.46995
259.63299,1.48665
259.39192,1.50346
259.15085,1.52423
258.90978,1.54885
258.66871,1.57274
258.42764,1.59348
258.18657,1.61282
257.94550,1.63363
257.70443,1.65617
257.46335,1.67429
257.22228,1.68211
256.98121,1.68738
256.74014,1.70167
256.49907,1.71948
256.25800,1.72234
256.01693,1.70355
255.77586,1.67825
255.53479,1.66730
255.29372,1.67890
255.05265,1.70026
254.81158,1.70731
254.57051,1.69070
254.32944,1.66217
254.08837,1.63556
253.84730,1.61896
253.60623,1.61596
253.36516,1.62149
253.12408,1.62199
252.88301,1.60794
252.64194,1.58489
252.40087,1.56533
252.15980,1.55466
251.91873,1.54886
251.67766,1.54142
251.43659,1.53073
251.19552,1.52120
250.95445,1.51714
250.71338,1.51760
250.47231,1.51966
250.23124,1.52244
249.99017,1.52483
249.74910,1.52403
249.50803,1.51957
249.26696,1.51498
249.02589,1.51258
248.78481,1.51182
248.54374,1.51225
248.30267,1.51275
248.06160,1.51107
247.82053,1.50812
247.57946,1.50906
247.33839,1.51733
247.09732,1.53102
246.85625,1.54663
246.61518,1.56199
246.37411,1.57631
246.13304,1.59018
245.89197,1.60516
245.65090,1.62089
245.40983,1.63435
245.16876,1.64637
244.92769,1.66304
244.68661,1.68844
244.44554,1.71886
244.20447,1.74586
243.96340,1.76799
243.72233,1.79589
243.48126,1.84082
243.24019,1.89425
242.99912,1.92001
242.75805,1.89642
242.51698,1.84769
242.27591,1.79249
242.03484,1.72471
241.79377,1.64722
241.55270,1.57854
241.31163,1.52927
241.07056,1.49571
240.82949,1.46986
240.58842,1.44506
240.34734,1.41633
240.10627,1.38384
239.86520,1.35274
239.62413,1.32737
239.38306,1.30587
239.14199,1.28209
238.90092,1.25378
238.65985,1.22494
238.41878,1.19906
238.17771,1.17514
237.93664,1.15190
237.69557,1.13162
237.45450,1.11760
237.21343,1.10918
236.97236,1.10116
236.73129,1.08903
236.49022,1.07371
236.24915,1.05968
236.00807,1.04876
235.76700,1.03901
235.52593,1.02963
235.28486,1.02266
235.04379,1.01820
234.80272,1.01253
234.56165,1.00311
234.32058,0.99185
234.07951,0.98193
233.83844,0.97442
233.59737,0.96890
233.35630,0.96461
233.11523,0.96041
232.87416,0.95531
232.63309,0.94987
232.39202,0.94623
232.15095,0.94531
231.90988,0.94382
231.66880,0.93748
231.42773,0.92801
231.18666,0.92152
230.94559,0.91967
230.70452,0.91850
230.46345,0.91563
230.22238,0.91257
229.98131,0.91015
229.74024,0.90700
229.49917,0.90291
229.25810,0.89981
229.01703,0.89837
228.77596,0.89655
228.53489,0.89292
228.29382,0.88893
228.05275,0.88586
227.81168,0.88205
227.57061,0.87632
227.32953,0.87071
227.08846,0.86681
226.84739,0.86335
226.60632,0.85941
226.36525,0.85646
226.12418,0.85577
225.88311,0.85666
225.64204,0.85747
225.40097,0.85675
225.15990,0.85411
224.91883,0.85094
224.67776,0.84867
224.43669,0.84660
224.19562,0.84343
223.95455,0.84039
223.71348,0.84036
223.47241,0.84403
223.23134,0.84900
222.99026,0.85276
222.74919,0.85502
222.50812,0.85712
222.26705,0.86030
222.02598,0.86475
221.78491,0.86926
221.54384,0.87230
221.30277,0.87394
221.06170,0.87569
220.82063,0.87872
220.57956,0.88347
220.33849,0.89030
220.09742,0.89868
219.85635,0.90656
219.61528,0.91202
219.37421,0.91525
219.13314,0.91847
218.89207,0.92453
218.65099,0.93518
218.40992,0.94924
218.16885,0.96324
217.92778,0.97490
217.68671,0.98500
217.44564,0.99513
217.20457,1.00536
216.96350,1.01476
216.72243,1.02316
216.48136,1.03170
216.24029,1.04160
215.99922,1.05282
215.75815,1.06481
215.51708,1.07735
215.27601,1.08985
215.03494,1.10091
214.79387,1.11002
214.55280,1.11859
214.31172,1.12869
214.07065,1.14045
213.82958,1.15120
213.58851,1.15874
213.34744,1.16470
213.10637,1.17192
212.86530,1.18012
212.62423,1.18697
212.38316,1.19193
212.14209,1.19652
211.90102,1.20182
211.65995,1.20746
211.41888,1.21211
211.17781,1.21428
210.93674,1.21330
210.69567,1.21023
210.45460,1.20817
210.21353,1.21021
209.97245,1.21583
209.73138,1.22045
209.49031,1.21999
209.24924,1.21497
209.00817,1.20924
208.76710,1.20614
208.52603,1.20630
208.28496,1.20700
208.04389,1.20420
207.80282,1.19683
207.56175,1.18796
207.32068,1.18147
207.07961,1.17763
206.83854,1.17286
206.59747,1.16427
206.35640,1.15299
206.11533,1.14272
205.87426,1.13572
205.63318,1.13062
205.39211,1.12395
205.15104,1.11354
204.90997,1.10074
204.66890,1.08886
204.42783,1.07958
204.18676,1.07203
203.94569,1.06484
203.70462,1.05704
203.46355,1.04766
203.22248,1.03700
202.98141,1.02756
202.74034,1.02055
202.49927,1.01215
202.25820,0.99748
202.01713,0.97819
201.77606,0.96112
201.53499,0.95038
201.29391,0.94359
201.05284,0.93520
200.81177,0.92235
200.57070,0.90746
200.32963,0.89520
200.08856,0.88736
199.84749,0.88077
199.60642,0.87125
199.36535,0.85891
199.12428,0.84743
198.88321,0.83852
198.64214,0.82997
198.40107,0.81915
198.16000,0.80661
197.91893,0.79556
197.67786,0.78787
197.43679,0.78192
197.19572,0.77479
196.95464,0.76580
196.71357,0.75677
196.47250,0.74895
196.23143,0.74146
195.99036,0.73292
195.74929,0.72360
195.50822,0.71531
195.26715,0.70927
195.02608,0.70445
194.78501,0.69895
194.54394,0.69256
194.30287,0.68641
194.06180,0.68063
193.82073,0.67431
193.57966,0.66770
193.33859,0.66244
193.09752,0.65929
192.85645,0.65682
192.61537,0.65305
192.37430,0.64779
192.13323,0.64228
191.89216,0.63706
191.65109,0.63141
191.41002,0.62514
191.16895,0.61950
190.92788,0.61573
190.68681,0.61338
190.44574,0.61079
190.20467,0.60712
189.96360,0.60324
189.72253,0.60038
189.48146,0.59828
189.24039,0.59583
188.99932,0.59331
188.75825,0.59207
188.51718,0.59192
188.27610,0.59071
188.03503,0.58749
187.79396,0.58397
187.55289,0.58174
187.31182,0.57985
187.07075,0.57677
186.82968,0.57317
186.58861,0.57087
186.34754,0.56999
186.10647,0.56929
185.86540,0.56850
185.62433,0.56819
185.38326,0.56800
185.14219,0.56710
184.90112,0.56585
184.66005,0.56538
184.41898,0.56585
184.17791,0.56645
183.93683,0.56740
183.69576,0.56977
183.45469,0.57287
183.21362,0.57418
182.97255,0.57321
182.73148,0.57237
182.49041,0.57313
182.24934,0.57442
182.00827,0.57557
181.76720,0.57709
181.52613,0.57829
181.28506,0.57768
181.04399,0.57533
180.80292,0.57247
180.56185,0.56998
180.32078,0.56857
180.07971,0.56909
179.83864,0.57203
179.59756,0.57727
179.35649,0.58398
179.11542,0.59070
178.87435,0.59612
178.63328,0.60045
178.39221,0.60526
178.15114,0.61187
177.91007,0.61997
177.66900,0.62841
177.42793,0.63657
177.18686,0.64454
176.94579,0.65267
176.70472,0.66190
176.46365,0.67384
176.22258,0.68910
175.98151,0.70584
175.74044,0.72117
175.49937,0.73418
175.25829,0.74655
175.01722,0.76037
174.77615,0.77628
174.53508,0.79350
174.29401,0.81087
174.05294,0.82763
173.81187,0.84346
173.57080,0.85796
173.32973,0.87058
173.08866,0.88079
172.84759,0.88850
172.60652,0.89499
172.36545,0.90246
172.12438,0.91090
171.88331,0.91699
171.64224,0.91873
171.40117,0.91893
171.16010,0.92068
170.91902,0.92197
170.67795,0.91791
170.43688,0.90753
170.19581,0.89561
169.95474,0.88733
169.71367,0.88350
169.47260,0.88144
169.23153,0.87851
168.99046,0.87328
168.74939,0.86509
168.50832,0.85464
168.26725,0.84457
168.02618,0.83832
167.78511,0.83771
167.54404,0.84123
167.30297,0.84519
167.06190,0.84724
166.82083,0.84750
166.57975,0.84646
166.33868,0.84484
166.09761,0.84518
165.85654,0.85013
165.61547,0.85938
165.37440,0.87006
165.13333,0.87965
164.89226,0.88729
164.65119,0.89324
164.41012,0.89880
164.16905,0.90601
163.92798,0.91582
163.68691,0.92634
163.44584,0.93452
163.20477,0.93967
162.96370,0.94411
162.72263,0.95073
162.48156,0.96059
162.24048,0.97190
161.99941,0.98098
161.75834,0.98593
161.51727,0.98850
161.27620,0.99093
161.03513,0.99321
160.79406,0.99471
160.55299,0.99541
160.31192,0.99462
160.07085,0.99053
159.82978,0.98265
159.58871,0.97393
159.34764,0.96873
159.10657,0.96829
158.86550,0.96923
158.62443,0.96711
158.38336,0.96112
158.14229,0.95402
157.90121,0.94836
157.66014,0.94431
157.41907,0.94075
157.17800,0.93780
156.93693,0.93636
156.69586,0.93601
156.45479,0.93584
156.21372,0.93584
155.97265,0.93577
155.73158,0.93397
155.49051,0.92871
155.24944,0.91948
155.00837,0.90760
154.76730,0.89612
154.52623,0.88739
154.28516,0.88081
154.04409,0.87377
153.80302,0.86449
153.56194,0.85317
153.32087,0.84100
153.07980,0.82846
152.83873,0.81459
152.59766,0.79854
152.35659,0.78140
152.11552,0.76567
151.87445,0.75318
151.63338,0.74376
151.39231,0.73510
151.15124,0.72445
150.91017,0.71120
150.66910,0.69724
150.42803,0.68456
150.18696,0.67254
149.94589,0.65913
149.70482,0.64484
149.46375,0.63294
149.22267,0.62512
148.98160,0.61912
148.74053,0.61177
148.49946,0.60253
148.25839,0.59311
148.01732,0.58512
147.77625,0.57906
147.53518,0.57454
147.29411,0.57086
147.05304,0.56784
146.81197,0.56620
146.57090,0.56669
146.32983,0.56854
146.08876,0.56967
145.84769,0.56923
145.60662,0.56888
145.36555,0.57054
145.12448,0.57395
144.88340,0.57805
144.64233,0.58300
144.40126,0.58914
144.16019,0.59500
143.91912,0.59856
143.67805,0.59922
143.43698,0.59737
143.19591,0.59304
142.95484,0.58652
142.71377,0.57879
142.47270,0.57058
142.23163,0.56178
141.99056,0.55266
141.74949,0.54419
141.50842,0.53686
141.26735,0.53007
141.02628,0.52329
140.78521,0.51718
140.54413,0.51284
140.30306,0.51014
140.06199,0.50809
139.82092,0.50672
139.57985,0.50731
139.33878,0.51041
139.09771,0.51451
138.85664,0.51767
138.61557,0.51995
138.37450,0.52345
138.13343,0.52984
137.89236,0.53927
137.65129,0.55109
137.41022,0.56416
137.16915,0.57668
136.92808,0.58816
136.68701,0.60084
136.44594,0.61700
136.20486,0.63599
135.96379,0.65609
135.72272,0.67735
135.48165,0.70050
135.24058,0.72493
134.99951,0.74983
134.75844,0.77519
134.51737,0.80039
134.27630,0.82377
134.03523,0.84481
133.79416,0.86506
133.55309,0.88612
133.31202,0.90769
133.07095,0.92810
132.82988,0.94607
132.58881,0.96088
132.34774,0.97226
132.10667,0.98060
131.86559,0.98577
131.62452,0.98608
131.38345,0.98011
131.14238,0.96931
130.90131,0.95680
130.66024,0.94405
130.41917,0.92969
130.17810,0.91124
129.93703,0.88851
129.69596,0.86452
129.45489,0.84223
129.21382,0.82118
128.97275,0.79926
128.73168,0.77645
128.49061,0.75455
128.24954,0.73407
128.00847,0.71413
127.76740,0.69441
127.52632,0.67542
127.28525,0.65721
127.04418,0.63919
126.80311,0.62133
126.56204,0.60471
126.32097,0.59023
126.07990,0.57750
125.83883,0.56562
125.59776,0.55430
125.35669,0.54330
125.11562,0.53164
124.87455,0.51868
124.63348,0.50538
124.39241,0.49370
124.15134,0.48530
123.91027,0.48076
123.66920,0.47881
123.42812,0.47647
123.18705,0.47145
122.94598,0.46459
122.70491,0.45863
122.46384,0.45532
122.22277,0.45427
121.98170,0.45389
121.74063,0.45304
121.49956,0.45217
121.25849,0.45275
121.01742,0.45550
120.77635,0.46015
120.53528,0.46675
120.29421,0.47579
120.05314,0.48678
119.81207,0.49872
119.57100,0.51203
119.32993,0.52815
119.08885,0.54703
118.84778,0.56690
118.60671,0.58679
118.36564,0.60770
118.12457,0.63122
117.88350,0.65775
117.64243,0.68517
117.40136,0.70925
117.16029,0.72715
116.91922,0.74016
116.67815,0.75053
116.43708,0.75714
116.19601,0.75743
115.95494,0.75166
115.71387,0.74235
115.47280,0.73144
115.23173,0.71966
114.99066,0.70784
114.74958,0.69729
114.50851,0.68862
114.26744,0.68089
114.02637,0.67275
113.78530,0.66408
113.54423,0.65626
113.30316,0.65108
113.06209,0.64994
112.82102,0.65406
112.57995,0.66378
112.33888,0.67658
112.09781,0.68768
111.85674,0.69431
111.61567,0.69825
111.37460,0.70326
111.13353,0.71157
110.89246,0.72301
110.65139,0.73540
110.41031,0.74477
110.16924,0.74666
109.92817,0.73889
109.68710,0.72317
109.44603,0.70434
109.20496,0.68772
108.96389,0.67539
108.72282,0.66449
108.48175,0.64991
108.24068,0.62973
107.99961,0.60771
107.75854,0.58898
107.51747,0.57432
107.27640,0.56057
107.03533,0.54514
106.79426,0.52844
106.55319,0.51247
106.31212,0.49805
106.07104,0.48467
105.82997,0.47219
105.58890,0.46080
105.34783,0.44982
105.10676,0.43838
104.86569,0.42709
104.62462,0.41755
104.38355,0.41046
104.14248,0.40474
103.90141,0.39806
103.66034,0.38857
103.41927,0.37713
103.17820,0.36711
102.93713,0.36121
102.69606,0.35874
102.45499,0.35631
102.21392,0.35131
101.97285,0.34434
101.73177,0.33788
101.49070,0.33320
101.24963,0.32940
101.00856,0.32468
100.76749,0.31825
100.52642,0.31111
100.28535,0.30527
100.04428,0.30205
99.80321,0.30047
99.56214,0.29764
99.32107,0.29221
99.08000,0.28654
98.83893,0.28379
98.59786,0.28352
98.35679,0.28189
98.11572,0.27708
97.87465,0.27215
97.63358,0.27081
97.39250,0.27255
97.15143,0.27414
96.91036,0.27479
96.66929,0.27696
96.42822,0.28192
96.18715,0.28768
95.94608,0.29206
95.70501,0.29636
95.46394,0.30353
95.22287,0.31322
94.98180,0.32143
94.74073,0.32615
94.49966,0.32971
94.25859,0.33376
94.01752,0.33602
93.77645,0.33454
93.53538,0.33192
93.29431,0.33191
93.05323,0.33412
92.81216,0.33530
92.57109,0.33525
92.33002,0.33655
92.08895,0.33878
91.84788,0.33926
91.60681,0.33945
91.36574,0.34336
91.12467,0.35110
90.88360,0.36155
90.64253,0.37784
90.40146,0.40295
90.16039,0.43400
89.91932,0.46746
89.67825,0.50420
89.43718,0.54383
89.19611,0.58172
88.95504,0.61544
88.71396,0.64510
88.47289,0.66629
88.23182,0.67120
87.99075,0.65705
87.74968,0.62833
87.50861,0.59221
87.26754,0.55498
87.02647,0.52044
86.78540,0.48965
86.54433,0.46281
86.30326,0.44036
86.06219,0.42162
85.82112,0.40399
85.58005,0.38538
85.33898,0.36602
85.09791,0.34708
84.85684,0.32943
84.61577,0.31409
84.37469,0.30197
84.13362,0.29311
83.89255,0.28655
83.65148,0.28082
83.41041,0.27462
83.16934,0.26774
82.92827,0.26130
82.68720,0.25640
82.44613,0.25286
82.20506,0.24962
81.96399,0.24607
81.72292,0.24251
81.48185,0.23965
81.24078,0.23775
80.99971,0.23638
80.75864,0.23448
80.51757,0.23108
80.27650,0.22627
80.03542,0.22128
79.79435,0.21729
79.55328,0.21461
79.31221,0.21272
79.07114,0.21092
78.83007,0.20923
78.58900,0.20858
78.34793,0.20924
78.10686,0.20961
77.86579,0.20768
77.62472,0.20333
77.38365,0.19825
77.14258,0.19403
76.90151,0.19116
76.66044,0.18944
76.41937,0.18838
76.17830,0.18746
75.93723,0.18616
75.69615,0.18386
75.45508,0.18018
75.21401,0.17571
74.97294,0.17214
74.73187,0.17103
74.49080,0.17248
74.24973,0.17538
74.00866,0.17864
73.76759,0.18138
73.52652,0.18254
73.28545,0.18140
73.04438,0.17878
72.80331,0.17677
72.56224,0.17700
72.32117,0.17946
72.08010,0.18257
71.83903,0.18424
71.59796,0.18349
71.35688,0.18155
71.11581,0.18092
70.87474,0.18312
70.63367,0.18822
70.39260,0.19647
70.15153,0.20919
69.91046,0.22691
69.66939,0.24750
69.42832,0.26654
69.18725,0.27939
68.94618,0.28313
68.70511,0.27767
68.46404,0.26539
68.22297,0.24954
67.98190,0.23313
67.74083,0.21870
67.49976,0.20752
67.25869,0.19881
67.01761,0.19045
66.77654,0.18097
66.53547,0.17076
66.29440,0.16140
66.05333,0.15409
65.81226,0.14920
65.57119,0.14709
65.33012,0.14863
65.08905,0.15442
64.84798,0.16357
64.60691,0.17400
64.36584,0.18405
64.12477,0.19284
63.88370,0.19922
63.64263,0.20193
63.40156,0.20125
63.16049,0.19912
62.91942,0.19727
62.67834,0.19590
62.43727,0.19423
62.19620,0.19152
61.95513,0.18725
61.71406,0.18060
61.47299,0.17081
61.23192,0.15826
60.99085,0.14508
60.74978,0.13456
60.50871,0.12963
60.26764,0.13107
60.02657,0.13725
59.78550,0.14592
59.54443,0.15631
59.30336,0.16886
59.06229,0.18272
58.82122,0.19350
58.58015,0.19522
58.33907,0.18603
58.09800,0.17016
57.85693,0.15384
57.61586,0.14241
57.37479,0.13962
57.13372,0.14648
56.89265,0.15962
56.65158,0.17083
56.41051,0.17047
56.16944,0.15668
55.92837,0.13829
55.68730,0.12555
55.44623,0.12406
55.20516,0.13525
54.96409,0.15623
54.72302,0.17740
54.48195,0.18507
54.24088,0.17500
53.99980,0.15800
53.75873,0.14752
53.51766,0.15011
53.27659,0.16438
53.03552,0.18144
52.79445,0.18763
52.55338,0.17782
52.31231,0.16385
52.07124,0.16136
51.83017,0.17462
51.58910,0.19075
51.34803,0.18944
51.10696,0.17066
50.86589,0.15605
50.62482,0.16101
50.38375,0.18343
50.14268,0.20258
49.90161,0.19557
49.66053,0.17280
49.41946,0.16316
49.17839,0.17799
48.93732,0.19868
48.69625,0.19431
48.45518,0.17190
48.21411,0.16267
47.97304,0.17562
47.73197,0.18898
47.49090,0.17868
47.24983,0.15930
47.00876,0.15602
46.76769,0.16271
46.52662,0.15707
46.28555,0.14720
46.04448,0.15310
45.80341,0.16542
45.56234,0.16259
45.32126,0.15457
45.08019,0.15845
44.83912,0.16191
44.59805,0.15143
44.35698,0.14240
44.11591,0.14762
43.87484,0.15883
43.63377,0.16802
43.39270,0.17614
43.15163,0.18325
42.91056,0.18836
42.66949,0.19277
42.42842,0.19611
42.18735,0.19538
41.94628,0.19040
41.70521,0.18533
41.46414,0.18314
41.22307,0.18210
40.98199,0.18084
40.74092,0.18285
40.49985,0.19123
40.25878,0.20298
40.01771,0.21179
39.77664,0.21254
39.53557,0.20545
39.29450,0.19897
39.05343,0.20085
38.81236,0.20805
38.57129,0.21389
38.33022,0.22171
38.08915,0.23896
37.84808,0.26107
37.60701,0.27283
37.36594,0.26626
37.12487,0.25032
36.88380,0.23774
36.64272,0.23092
36.40165,0.22655
36.16058,0.22268
35.91951,0.21797
35.67844,0.21070
35.43737,0.19970
35.19630,0.18509
34.95523,0.17013
34.71416,0.16058
34.47309,0.15904
34.23202,0.16270
33.99095,0.16746
33.74988,0.17101
33.50881,0.17155
33.26774,0.16612
33.02667,0.15674
32.78560,0.15497
32.54453,0.16778
32.30345,0.18350
32.06238,0.18322
31.82131,0.16249
31.58024,0.13277
31.33917,0.10869
31.09810,0.09782
30.85703,0.09635
30.61596,0.09467
30.37489,0.08660
30.13382,0.07075
29.89275,0.04993
29.65168,0.03232
29.41061,0.02345
29.16954,0.01685
28.92847,0.00304
28.68740,-0.01518
28.44633,-0.02640
28.20526,-0.02724
27.96418,-0.02869
27.72311,-0.04252
27.48204,-0.06720
27.24097,-0.09097
26.99990,-0.10343
26.75883,-0.10331
26.51776,-0.09823
26.27669,-0.09707
26.03562,-0.10362
25.79455,-0.11485
25.55348,-0.12130
25.31241,-0.11712
25.07134,-0.10919
24.83027,-0.10951
24.58920,-0.12162
24.34813,-0.13702
24.10706,-0.14727
23.86599,-0.15335
23.62491,-0.16028
23.38384,-0.17175
23.14277,-0.19008
22.90170,-0.21446
22.66063,-0.23821
22.41956,-0.25047
22.17849,-0.24586
21.93742,-0.23234
21.69635,-0.22430
21.45528,-0.22960
21.21421,-0.24429
20.97314,-0.25525
20.73207,-0.25244
20.49100,-0.24506
20.24993,-0.24599
20.00886,-0.24946
19.76779,-0.24979
19.52672,-0.25762
19.28564,-0.27945
19.04457,-0.30092
18.80350,-0.30276
18.56243,-0.28685
18.32136,-0.27087
18.08029,-0.26633
17.83922,-0.27341
17.59815,-0.28691
17.35708,-0.30176
17.11601,-0.31101
16.87494,-0.30816
16.63387,-0.29818
16.39280,-0.28894
16.15173,-0.28310
15.91066,-0.28450
15.66959,-0.29734
15.42852,-0.31622
15.18745,-0.32848
14.94637,-0.32752
14.70530,-0.31660
14.46423,-0.30231
14.22316,-0.28866
13.98209,-0.27680
13.74102,-0.26657
13.49995,-0.25847
13.25888,-0.25656
13.01781,-0.26694
12.77674,-0.28834
12.53567,-0.31124
12.29460,-0.32973
12.05353,-0.34107
11.81246,-0.33618
11.57139,-0.31163
11.33032,-0.28662
11.08925,-0.28359
10.84818,-0.30064
10.60710,-0.31512
10.36603,-0.32018
10.12496,-0.32667
9.88389,-0.33659
9.64282,-0.34091
9.40175,-0.33215
9.16068,-0.31690
8.91961,-0.30485
8.67854,-0.29438
8.43747,-0.28209
8.19640,-0.27228
7.95533,-0.26981
7.71426,-0.27479
7.47319,-0.28520
7.23212,-0.29696
6.99105,-0.30569
6.74998,-0.30994
6.50891,-0.30836
6.26783,-0.30467
6.02676,-0.30434
5.78569,-0.30212
5.54462,-0.29841
5.30355,-0.30071
5.06248,-0.30500
4.82141,-0.30041
4.58034,-0.29179
4.33927,-0.28947
4.09820,-0.29039
3.85713,-0.29231
3.61606,-0.29978
3.37499,-0.31169
3.13392,-0.32294
2.89285,-0.32693
2.65178,-0.31714
2.41071,-0.30023
2.16964,-0.28843
1.92856,-0.27749
1.68749,-0.26389
1.44642,-0.26101
1.20535,-0.27528
0.96428,-0.29847
0.72321,-0.33791
0.48214,-0.42150
0.24107,-0.46967
-0.00000,-0.29321
