399.69498,1.58529
399.45391,1.58011
399.21284,1.56952
398.97177,1.55826
398.73070,1.55405
398.48963,1.55734
398.24856,1.55561
398.00749,1.54239
397.76642,1.53267
397.52535,1.54196
397.28428,1.56254
397.04321,1.57088
396.80214,1.55788
396.56107,1.53630
396.32000,1.52105
396.07892,1.51915
395.83785,1.52979
395.59678,1.54445
395.35571,1.55485
395.11464,1.56149
394.87357,1.56546
394.63250,1.56540
394.39143,1.56683
394.15036,1.57951
393.90929,1.60071
393.66822,1.61038
393.42715,1.59724
393.18608,1.57444
392.94501,1.55436
392.70394,1.54068
392.46287,1.53468
392.22180,1.52961
391.98073,1.51644
391.73965,1.49617
391.49858,1.48094
391.25751,1.47880
391.01644,1.48386
390.77537,1.48914
390.53430,1.49852
390.29323,1.51200
390.05216,1.51766
389.81109,1.51059
389.57002,1.50298
389.32895,1.50627
389.08788,1.52017
388.84681,1.53802
388.60574,1.54826
388.36467,1.53791
388.12360,1.50515
387.88253,1.46686
387.64146,1.44350
387.40038,1.43746
387.15931,1.43928
386.91824,1.44135
386.67717,1.43868
386.43610,1.42846
386.19503,1.41455
385.95396,1.40255
385.71289,1.39132
385.47182,1.37788
385.23075,1.36824
384.98968,1.37213
384.74861,1.38268
384.50754,1.37742
384.26647,1.35296
384.02540,1.32764
383.78433,1.31303
383.54326,1.31147
383.30219,1.32059
383.06111,1.32960
382.82004,1.32578
382.57897,1.31422
382.33790,1.31032
382.09683,1.32033
381.85576,1.33779
381.61469,1.34601
381.37362,1.33964
381.13255,1.32892
380.89148,1.31506
380.65041,1.29389
380.40934,1.27670
380.16827,1.28175
379.92720,1.31133
379.68613,1.34631
379.44506,1.35968
379.20399,1.33978
378.96292,1.29614
378.72184,1.25240
378.48077,1.23188
378.23970,1.23977
377.99863,1.26410
377.75756,1.29082
377.51649,1.31654
377.27542,1.34336
377.03435,1.36210
376.79328,1.36423
376.55221,1.35861
376.31114,1.35319
376.07007,1.34636
375.82900,1.34036
375.58793,1.34416
375.34686,1.36567
375.10579,1.40308
374.86472,1.43779
374.62365,1.44932
374.38257,1.44386
374.14150,1.44131
373.90043,1.44306
373.65936,1.43653
373.41829,1.41815
373.17722,1.39607
372.93615,1.37775
372.69508,1.36405
372.45401,1.35386
372.21294,1.34991
371.97187,1.35553
371.73080,1.36855
371.48973,1.38181
371.24866,1.38898
371.00759,1.38795
370.76652,1.38022
370.52545,1.37000
370.28437,1.36090
370.04330,1.35135
369.80223,1.33689
369.56116,1.31742
369.32009,1.29974
369.07902,1.28980
368.83795,1.28768
368.59688,1.28959
368.35581,1.29162
368.11474,1.29240
367.87367,1.29183
367.63260,1.29090
367.39153,1.29111
367.15046,1.29292
366.90939,1.29735
366.66832,1.30593
366.42725,1.31483
366.18618,1.31646
365.94510,1.30727
365.70403,1.28888
365.46296,1.26614
365.22189,1.24864
364.98082,1.24540
364.73975,1.25264
364.49868,1.25756
364.25761,1.25601
364.01654,1.25472
363.77547,1.25789
363.53440,1.26423
363.29333,1.27303
363.05226,1.28141
362.81119,1.28027
362.57012,1.26478
362.32905,1.24352
362.08798,1.22922
361.84691,1.22508
361.60583,1.22619
361.36476,1.22946
361.12369,1.23452
360.88262,1.23833
360.64155,1.23717
360.40048,1.23227
360.15941,1.22874
359.91834,1.22939
359.67727,1.23116
359.43620,1.22841
359.19513,1.22096
358.95406,1.21570
358.71299,1.21768
358.47192,1.22313
358.23085,1.22376
357.98978,1.21591
357.74871,1.20513
357.50764,1.20163
357.26656,1.20975
357.02549,1.22260
356.78442,1.23007
356.54335,1.23122
356.30228,1.23103
356.06121,1.23009
355.82014,1.22643
355.57907,1.22077
355.33800,1.21564
355.09693,1.21419
354.85586,1.21790
354.61479,1.22234
354.37372,1.22114
354.13265,1.21644
353.89158,1.21608
353.65051,1.22136
353.40944,1.22599
353.16837,1.22699
352.92729,1.22962
352.68622,1.23839
352.44515,1.24875
352.20408,1.25131
351.96301,1.24352
351.72194,1.23301
351.48087,1.22678
351.23980,1.22298
350.99873,1.21856
350.75766,1.21712
350.51659,1.22065
350.27552,1.22476
350.03445,1.22715
349.79338,1.23038
349.55231,1.23499
349.31124,1.23841
349.07017,1.24032
348.82910,1.24254
348.58802,1.24481
348.34695,1.24621
348.10588,1.24616
347.86481,1.24362
347.62374,1.24005
347.38267,1.23881
347.14160,1.24060
346.90053,1.24413
346.65946,1.24875
346.41839,1.25375
346.17732,1.25890
345.93625,1.26688
345.69518,1.28030
345.45411,1.29573
345.21304,1.30502
344.97197,1.30535
344.73090,1.30421
344.48983,1.30929
344.24875,1.32052
344.00768,1.33183
343.76661,1.33564
343.52554,1.33095
343.28447,1.32652
343.04340,1.33185
342.80233,1.34545
342.56126,1.35552
342.32019,1.35540
342.07912,1.35124
341.83805,1.34790
341.59698,1.33940
341.35591,1.32309
341.11484,1.31227
340.87377,1.32137
340.63270,1.34588
340.39163,1.36737
340.15056,1.37606
339.90948,1.37447
339.66841,1.36467
339.42734,1.35085
339.18627,1.34350
338.94520,1.35285
338.70413,1.37781
338.46306,1.40350
338.22199,1.41884
337.98092,1.42722
337.73985,1.43113
337.49878,1.42296
337.25771,1.40019
337.01664,1.37371
336.77557,1.35553
336.53450,1.35189
336.29343,1.36369
336.05236,1.38280
335.81129,1.39632
335.57021,1.40207
335.32914,1.40477
335.08807,1.39863
334.84700,1.37851
334.60593,1.35798
334.36486,1.35173
334.12379,1.35439
333.88272,1.35298
333.64165,1.34824
333.40058,1.34724
333.15951,1.34933
332.91844,1.34832
332.67737,1.34131
332.43630,1.33427
332.19523,1.33335
331.95416,1.33585
331.71309,1.33541
331.47202,1.33033
331.23094,1.32446
330.98987,1.32244
330.74880,1.32434
330.50773,1.32508
330.26666,1.31937
330.02559,1.30895
329.78452,1.30108
329.54345,1.29727
329.30238,1.29073
329.06131,1.27942
328.82024,1.27319
328.57917,1.27879
328.33810,1.28821
328.09703,1.29082
327.85596,1.28587
327.61489,1.27690
327.37382,1.26676
327.13275,1.26108
326.89167,1.26427
326.65060,1.27243
326.40953,1.27880
326.16846,1.28311
325.92739,1.28616
325.68632,1.28053
325.44525,1.26082
325.20418,1.24018
324.96311,1.24100
324.72204,1.27033
324.48097,1.30911
324.23990,1.33177
323.99883,1.33517
323.75776,1.32833
323.51669,1.31554
323.27562,1.30514
323.03455,1.30898
322.79348,1.32511
322.55240,1.33668
322.31133,1.33297
322.07026,1.32502
321.82919,1.32632
321.58812,1.33243
321.34705,1.33159
321.10598,1.32186
320.86491,1.31010
320.62384,1.30042
320.38277,1.29364
320.14170,1.29243
319.90063,1.29894
319.65956,1.31484
319.41849,1.34248
319.17742,1.37809
318.93635,1.40380
318.69528,1.39625
318.45421,1.35599
318.21313,1.31824
317.97206,1.30963
317.73099,1.32186
317.48992,1.33156
317.24885,1.33152
317.00778,1.33404
316.76671,1.34480
316.52564,1.35260
316.28457,1.35017
316.04350,1.34405
315.80243,1.34198
315.56136,1.34383
315.32029,1.34742
315.07922,1.35287
314.83815,1.35747
314.59708,1.35456
314.35601,1.34419
314.11494,1.33708
313.87386,1.34258
313.63279,1.35547
313.39172,1.36049
313.15065,1.35443
312.90958,1.34859
312.66851,1.35056
312.42744,1.35514
312.18637,1.35337
311.94530,1.34946
311.70423,1.35609
311.46316,1.37241
311.22209,1.38081
310.98102,1.37158
310.73995,1.35676
310.49888,1.35471
310.25781,1.37093
310.01674,1.39442
309.77567,1.40862
309.53459,1.40628
309.29352,1.39577
309.05245,1.38974
308.81138,1.39225
308.57031,1.39814
308.32924,1.40032
308.08817,1.39703
307.84710,1.39323
307.60603,1.39704
307.36496,1.41152
307.12389,1.42759
306.88282,1.43166
306.64175,1.42027
306.40068,1.40347
306.15961,1.39386
305.91854,1.39758
305.67747,1.41248
305.43640,1.42683
305.19532,1.42515
304.95425,1.40515
304.71318,1.37988
304.47211,1.36143
304.23104,1.35394
303.98997,1.35360
303.74890,1.35067
303.50783,1.33893
303.26676,1.32386
303.02569,1.31717
302.78462,1.32430
302.54355,1.33798
302.30248,1.34588
302.06141,1.34466
301.82034,1.34209
301.57927,1.34333
301.33820,1.34203
301.09713,1.33151
300.85605,1.32008
300.61498,1.32056
300.37391,1.32999
300.13284,1.33211
299.89177,1.31907
299.65070,1.30012
299.40963,1.28446
299.16856,1.27079
298.92749,1.25837
298.68642,1.25449
298.44535,1.26358
298.20428,1.27567
297.96321,1.27401
297.72214,1.25620
297.48107,1.23764
297.24000,1.23231
296.99893,1.24050
296.75786,1.25171
296.51678,1.25401
296.27571,1.24342
296.03464,1.22768
295.79357,1.21876
295.55250,1.22005
295.31143,1.22111
295.07036,1.21061
294.82929,1.19366
294.58822,1.18374
294.34715,1.18548
294.10608,1.19065
293.86501,1.18770
293.62394,1.17706
293.38287,1.17019
293.14180,1.17289
292.90073,1.17835
292.65966,1.17671
292.41859,1.16781
292.17751,1.16057
291.93644,1.16141
291.69537,1.16711
291.45430,1.16930
291.21323,1.16502
290.97216,1.15902
290.73109,1.15577
290.49002,1.15408
290.24895,1.14977
290.00788,1.14159
289.76681,1.13346
289.52574,1.12957
289.28467,1.12881
289.04360,1.12770
288.80253,1.12667
288.56146,1.12831
288.32039,1.13135
288.07932,1.13118
287.83824,1.12593
287.59717,1.11934
287.35610,1.11725
287.11503,1.12121
286.87396,1.12628
286.63289,1.12734
286.39182,1.12549
286.15075,1.12444
285.90968,1.12479
285.66861,1.12477
285.42754,1.12323
285.18647,1.12043
284.94540,1.11763
284.70433,1.11632
284.46326,1.11597
284.22219,1.11438
283.98112,1.11140
283.74005,1.10921
283.49897,1.10849
283.25790,1.10812
283.01683,1.10832
282.77576,1.11028
282.53469,1.11282
282.29362,1.11320
282.05255,1.11160
281.81148,1.11092
281.57041,1.11248
281.32934,1.11407
281.08827,1.11235
280.84720,1.10608
280.60613,1.09785
280.36506,1.09258
280.12399,1.09356
279.88292,1.10001
279.64185,1.10880
279.40078,1.11786
279.15970,1.12583
278.91863,1.13035
278.67756,1.12962
278.43649,1.12537
278.19542,1.12232
277.95435,1.12311
277.71328,1.12638
277.47221,1.12918
277.23114,1.12908
276.99007,1.12427
276.74900,1.11528
276.50793,1.10642
276.26686,1.10230
276.02579,1.10349
275.78472,1.10709
275.54365,1.11099
275.30258,1.11539
275.06151,1.11979
274.82043,1.12183
274.57936,1.11964
274.33829,1.11424
274.09722,1.11033
273.85615,1.11364
273.61508,1.12561
273.37401,1.14049
273.13294,1.14959
272.89187,1.14967
272.65080,1.14430
272.40973,1.13832
272.16866,1.13514
271.92759,1.13723
271.68652,1.14476
271.44545,1.15473
271.20438,1.16331
270.96331,1.16887
270.72224,1.17260
270.48116,1.17641
270.24009,1.18051
269.99902,1.18314
269.75795,1.18262
269.51688,1.17980
269.27581,1.17791
269.03474,1.18008
268.79367,1.18716
268.55260,1.19708
268.31153,1.20695
268.07046,1.21550
267.82939,1.22206
267.58832,1.22483
267.34725,1.22362
267.10618,1.22268
266.86511,1.22707
266.62404,1.23782
266.38297,1.25199
266.14189,1.26516
265.90082,1.27452
265.65975,1.28119
265.41868,1.28775
265.17761,1.29462
264.93654,1.30263
264.69547,1.31605
264.45440,1.33576
264.21333,1.35170
263.97226,1.35359
263.73119,1.34847
263.49012,1.35297
263.24905,1.37159
263.00798,1.39222
262.76691,1.40335
262.52584,1.40902
262.28477,1.42022
262.04370,1.44051
261.80262,1.46630
261.56155,1.49374
261.32048,1.51927
261.07941,1.53990
260.83834,1.55948
260.59727,1.58563
260.35620,1.61575
260.11513,1.63434
259.87406,1.63510
259.63299,1.63479
259.39192,1.65237
259.15085,1.68837
258.90978,1.72481
258.66871,1.74637
258.42764,1.76071
258.18657,1.77847
257.94550,1.79530
257.70443,1.80633
257.46335,1.81005
257.22228,1.79880
256.98121,1.77458
256.74014,1.75374
256.49907,1.75048
256.25800,1.76711
256.01693,1.79172
255.77586,1.80623
255.53479,1.79357
255.29372,1.74791
255.05265,1.68410
254.81158,1.62666
254.57051,1.59049
254.32944,1.57149
254.08837,1.55997
253.84730,1.55675
253.60623,1.56172
253.36516,1.56397
253.12408,1.56124
252.88301,1.56418
252.64194,1.57669
252.40087,1.59160
252.15980,1.60271
251.91873,1.60590
251.67766,1.59660
251.43659,1.57919
251.19552,1.56709
250.95445,1.56630
250.71338,1.56760
250.47231,1.55847
250.23124,1.53963
249.99017,1.52452
249.74910,1.52262
249.50803,1.52839
249.26696,1.52781
249.02589,1.51625
248.78481,1.50514
248.54374,1.50659
248.30267,1.51986
248.06160,1.53689
247.82053,1.55335
247.57946,1.56447
247.33839,1.56226
247.09732,1.55043
246.85625,1.54354
246.61518,1.54927
246.37411,1.56138
246.13304,1.57033
245.89197,1.57572
245.65090,1.58316
245.40983,1.59259
245.16876,1.60232
244.92769,1.61689
244.68661,1.64084
244.44554,1.67684
244.20447,1.72869
243.96340,1.79995
243.72233,1.88315
243.48126,1.95243
243.24019,1.98839
242.99912,2.00323
242.75805,2.00570
242.51698,1.94890
242.27591,1.80046
242.03484,1.66011
241.79377,1.56330
241.55270,1.49448
241.31163,1.43103
241.07056,1.36367
240.82949,1.30030
240.58842,1.25202
240.34734,1.22024
240.10627,1.19677
239.86520,1.17196
239.62413,1.14295
239.38306,1.11329
239.14199,1.08585
238.90092,1.06045
238.65985,1.03619
238.41878,1.01220
238.17771,0.98786
237.93664,0.96437
237.69557,0.94472
237.45450,0.93082
237.21343,0.92171
236.97236,0.91449
236.73129,0.90630
236.49022,0.89607
236.24915,0.88497
236.00807,0.87482
235.76700,0.86625
235.52593,0.85905
235.28486,0.85336
235.04379,0.84880
234.80272,0.84395
234.56165,0.83848
234.32058,0.83407
234.07951,0.83184
233.83844,0.83098
233.59737,0.83058
233.35630,0.83035
233.11523,0.82938
232.87416,0.82633
232.63309,0.82105
232.39202,0.81534
232.15095,0.81134
231.90988,0.80909
231.66880,0.80690
231.42773,0.80466
231.18666,0.80412
230.94559,0.80525
230.70452,0.80555
230.46345,0.80419
230.22238,0.80377
229.98131,0.80596
229.74024,0.80771
229.49917,0.80520
229.25810,0.79932
229.01703,0.79371
228.77596,0.78975
228.53489,0.78725
228.29382,0.78695
228.05275,0.78906
227.81168,0.79157
227.57061,0.79227
227.32953,0.79060
227.08846,0.78703
226.84739,0.78361
226.60632,0.78357
226.36525,0.78701
226.12418,0.78998
225.88311,0.79059
225.64204,0.79142
225.40097,0.79428
225.15990,0.79724
224.91883,0.79808
224.67776,0.79656
224.43669,0.79377
224.19562,0.79181
223.95455,0.79319
223.71348,0.79882
223.47241,0.80763
223.23134,0.81824
222.99026,0.82894
222.74919,0.83650
222.50812,0.83832
222.26705,0.83577
222.02598,0.83248
221.78491,0.83163
221.54384,0.83566
221.30277,0.84530
221.06170,0.85836
220.82063,0.87201
220.57956,0.88489
220.33849,0.89575
220.09742,0.90368
219.85635,0.91087
219.61528,0.92011
219.37421,0.93030
219.13314,0.93957
218.89207,0.95016
218.65099,0.96545
218.40992,0.98446
218.16885,1.00270
217.92778,1.01678
217.68671,1.02721
217.44564,1.03698
217.20457,1.04848
216.96350,1.06360
216.72243,1.08344
216.48136,1.10449
216.24029,1.11937
215.99922,1.12613
215.75815,1.12987
215.51708,1.13417
215.27601,1.14065
215.03494,1.15393
214.79387,1.17767
214.55280,1.20743
214.31172,1.23354
214.07065,1.25048
213.82958,1.25897
213.58851,1.26236
213.34744,1.26689
213.10637,1.27897
212.86530,1.29801
212.62423,1.31506
212.38316,1.32107
212.14209,1.31634
211.90102,1.31030
211.65995,1.31351
211.41888,1.32963
211.17781,1.35182
210.93674,1.36879
210.69567,1.37446
210.45460,1.37022
210.21353,1.36175
209.97245,1.35422
209.73138,1.34913
209.49031,1.34642
209.24924,1.34626
209.00817,1.34813
208.76710,1.35168
208.52603,1.35490
208.28496,1.35228
208.04389,1.34204
207.80282,1.33060
207.56175,1.32330
207.32068,1.31677
207.07961,1.30432
206.83854,1.28373
206.59747,1.25833
206.35640,1.23450
206.11533,1.21881
205.87426,1.21372
205.63318,1.21215
205.39211,1.19988
205.15104,1.17094
204.90997,1.13497
204.66890,1.10594
204.42783,1.09046
204.18676,1.08441
203.94569,1.07868
203.70462,1.06790
203.46355,1.05311
203.22248,1.03925
202.98141,1.03065
202.74034,1.02503
202.49927,1.01297
202.25820,0.98891
202.01713,0.95952
201.77606,0.93550
201.53499,0.92074
201.29391,0.91144
201.05284,0.90138
200.81177,0.88720
200.57070,0.87012
200.32963,0.85365
200.08856,0.84018
199.84749,0.82959
199.60642,0.81969
199.36535,0.80854
199.12428,0.79667
198.88321,0.78633
198.64214,0.77865
198.40107,0.77207
198.16000,0.76342
197.91893,0.75108
197.67786,0.73703
197.43679,0.72517
197.19572,0.71705
196.95464,0.70928
196.71357,0.69773
196.47250,0.68435
196.23143,0.67469
195.99036,0.66974
195.74929,0.66476
195.50822,0.65668
195.26715,0.64876
195.02608,0.64546
194.78501,0.64613
194.54394,0.64561
194.30287,0.64028
194.06180,0.63189
193.82073,0.62400
193.57966,0.61742
193.33859,0.61132
193.09752,0.60658
192.85645,0.60480
192.61537,0.60477
192.37430,0.60294
192.13323,0.59745
191.89216,0.58997
191.65109,0.58342
191.41002,0.57904
191.16895,0.57609
190.92788,0.57324
190.68681,0.56979
190.44574,0.56603
190.20467,0.56264
189.96360,0.56014
189.72253,0.55886
189.48146,0.55869
189.24039,0.55844
188.99932,0.55692
188.75825,0.55481
188.51718,0.55379
188.27610,0.55357
188.03503,0.55187
187.79396,0.54861
187.55289,0.54716
187.31182,0.54962
187.07075,0.55301
186.82968,0.55307
186.58861,0.55044
186.34754,0.54885
186.10647,0.54920
185.86540,0.54986
185.62433,0.55113
185.38326,0.55445
185.14219,0.55858
184.90112,0.56087
184.66005,0.56149
184.41898,0.56181
184.17791,0.56090
183.93683,0.55794
183.69576,0.55587
183.45469,0.55743
183.21362,0.56019
182.97255,0.56077
182.73148,0.56112
182.49041,0.56478
182.24934,0.57048
182.00827,0.57460
181.76720,0.57683
181.52613,0.57884
181.28506,0.58064
181.04399,0.58146
180.80292,0.58165
180.56185,0.58189
180.32078,0.58259
180.07971,0.58436
179.83864,0.58757
179.59756,0.59213
179.35649,0.59813
179.11542,0.60546
178.87435,0.61325
178.63328,0.62120
178.39221,0.63060
178.15114,0.64185
177.91007,0.65301
177.66900,0.66300
177.42793,0.67332
177.18686,0.68531
176.94579,0.69888
176.70472,0.71403
176.46365,0.73065
176.22258,0.74802
175.98151,0.76636
175.74044,0.78652
175.49937,0.80851
175.25829,0.83229
175.01722,0.85746
174.77615,0.88102
174.53508,0.90006
174.29401,0.91602
174.05294,0.93200
173.81187,0.94931
173.57080,0.96906
173.32973,0.99195
173.08866,1.01584
172.84759,1.03687
172.60652,1.05227
172.36545,1.06069
172.12438,1.06223
171.88331,1.05808
171.64224,1.04897
171.40117,1.03748
171.16010,1.03017
170.91902,1.03144
170.67795,1.03692
170.43688,1.03756
170.19581,1.02974
169.95474,1.01701
169.71367,1.00371
169.47260,0.99145
169.23153,0.98035
168.99046,0.97107
168.74939,0.96532
168.50832,0.96451
168.26725,0.96793
168.02618,0.97194
167.78511,0.97210
167.54404,0.96780
167.30297,0.96331
167.06190,0.96237
166.82083,0.96377
166.57975,0.96401
166.33868,0.96284
166.09761,0.96406
165.85654,0.97112
165.61547,0.98430
165.37440,1.00106
165.13333,1.01643
164.89226,1.02482
164.65119,1.02572
164.41012,1.02591
164.16905,1.03367
163.92798,1.05287
163.68691,1.08149
163.44584,1.11207
163.20477,1.13536
162.96370,1.14747
162.72263,1.15229
162.48156,1.15610
162.24048,1.16204
161.99941,1.16881
161.75834,1.17440
161.51727,1.17912
161.27620,1.18257
161.03513,1.18091
160.79406,1.17243
160.55299,1.16141
160.31192,1.15224
160.07085,1.14458
159.82978,1.13745
159.58871,1.13278
159.34764,1.13100
159.10657,1.12802
158.86550,1.12043
158.62443,1.11129
158.38336,1.10685
158.14229,1.10894
157.90121,1.11261
157.66014,1.11075
157.41907,1.10017
157.17800,1.08287
156.93693,1.06390
156.69586,1.04886
156.45479,1.04065
156.21372,1.03825
155.97265,1.03793
155.73158,1.03530
155.49051,1.02746
155.24944,1.01469
155.00837,1.00052
154.76730,0.98914
154.52623,0.98152
154.28516,0.97384
154.04409,0.96100
153.80302,0.94193
153.56194,0.91907
153.32087,0.89445
153.07980,0.87048
152.83873,0.85014
152.59766,0.83265
152.35659,0.81257
152.11552,0.78703
151.87445,0.76011
151.63338,0.73768
151.39231,0.72124
151.15124,0.70816
150.91017,0.69521
150.66910,0.68056
150.42803,0.66399
150.18696,0.64716
149.94589,0.63216
149.70482,0.61893
149.46375,0.60582
149.22267,0.59305
148.98160,0.58330
148.74053,0.57818
148.49946,0.57556
148.25839,0.57124
148.01732,0.56370
147.77625,0.55594
147.53518,0.55170
147.29411,0.55130
147.05304,0.55176
146.81197,0.55073
146.57090,0.54960
146.32983,0.55126
146.08876,0.55585
145.84769,0.56076
145.60662,0.56461
145.36555,0.56877
145.12448,0.57476
144.88340,0.58197
144.64233,0.58843
144.40126,0.59280
144.16019,0.59542
143.91912,0.59725
143.67805,0.59835
143.43698,0.59781
143.19591,0.59514
142.95484,0.59065
142.71377,0.58434
142.47270,0.57574
142.23163,0.56523
141.99056,0.55446
141.74949,0.54489
141.50842,0.53685
141.26735,0.53022
141.02628,0.52500
140.78521,0.52106
140.54413,0.51804
140.30306,0.51597
140.06199,0.51561
139.82092,0.51749
139.57985,0.52128
139.33878,0.52618
139.09771,0.53174
138.85664,0.53766
138.61557,0.54383
138.37450,0.55122
138.13343,0.56121
137.89236,0.57377
137.65129,0.58761
137.41022,0.60272
137.16915,0.62048
136.92808,0.64128
136.68701,0.66445
136.44594,0.68997
136.20486,0.71777
135.96379,0.74620
135.72272,0.77356
135.48165,0.80035
135.24058,0.82821
134.99951,0.85802
134.75844,0.89081
134.51737,0.92806
134.27630,0.96950
134.03523,1.01230
133.79416,1.05209
133.55309,1.08471
133.31202,1.10974
133.07095,1.13211
132.82988,1.15594
132.58881,1.17817
132.34774,1.19257
132.10667,1.19794
131.86559,1.19648
131.62452,1.18722
131.38345,1.17120
131.14238,1.15547
130.90131,1.14231
130.66024,1.12461
130.41917,1.09663
130.17810,1.06195
129.93703,1.02679
129.69596,0.99134
129.45489,0.95056
129.21382,0.90201
128.97275,0.84959
128.73168,0.79930
128.49061,0.75539
128.24954,0.71964
128.00847,0.69080
127.76740,0.66553
127.52632,0.64198
127.28525,0.62085
127.04418,0.60167
126.80311,0.58170
126.56204,0.56005
126.32097,0.53958
126.07990,0.52335
125.83883,0.51083
125.59776,0.49889
125.35669,0.48547
125.11562,0.47166
124.87455,0.45998
124.63348,0.45134
124.39241,0.44432
124.15134,0.43737
123.91027,0.43056
123.66920,0.42524
123.42812,0.42260
123.18705,0.42264
122.94598,0.42387
122.70491,0.42464
122.46384,0.42513
122.22277,0.42661
121.98170,0.42856
121.74063,0.42914
121.49956,0.42856
121.25849,0.42895
121.01742,0.43153
120.77635,0.43641
120.53528,0.44405
120.29421,0.45503
120.05314,0.46977
119.81207,0.48883
119.57100,0.51231
119.32993,0.53909
119.08885,0.56753
118.84778,0.59672
118.60671,0.62675
118.36564,0.65759
118.12457,0.68740
117.88350,0.71378
117.64243,0.73721
117.40136,0.75930
117.16029,0.77800
116.91922,0.79031
116.67815,0.79811
116.43708,0.80434
116.19601,0.80555
115.95494,0.79467
115.71387,0.77040
115.47280,0.73949
115.23173,0.71070
114.99066,0.68932
114.74958,0.67637
114.50851,0.67089
114.26744,0.67104
114.02637,0.67351
113.78530,0.67448
113.54423,0.67280
113.30316,0.67055
113.06209,0.66876
112.82102,0.66512
112.57995,0.65905
112.33888,0.65633
112.09781,0.66456
111.85674,0.68550
111.61567,0.71370
111.37460,0.74023
111.13353,0.75697
110.89246,0.76018
110.65139,0.75233
110.41031,0.73878
110.16924,0.72271
109.92817,0.70572
109.68710,0.69099
109.44603,0.68116
109.20496,0.67359
108.96389,0.66059
108.72282,0.63635
108.48175,0.60318
108.24068,0.56882
107.99961,0.53920
107.75854,0.51662
107.51747,0.50191
107.27640,0.49387
107.03533,0.48735
106.79426,0.47605
106.55319,0.45827
106.31212,0.43743
106.07104,0.41784
105.82997,0.40240
105.58890,0.39249
105.34783,0.38761
105.10676,0.38488
104.86569,0.38010
104.62462,0.37069
104.38355,0.35802
104.14248,0.34632
103.90141,0.33913
103.66034,0.33620
103.41927,0.33327
103.17820,0.32574
102.93713,0.31422
102.69606,0.30428
102.45499,0.30029
102.21392,0.30125
101.97285,0.30210
101.73177,0.29848
101.49070,0.29017
101.24963,0.28048
101.00856,0.27359
100.76749,0.27228
100.52642,0.27547
100.28535,0.27715
100.04428,0.27132
99.80321,0.26015
99.56214,0.25228
99.32107,0.25270
99.08000,0.25749
98.83893,0.25838
98.59786,0.25315
98.35679,0.24805
98.11572,0.24844
97.87465,0.25238
97.63358,0.25369
97.39250,0.25091
97.15143,0.25027
96.91036,0.25675
96.66929,0.26701
96.42822,0.27360
96.18715,0.27561
95.94608,0.28007
95.70501,0.29136
95.46394,0.30487
95.22287,0.31335
94.98180,0.31750
94.74073,0.32393
94.49966,0.33357
94.25859,0.33987
94.01752,0.33949
93.77645,0.33732
93.53538,0.33710
93.29431,0.33608
93.05323,0.33323
92.81216,0.33338
92.57109,0.33766
92.33002,0.34011
92.08895,0.33897
91.84788,0.34073
91.60681,0.34815
91.36574,0.35650
91.12467,0.36592
90.88360,0.38500
90.64253,0.41681
90.40146,0.45428
90.16039,0.49447
89.91932,0.54296
89.67825,0.59914
89.43718,0.65476
89.19611,0.70509
88.95504,0.74529
88.71396,0.76628
88.47289,0.76481
88.23182,0.74214
87.99075,0.70050
87.74968,0.64940
87.50861,0.59750
87.26754,0.54474
87.02647,0.49167
86.78540,0.44472
86.54433,0.40801
86.30326,0.37938
86.06219,0.35473
85.82112,0.33101
85.58005,0.30719
85.33898,0.28496
85.09791,0.26629
84.85684,0.25110
84.61577,0.23879
84.37469,0.22899
84.13362,0.22056
83.89255,0.21294
83.65148,0.20751
83.41041,0.20490
83.16934,0.20283
82.92827,0.19878
82.68720,0.19290
82.44613,0.18743
82.20506,0.18409
81.96399,0.18271
81.72292,0.18188
81.48185,0.18066
81.24078,0.17942
80.99971,0.17917
80.75864,0.18025
80.51757,0.18179
80.27650,0.18245
80.03542,0.18152
79.79435,0.17920
79.55328,0.17675
79.31221,0.17565
79.07114,0.17582
78.83007,0.17553
78.58900,0.17405
78.34793,0.17271
78.10686,0.17213
77.86579,0.17072
77.62472,0.16686
77.38365,0.16139
77.14258,0.15720
76.90151,0.15661
76.66044,0.15927
76.41937,0.16226
76.17830,0.16271
75.93723,0.16040
75.69615,0.15737
75.45508,0.15502
75.21401,0.15284
74.97294,0.15036
74.73187,0.14856
74.49080,0.14853
74.24973,0.14970
74.00866,0.15016
73.76759,0.14845
73.52652,0.14521
73.28545,0.14331
73.04438,0.14528
72.80331,0.15035
72.56224,0.15496
72.32117,0.15602
72.08010,0.15343
71.83903,0.14976
71.59796,0.14790
71.35688,0.14874
71.11581,0.15141
70.87474,0.15577
70.63367,0.16372
70.39260,0.17738
70.15153,0.19698
69.91046,0.22091
69.66939,0.24668
69.42832,0.27033
69.18725,0.28603
68.94618,0.28858
68.70511,0.27665
68.46404,0.25393
68.22297,0.22750
67.98190,0.20383
67.74083,0.18560
67.49976,0.17275
67.25869,0.16448
67.01761,0.15932
66.77654,0.15482
66.53547,0.14928
66.29440,0.14309
66.05333,0.13806
65.81226,0.13588
65.57119,0.13696
65.33012,0.14030
65.08905,0.14505
64.84798,0.15171
64.60691,0.16101
64.36584,0.17168
64.12477,0.18030
63.88370,0.18373
63.64263,0.18190
63.40156,0.17795
63.16049,0.17553
62.91942,0.17626
62.67834,0.17897
62.43727,0.18073
62.19620,0.17955
61.95513,0.17562
61.71406,0.16887
61.47299,0.15771
61.23192,0.14219
60.99085,0.12526
60.74978,0.11042
60.50871,0.10043
60.26764,0.09674
60.02657,0.09886
59.78550,0.10535
59.54443,0.11573
59.30336,0.13002
59.06229,0.14647
58.82122,0.16116
58.58015,0.17022
58.33907,0.17182
58.09800,0.16552
57.85693,0.15172
57.61586,0.13354
57.37479,0.11674
57.13372,0.10666
56.89265,0.10612
56.65158,0.11547
56.41051,0.13262
56.16944,0.15141
55.92837,0.16163
55.68730,0.15559
55.44623,0.13694
55.20516,0.11731
54.96409,0.10559
54.72302,0.10504
54.48195,0.11750
54.24088,0.14437
53.99980,0.17958
53.75873,0.20109
53.51766,0.18691
53.27659,0.15179
53.03552,0.12509
52.79445,0.11925
52.55338,0.13500
52.31231,0.16923
52.07124,0.20412
51.83017,0.20145
51.58910,0.15782
51.34803,0.11362
51.10696,0.09584
50.86589,0.11264
50.62482,0.15553
50.38375,0.18149
50.14268,0.15206
49.90161,0.10747
49.66053,0.09283
49.41946,0.12005
49.17839,0.16308
48.93732,0.15985
48.69625,0.11699
48.45518,0.09963
48.21411,0.12673
47.97304,0.16468
47.73197,0.15502
47.49090,0.11503
47.24983,0.10479
47.00876,0.12654
46.76769,0.13286
46.52662,0.11304
46.28555,0.10833
46.04448,0.12485
45.80341,0.12990
45.56234,0.11912
45.32126,0.12237
45.08019,0.13556
44.83912,0.13053
44.59805,0.11804
44.35698,0.12266
44.11591,0.13329
43.87484,0.13412
43.63377,0.13678
43.39270,0.14451
43.15163,0.14344
42.91056,0.13309
42.66949,0.12595
42.42842,0.12779
42.18735,0.13599
41.94628,0.14118
41.70521,0.13530
41.46414,0.12506
41.22307,0.12044
40.98199,0.11856
40.74092,0.11477
40.49985,0.11478
40.25878,0.12327
40.01771,0.13592
39.77664,0.14859
39.53557,0.16197
39.29450,0.17795
39.05343,0.19456
38.81236,0.20444
38.57129,0.20486
38.33022,0.20332
38.08915,0.20709
37.84808,0.21740
37.60701,0.22764
37.36594,0.22800
37.12487,0.21931
36.88380,0.21061
36.64272,0.20350
36.40165,0.19125
36.16058,0.17209
35.91951,0.15420
35.67844,0.14621
35.43737,0.14765
35.19630,0.15173
34.95523,0.15197
34.71416,0.14732
34.47309,0.14229
34.23202,0.13912
33.99095,0.13622
33.74988,0.13578
33.50881,0.14576
33.26774,0.16855
33.02667,0.19177
32.78560,0.20033
32.54453,0.19019
32.30345,0.16679
32.06238,0.13964
31.82131,0.11859
31.58024,0.10797
31.33917,0.10432
31.09810,0.10213
30.85703,0.09311
30.61596,0.06577
30.37489,0.02421
30.13382,-0.00982
29.89275,-0.02274
29.65168,-0.02135
29.41061,-0.02185
29.16954,-0.03403
28.92847,-0.05584
28.68740,-0.08100
28.44633,-0.10273
28.20526,-0.11246
27.96418,-0.10944
27.72311,-0.10226
27.48204,-0.09458
27.24097,-0.08812
26.99990,-0.09269
26.75883,-0.11375
26.51776,-0.13514
26.27669,-0.13546
26.03562,-0.11875
25.79455,-0.11255
25.55348,-0.13315
25.31241,-0.16045
25.07134,-0.16919
24.83027,-0.16763
24.58920,-0.17328
24.34813,-0.18683
24.10706,-0.20820
23.86599,-0.23981
23.62491,-0.26789
23.38384,-0.27102
23.14277,-0.24666
22.90170,-0.21757
22.66063,-0.20725
22.41956,-0.21607
22.17849,-0.23115
21.93742,-0.24422
21.69635,-0.25219
21.45528,-0.25984
21.21421,-0.27971
20.97314,-0.31437
20.73207,-0.35908
20.49100,-0.38471
20.24993,-0.35715
20.00886,-0.33314
19.76779,-0.31431
19.52672,-0.30672
19.28564,-0.33672
19.04457,-0.40026
18.80350,-0.44894
18.56243,-0.46387
18.32136,-0.46127
18.08029,-0.44188
17.83922,-0.41340
17.59815,-0.39831
17.35708,-0.40711
17.11601,-0.43207
16.87494,-0.44645
16.63387,-0.42601
16.39280,-0.38321
16.15173,-0.34179
15.91066,-0.31814
15.66959,-0.30811
15.42852,-0.30383
15.18745,-0.30842
14.94637,-0.31917
14.70530,-0.32458
14.46423,-0.31186
14.22316,-0.28377
13.98209,-0.25483
13.74102,-0.23823
13.49995,-0.24218
13.25888,-0.26640
13.01781,-0.29893
12.77674,-0.31828
12.53567,-0.30803
12.29460,-0.28086
12.05353,-0.27026
11.81246,-0.29535
11.57139,-0.34362
11.33032,-0.39168
11.08925,-0.43157
10.84818,-0.45748
10.60710,-0.45358
10.36603,-0.42191
10.12496,-0.39053
9.88389,-0.37909
9.64282,-0.38386
9.40175,-0.39683
9.16068,-0.40578
8.91961,-0.40614
8.67854,-0.40418
8.43747,-0.40204
8.19640,-0.39413
7.95533,-0.38183
7.71426,-0.37058
7.47319,-0.35341
7.23212,-0.32969
6.99105,-0.31292
6.74998,-0.31748
6.50891,-0.34222
6.26783,-0.36674
6.02676,-0.37328
5.78569,-0.36064
5.54462,-0.34061
5.30355,-0.32585
5.06248,-0.31311
4.82141,-0.29429
4.58034,-0.28034
4.33927,-0.28140
4.09820,-0.28474
3.85713,-0.28908
3.61606,-0.31608
3.37499,-0.36999
3.13392,-0.42382
2.89285,-0.44481
2.65178,-0.42116
2.41071,-0.38195
2.16964,-0.37065
1.92856,-0.38699
1.68749,-0.40000
1.44642,-0.40027
1.20535,-0.39744
0.96428,-0.40231
0.72321,-0.44166
0.48214,-0.53883
0.24107,-0.53781
-0.00000,-0.14992
