399.69498,1.94315
399.45391,1.85463
399.21284,1.78603
398.97177,1.76137
398.73070,1.78059
398.48963,1.81631
398.24856,1.83097
398.00749,1.79777
397.76642,1.75179
397.52535,1.73496
397.28428,1.74508
397.04321,1.77617
396.80214,1.82430
396.56107,1.85571
396.32000,1.83803
396.07892,1.84080
395.83785,1.93878
395.59678,2.07110
395.35571,2.09753
395.11464,2.10189
394.87357,2.11932
394.63250,2.11094
394.39143,2.07468
394.15036,2.03461
393.90929,2.01718
393.66822,2.03363
393.42715,2.05529
393.18608,2.05738
392.94501,2.05380
392.70394,2.09165
392.46287,2.17385
392.22180,2.11488
391.98073,2.03888
391.73965,2.04031
391.49858,2.09447
391.25751,2.17729
391.01644,2.26336
390.77537,2.38166
390.53430,2.55708
390.29323,2.71859
390.05216,2.62158
389.81109,2.23956
389.57002,1.97769
389.32895,1.89194
389.08788,2.02635
388.84681,2.38222
388.60574,2.39131
388.36467,2.36543
388.12360,2.44305
387.88253,2.45838
387.64146,2.31429
387.40038,2.08842
387.15931,1.95279
386.91824,2.00946
386.67717,2.14857
386.43610,2.06476
386.19503,2.02145
385.95396,2.10276
385.71289,2.20506
385.47182,2.30660
385.23075,2.15082
384.98968,2.13776
384.74861,2.16354
384.50754,2.08891
384.26647,1.94089
384.02540,1.94098
383.78433,2.05461
383.54326,2.05806
383.30219,1.88385
383.06111,1.89097
382.82004,2.18411
382.57897,2.48653
382.33790,1.99028
382.09683,1.64737
381.85576,1.52140
381.61469,1.56438
381.37362,1.84733
381.13255,2.27089
380.89148,2.08141
380.65041,1.92736
380.40934,1.95025
380.16827,2.03834
379.92720,2.16799
379.68613,2.01882
379.44506,1.79117
379.20399,1.73748
378.96292,1.79887
378.72184,1.82764
378.48077,1.86297
378.23970,1.85904
377.99863,1.77823
377.75756,1.83236
377.51649,2.04643
377.27542,2.42336
377.03435,2.74748
376.79328,2.34075
376.55221,1.93744
376.31114,1.79531
376.07007,1.80887
375.82900,1.89821
375.58793,1.97613
375.34686,2.05455
375.10579,2.19090
374.86472,2.32898
374.62365,2.25674
374.38257,2.11303
374.14150,2.06860
373.90043,2.12160
373.65936,2.09688
373.41829,1.98226
373.17722,1.87399
372.93615,1.81420
372.69508,1.81694
372.45401,1.87116
372.21294,1.93505
371.97187,1.94287
371.73080,1.89251
371.48973,1.83869
371.24866,1.79922
371.00759,1.75775
370.76652,1.69746
370.52545,1.62608
370.28437,1.57802
370.04330,1.56914
369.80223,1.59651
369.56116,1.63844
369.32009,1.65308
369.07902,1.61028
368.83795,1.54026
368.59688,1.49434
368.35581,1.48726
368.11474,1.49663
367.87367,1.49670
367.63260,1.48657
367.39153,1.47628
367.15046,1.47004
366.90939,1.46858
366.66832,1.47839
366.42725,1.49855
366.18618,1.50616
365.94510,1.48616
365.70403,1.45975
365.46296,1.45407
365.22189,1.47090
364.98082,1.48813
364.73975,1.48698
364.49868,1.47323
364.25761,1.46019
364.01654,1.45347
363.77547,1.45002
363.53440,1.44477
363.29333,1.43790
363.05226,1.43237
362.81119,1.43316
362.57012,1.44408
362.32905,1.44913
362.08798,1.42612
361.84691,1.38543
361.60583,1.34862
361.36476,1.32768
361.12369,1.32762
360.88262,1.34720
360.64155,1.37748
360.40048,1.39759
360.15941,1.38927
359.91834,1.36282
359.67727,1.34157
359.43620,1.33247
359.19513,1.32979
358.95406,1.33318
358.71299,1.35053
358.47192,1.37958
358.23085,1.39783
357.98978,1.39080
357.74871,1.37317
357.50764,1.36528
357.26656,1.37161
357.02549,1.37712
356.78442,1.36885
356.54335,1.35035
356.30228,1.33308
356.06121,1.32666
355.82014,1.33021
355.57907,1.34449
355.33800,1.37309
355.09693,1.40663
354.85586,1.42485
354.61479,1.41695
354.37372,1.39619
354.13265,1.38635
353.89158,1.39442
353.65051,1.39938
353.40944,1.38120
353.16837,1.35384
352.92729,1.34413
352.68622,1.35775
352.44515,1.37791
352.20408,1.38980
351.96301,1.39364
351.72194,1.39658
351.48087,1.40338
351.23980,1.41398
350.99873,1.42644
350.75766,1.43934
350.51659,1.44681
350.27552,1.43651
350.03445,1.41089
349.79338,1.39144
349.55231,1.39027
349.31124,1.40013
349.07017,1.40511
348.82910,1.39526
348.58802,1.37464
348.34695,1.35898
348.10588,1.36387
347.86481,1.39211
347.62374,1.42750
347.38267,1.44925
347.14160,1.45949
346.90053,1.47462
346.65946,1.49168
346.41839,1.49754
346.17732,1.49616
345.93625,1.48878
345.69518,1.46974
345.45411,1.44914
345.21304,1.44420
344.97197,1.46159
344.73090,1.49786
344.48983,1.53907
344.24875,1.55570
344.00768,1.53384
343.76661,1.50493
343.52554,1.49439
343.28447,1.49723
343.04340,1.49692
342.80233,1.48463
342.56126,1.47391
342.32019,1.48654
342.07912,1.52179
341.83805,1.56128
341.59698,1.60018
341.35591,1.62971
341.11484,1.62866
340.87377,1.60266
340.63270,1.58981
340.39163,1.61848
340.15056,1.67248
339.90948,1.71054
339.66841,1.72149
339.42734,1.72755
339.18627,1.75094
338.94520,1.80729
338.70413,1.89509
338.46306,1.94708
338.22199,1.90336
337.98092,1.83196
337.73985,1.78928
337.49878,1.78299
337.25771,1.80427
337.01664,1.85004
336.77557,1.96122
336.53450,2.20032
336.29343,2.23941
336.05236,2.06814
335.81129,2.06983
335.57021,2.16481
335.32914,2.08029
335.08807,1.90237
334.84700,1.81654
334.60593,1.83683
334.36486,1.90062
334.12379,1.91736
333.88272,1.86763
333.64165,1.81775
333.40058,1.78043
333.15951,1.73870
332.91844,1.68715
332.67737,1.63574
332.43630,1.60459
332.19523,1.59630
331.95416,1.59850
331.71309,1.61228
331.47202,1.64242
331.23094,1.66630
330.98987,1.65058
330.74880,1.60501
330.50773,1.57802
330.26666,1.58762
330.02559,1.61558
329.78452,1.63499
329.54345,1.62996
329.30238,1.60753
329.06131,1.59327
328.82024,1.60855
328.57917,1.65227
328.33810,1.70364
328.09703,1.73093
327.85596,1.71454
327.61489,1.68776
327.37382,1.70821
327.13275,1.76734
326.89167,1.80431
326.65060,1.81458
326.40953,1.82399
326.16846,1.82885
325.92739,1.79397
325.68632,1.72569
325.44525,1.68414
325.20418,1.68699
324.96311,1.70179
324.72204,1.71139
324.48097,1.73535
324.23990,1.76438
323.99883,1.75813
323.75776,1.71629
323.51669,1.67304
323.27562,1.65027
323.03455,1.64052
322.79348,1.64324
322.55240,1.70578
322.31133,1.86359
322.07026,1.97997
321.82919,1.95398
321.58812,1.97435
321.34705,1.97710
321.10598,2.01458
320.86491,2.14647
320.62384,2.17211
320.38277,2.07671
320.14170,1.96988
319.90063,1.91736
319.65956,1.91963
319.41849,1.92598
319.17742,1.91052
318.93635,1.87052
318.69528,1.82076
318.45421,1.78296
318.21313,1.75941
317.97206,1.75205
317.73099,1.76398
317.48992,1.80795
317.24885,1.90510
317.00778,1.95224
316.76671,1.84481
316.52564,1.74750
316.28457,1.73776
316.04350,1.75745
315.80243,1.74201
315.56136,1.73795
315.32029,1.76421
315.07922,1.79938
314.83815,1.84462
314.59708,1.91981
314.35601,1.99761
314.11494,2.02524
313.87386,1.93146
313.63279,1.85845
313.39172,1.83432
313.15065,1.85115
312.90958,1.91538
312.66851,2.04427
312.42744,2.13452
312.18637,2.03429
311.94530,1.99009
311.70423,1.99045
311.46316,1.98721
311.22209,1.97409
310.98102,1.97152
310.73995,2.04341
310.49888,2.18827
310.25781,2.21328
310.01674,2.08971
309.77567,2.02110
309.53459,2.15024
309.29352,2.39465
309.05245,2.22567
308.81138,2.06080
308.57031,1.96197
308.32924,1.89002
308.08817,1.89424
307.84710,1.97619
307.60603,2.03139
307.36496,1.96964
307.12389,1.91998
306.88282,1.93563
306.64175,1.94389
306.40068,1.85582
306.15961,1.74874
305.91854,1.66893
305.67747,1.61647
305.43640,1.59984
305.19532,1.63613
304.95425,1.72816
304.71318,1.83553
304.47211,1.87244
304.23104,1.80517
303.98997,1.70188
303.74890,1.62112
303.50783,1.57062
303.26676,1.53352
303.02569,1.49551
302.78462,1.45957
302.54355,1.44082
302.30248,1.44133
302.06141,1.43932
301.82034,1.41456
301.57927,1.37468
301.33820,1.33776
301.09713,1.30815
300.85605,1.28557
300.61498,1.27875
300.37391,1.29370
300.13284,1.31803
299.89177,1.32884
299.65070,1.31705
299.40963,1.29629
299.16856,1.28081
298.92749,1.26827
298.68642,1.25129
298.44535,1.23688
298.20428,1.23485
297.96321,1.23867
297.72214,1.23643
297.48107,1.22891
297.24000,1.22256
296.99893,1.21511
296.75786,1.20099
296.51678,1.18187
296.27571,1.16609
296.03464,1.16118
295.79357,1.16530
295.55250,1.16626
295.31143,1.15626
295.07036,1.14355
294.82929,1.13814
294.58822,1.13671
294.34715,1.13293
294.10608,1.13045
293.86501,1.13341
293.62394,1.13622
293.38287,1.13197
293.14180,1.12266
292.90073,1.11375
292.65966,1.10613
292.41859,1.10004
292.17751,1.09840
291.93644,1.10181
291.69537,1.10477
291.45430,1.10161
291.21323,1.09465
290.97216,1.09116
290.73109,1.09177
290.49002,1.08911
290.24895,1.07933
290.00788,1.06782
289.76681,1.06333
289.52574,1.06886
289.28467,1.07849
289.04360,1.08361
288.80253,1.08156
288.56146,1.07565
288.32039,1.06889
288.07932,1.06162
287.83824,1.05445
287.59717,1.04878
287.35610,1.04483
287.11503,1.04281
286.87396,1.04434
286.63289,1.04909
286.39182,1.05438
286.15075,1.06032
285.90968,1.06801
285.66861,1.07262
285.42754,1.06747
285.18647,1.05442
284.94540,1.04122
284.70433,1.03252
284.46326,1.02900
284.22219,1.02950
283.98112,1.03208
283.74005,1.03485
283.49897,1.03710
283.25790,1.03907
283.01683,1.04010
282.77576,1.03902
282.53469,1.03560
282.29362,1.03041
282.05255,1.02507
281.81148,1.02275
281.57041,1.02566
281.32934,1.03132
281.08827,1.03363
280.84720,1.02938
280.60613,1.02261
280.36506,1.02020
280.12399,1.02345
279.88292,1.02683
279.64185,1.02650
279.40078,1.02468
279.15970,1.02305
278.91863,1.01910
278.67756,1.01363
278.43649,1.01311
278.19542,1.01979
277.95435,1.02836
277.71328,1.03559
277.47221,1.04370
277.23114,1.05027
276.99007,1.04653
276.74900,1.03094
276.50793,1.01377
276.26686,1.00589
276.02579,1.00985
275.78472,1.01903
275.54365,1.02281
275.30258,1.01724
275.06151,1.00881
274.82043,1.00559
274.57936,1.00908
274.33829,1.01478
274.09722,1.01670
273.85615,1.01259
273.61508,1.00754
273.37401,1.00864
273.13294,1.01607
272.89187,1.02441
272.65080,1.03003
272.40973,1.03264
272.16866,1.03414
271.92759,1.03835
271.68652,1.04650
271.44545,1.05390
271.20438,1.05653
270.96331,1.05662
270.72224,1.05793
270.48116,1.06066
270.24009,1.06369
269.99902,1.06765
269.75795,1.07230
269.51688,1.07484
269.27581,1.07350
269.03474,1.06912
268.79367,1.06480
268.55260,1.06415
268.31153,1.06750
268.07046,1.07238
267.82939,1.07809
267.58832,1.08651
267.34725,1.09747
267.10618,1.10568
266.86511,1.10586
266.62404,1.10080
266.38297,1.09981
266.14189,1.10826
265.90082,1.12108
265.65975,1.12944
265.41868,1.13469
265.17761,1.14772
264.93654,1.17310
264.69547,1.20143
264.45440,1.21870
264.21333,1.22099
263.97226,1.21468
263.73119,1.20654
263.49012,1.20073
263.24905,1.19986
263.00798,1.20483
262.76691,1.21515
262.52584,1.22955
262.28477,1.24616
262.04370,1.26206
261.80262,1.27441
261.56155,1.28333
261.32048,1.29097
261.07941,1.29782
260.83834,1.30312
260.59727,1.30935
260.35620,1.32200
260.11513,1.34222
259.87406,1.36591
259.63299,1.39307
259.39192,1.42541
259.15085,1.45480
258.90978,1.46619
258.66871,1.45892
258.42764,1.45139
258.18657,1.46053
257.94550,1.49488
257.70443,1.55627
257.46335,1.62477
257.22228,1.66065
256.98121,1.65844
256.74014,1.64648
256.49907,1.65224
256.25800,1.69167
256.01693,1.76389
255.77586,1.83705
255.53479,1.84861
255.29372,1.82944
255.05265,1.85850
254.81158,1.93952
254.57051,2.00555
254.32944,2.02329
254.08837,2.04725
253.84730,2.06931
253.60623,2.07658
253.36516,2.08642
253.12408,2.12549
252.88301,2.21632
252.64194,2.33178
252.40087,2.38595
252.15980,2.39290
251.91873,2.28241
251.67766,2.28059
251.43659,2.51340
251.19552,2.63215
250.95445,2.35101
250.71338,2.32442
250.47231,2.58058
250.23124,2.65521
249.99017,2.34955
249.74910,2.19257
249.50803,2.12987
249.26696,2.12534
249.02589,2.26944
248.78481,2.56820
248.54374,2.46732
248.30267,2.33551
248.06160,2.26147
247.82053,2.26039
247.57946,2.28800
247.33839,2.30088
247.09732,2.26472
246.85625,2.19734
246.61518,2.14856
246.37411,2.14106
246.13304,2.16312
245.89197,2.13804
245.65090,2.05557
245.40983,1.97200
245.16876,1.89625
244.92769,1.83162
244.68661,1.79603
244.44554,1.79450
244.20447,1.80233
243.96340,1.78048
243.72233,1.72254
243.48126,1.65766
243.24019,1.60228
242.99912,1.55193
242.75805,1.50339
242.51698,1.46061
242.27591,1.42492
242.03484,1.39173
241.79377,1.35251
241.55270,1.30319
241.31163,1.25008
241.07056,1.20355
240.82949,1.16671
240.58842,1.13340
240.34734,1.09768
240.10627,1.05913
239.86520,1.01896
239.62413,0.97967
239.38306,0.94687
239.14199,0.92413
238.90092,0.90791
238.65985,0.89152
238.41878,0.87257
238.17771,0.85408
237.93664,0.83884
237.69557,0.82608
237.45450,0.81447
237.21343,0.80424
236.97236,0.79460
236.73129,0.78272
236.49022,0.76792
236.24915,0.75383
236.00807,0.74452
235.76700,0.74077
235.52593,0.74031
235.28486,0.73981
235.04379,0.73711
234.80272,0.73252
234.56165,0.72821
234.32058,0.72558
234.07951,0.72288
233.83844,0.71750
233.59737,0.71025
233.35630,0.70470
233.11523,0.70228
232.87416,0.70048
232.63309,0.69619
232.39202,0.68882
232.15095,0.68046
231.90988,0.67497
231.66880,0.67554
231.42773,0.68111
231.18666,0.68681
230.94559,0.68880
230.70452,0.68767
230.46345,0.68644
230.22238,0.68650
229.98131,0.68668
229.74024,0.68608
229.49917,0.68620
229.25810,0.68913
229.01703,0.69398
228.77596,0.69666
228.53489,0.69428
228.29382,0.68871
228.05275,0.68461
227.81168,0.68458
227.57061,0.68698
227.32953,0.68804
227.08846,0.68541
226.84739,0.67976
226.60632,0.67384
226.36525,0.67022
226.12418,0.66971
225.88311,0.67136
225.64204,0.67349
225.40097,0.67485
225.15990,0.67563
224.91883,0.67766
224.67776,0.68246
224.43669,0.68875
224.19562,0.69330
223.95455,0.69444
223.71348,0.69385
223.47241,0.69469
223.23134,0.69879
222.99026,0.70561
222.74919,0.71296
222.50812,0.71849
222.26705,0.72181
222.02598,0.72600
221.78491,0.73521
221.54384,0.74943
221.30277,0.76355
221.06170,0.77320
220.82063,0.77913
220.57956,0.78442
220.33849,0.78981
220.09742,0.79390
219.85635,0.79693
219.61528,0.80159
219.37421,0.81013
219.13314,0.82214
218.89207,0.83563
218.65099,0.84914
218.40992,0.86224
218.16885,0.87533
217.92778,0.88869
217.68671,0.90029
217.44564,0.90702
217.20457,0.90943
216.96350,0.91201
216.72243,0.91846
216.48136,0.92940
216.24029,0.94335
215.99922,0.95779
215.75815,0.97171
215.51708,0.98792
215.27601,1.00788
215.03494,1.02574
214.79387,1.03459
214.55280,1.03668
214.31172,1.04017
214.07065,1.04852
213.82958,1.05831
213.58851,1.06523
213.34744,1.06958
213.10637,1.07471
212.86530,1.08145
212.62423,1.08722
212.38316,1.09119
212.14209,1.09660
211.90102,1.10501
211.65995,1.11204
211.41888,1.11388
211.17781,1.11517
210.93674,1.12216
210.69567,1.13183
210.45460,1.13746
210.21353,1.13999
209.97245,1.14414
209.73138,1.14908
209.49031,1.15052
209.24924,1.14862
209.00817,1.14762
208.76710,1.14891
208.52603,1.14819
208.28496,1.14082
208.04389,1.12806
207.80282,1.11412
207.56175,1.10158
207.32068,1.09340
207.07961,1.09184
206.83854,1.09263
206.59747,1.08714
206.35640,1.07288
206.11533,1.05617
205.87426,1.04354
205.63318,1.03413
205.39211,1.02339
205.15104,1.01116
204.90997,1.00027
204.66890,0.98979
204.42783,0.97712
204.18676,0.96299
203.94569,0.95024
203.70462,0.93973
203.46355,0.92926
203.22248,0.91704
202.98141,0.90344
202.74034,0.88996
202.49927,0.87737
202.25820,0.86510
202.01713,0.85193
201.77606,0.83742
201.53499,0.82327
201.29391,0.81223
201.05284,0.80508
200.81177,0.79888
200.57070,0.78895
200.32963,0.77406
200.08856,0.75822
199.84749,0.74526
199.60642,0.73328
199.36535,0.71801
199.12428,0.70050
198.88321,0.68564
198.64214,0.67455
198.40107,0.66450
198.16000,0.65499
197.91893,0.64819
197.67786,0.64437
197.43679,0.64042
197.19572,0.63331
196.95464,0.62316
196.71357,0.61260
196.47250,0.60350
196.23143,0.59509
195.99036,0.58609
195.74929,0.57801
195.50822,0.57372
195.26715,0.57281
195.02608,0.57127
194.78501,0.56660
194.54394,0.56078
194.30287,0.55629
194.06180,0.55192
193.82073,0.54483
193.57966,0.53493
193.33859,0.52495
193.09752,0.51725
192.85645,0.51269
192.61537,0.51093
192.37430,0.51041
192.13323,0.50918
191.89216,0.50659
191.65109,0.50333
191.41002,0.50000
191.16895,0.49686
190.92788,0.49463
190.68681,0.49343
190.44574,0.49169
190.20467,0.48817
189.96360,0.48437
189.72253,0.48252
189.48146,0.48227
189.24039,0.48148
188.99932,0.47947
188.75825,0.47736
188.51718,0.47595
188.27610,0.47525
188.03503,0.47535
187.79396,0.47620
187.55289,0.47682
187.31182,0.47617
187.07075,0.47437
186.82968,0.47237
186.58861,0.47071
186.34754,0.46958
186.10647,0.46912
185.86540,0.46933
185.62433,0.46966
185.38326,0.46969
185.14219,0.46973
184.90112,0.47029
184.66005,0.47126
184.41898,0.47256
184.17791,0.47486
183.93683,0.47864
183.69576,0.48309
183.45469,0.48668
183.21362,0.48817
182.97255,0.48729
182.73148,0.48532
182.49041,0.48443
182.24934,0.48526
182.00827,0.48618
181.76720,0.48604
181.52613,0.48616
181.28506,0.48821
181.04399,0.49157
180.80292,0.49441
180.56185,0.49605
180.32078,0.49702
180.07971,0.49772
179.83864,0.49862
179.59756,0.50146
179.35649,0.50825
179.11542,0.51846
178.87435,0.52894
178.63328,0.53741
178.39221,0.54461
178.15114,0.55206
177.91007,0.55974
177.66900,0.56698
177.42793,0.57409
177.18686,0.58248
176.94579,0.59381
176.70472,0.60910
176.46365,0.62793
176.22258,0.64832
175.98151,0.66774
175.74044,0.68491
175.49937,0.70102
175.25829,0.71887
175.01722,0.74053
174.77615,0.76529
174.53508,0.79007
174.29401,0.81233
174.05294,0.83154
173.81187,0.84751
173.57080,0.86048
173.32973,0.87194
173.08866,0.88261
172.84759,0.89080
172.60652,0.89512
172.36545,0.89802
172.12438,0.90285
171.88331,0.90881
171.64224,0.91213
171.40117,0.91193
171.16010,0.91176
170.91902,0.91394
170.67795,0.91441
170.43688,0.90724
170.19581,0.89513
169.95474,0.88817
169.71367,0.88949
169.47260,0.89000
169.23153,0.87997
168.99046,0.86071
168.74939,0.84223
168.50832,0.83412
168.26725,0.83891
168.02618,0.84920
167.78511,0.85275
167.54404,0.84617
167.30297,0.83917
167.06190,0.84082
166.82083,0.84898
166.57975,0.85620
166.33868,0.86088
166.09761,0.86654
165.85654,0.87331
165.61547,0.87734
165.37440,0.87698
165.13333,0.87504
164.89226,0.87656
164.65119,0.88495
164.41012,0.89928
164.16905,0.91661
163.92798,0.93542
163.68691,0.95404
163.44584,0.96764
163.20477,0.97292
162.96370,0.97437
162.72263,0.97934
162.48156,0.98971
162.24048,1.00054
161.99941,1.00588
161.75834,1.00547
161.51727,1.00416
161.27620,1.00583
161.03513,1.00897
160.79406,1.00845
160.55299,1.00371
160.31192,1.00072
160.07085,1.00197
159.82978,1.00063
159.58871,0.98991
159.34764,0.97400
159.10657,0.96279
158.86550,0.96091
158.62443,0.96556
158.38336,0.97012
158.14229,0.96882
157.90121,0.96081
157.66014,0.95017
157.41907,0.94109
157.17800,0.93537
156.93693,0.93366
156.69586,0.93433
156.45479,0.93225
156.21372,0.92341
155.97265,0.91035
155.73158,0.89967
155.49051,0.89398
155.24944,0.88853
155.00837,0.87636
154.76730,0.85634
154.52623,0.83420
154.28516,0.81712
154.04409,0.80880
153.80302,0.80706
153.56194,0.80524
153.32087,0.79718
153.07980,0.78136
152.83873,0.76050
152.59766,0.73882
152.35659,0.71928
152.11552,0.70154
151.87445,0.68333
151.63338,0.66508
151.39231,0.65054
151.15124,0.64138
150.91017,0.63392
150.66910,0.62259
150.42803,0.60500
150.18696,0.58345
149.94589,0.56294
149.70482,0.54777
149.46375,0.53825
149.22267,0.53089
148.98160,0.52256
148.74053,0.51311
148.49946,0.50355
148.25839,0.49468
148.01732,0.48783
147.77625,0.48385
147.53518,0.48148
147.29411,0.47913
147.05304,0.47739
146.81197,0.47798
146.57090,0.48070
146.32983,0.48328
146.08876,0.48445
145.84769,0.48581
145.60662,0.48956
145.36555,0.49565
145.12448,0.50249
144.88340,0.50900
144.64233,0.51480
144.40126,0.51985
144.16019,0.52451
143.91912,0.52888
143.67805,0.53200
143.43698,0.53248
143.19591,0.52988
142.95484,0.52426
142.71377,0.51558
142.47270,0.50450
142.23163,0.49282
141.99056,0.48194
141.74949,0.47169
141.50842,0.46225
141.26735,0.45547
141.02628,0.45252
140.78521,0.45145
140.54413,0.44935
140.30306,0.44599
140.06199,0.44358
139.82092,0.44409
139.57985,0.44793
139.33878,0.45394
139.09771,0.45984
138.85664,0.46446
138.61557,0.46987
138.37450,0.47922
138.13343,0.49220
137.89236,0.50524
137.65129,0.51653
137.41022,0.52839
137.16915,0.54410
136.92808,0.56387
136.68701,0.58491
136.44594,0.60501
136.20486,0.62521
135.96379,0.64779
135.72272,0.67223
135.48165,0.69569
135.24058,0.71743
134.99951,0.74020
134.75844,0.76647
134.51737,0.79553
134.27630,0.82451
134.03523,0.85068
133.79416,0.87286
133.55309,0.89210
133.31202,0.91132
133.07095,0.93275
132.82988,0.95558
132.58881,0.97643
132.34774,0.98995
132.10667,0.99079
131.86559,0.97999
131.62452,0.96611
131.38345,0.95491
131.14238,0.94423
130.90131,0.93155
130.66024,0.91787
130.41917,0.90122
130.17810,0.87623
129.93703,0.84296
129.69596,0.80849
129.45489,0.77880
129.21382,0.75381
128.97275,0.72927
128.73168,0.70126
128.49061,0.66974
128.24954,0.63814
128.00847,0.60936
127.76740,0.58302
127.52632,0.55708
127.28525,0.53139
127.04418,0.50794
126.80311,0.48799
126.56204,0.47070
126.32097,0.45512
126.07990,0.44119
125.83883,0.42851
125.59776,0.41655
125.35669,0.40577
125.11562,0.39676
124.87455,0.38891
124.63348,0.38085
124.39241,0.37161
124.15134,0.36175
123.91027,0.35339
123.66920,0.34831
123.42812,0.34593
123.18705,0.34459
122.94598,0.34400
122.70491,0.34476
122.46384,0.34626
122.22277,0.34671
121.98170,0.34515
121.74063,0.34322
121.49956,0.34410
121.25849,0.34911
121.01742,0.35668
120.77635,0.36526
120.53528,0.37520
120.29421,0.38681
120.05314,0.39925
119.81207,0.41223
119.57100,0.42711
119.32993,0.44591
119.08885,0.46973
118.84778,0.49754
118.60671,0.52604
118.36564,0.55205
118.12457,0.57462
117.88350,0.59388
117.64243,0.61009
117.40136,0.62513
117.16029,0.64054
116.91922,0.65259
116.67815,0.65459
116.43708,0.64520
116.19601,0.63073
115.95494,0.61920
115.71387,0.61381
115.47280,0.61141
115.23173,0.60640
114.99066,0.59681
114.74958,0.58530
114.50851,0.57416
114.26744,0.56221
114.02637,0.54859
113.78530,0.53692
113.54423,0.53247
113.30316,0.53641
113.06209,0.54458
112.82102,0.55240
112.57995,0.55862
112.33888,0.56320
112.09781,0.56496
111.85674,0.56408
111.61567,0.56365
111.37460,0.56575
111.13353,0.56852
110.89246,0.56967
110.65139,0.57095
110.41031,0.57541
110.16924,0.58102
109.92817,0.58130
109.68710,0.57335
109.44603,0.56104
109.20496,0.54786
108.96389,0.53265
108.72282,0.51374
108.48175,0.49163
108.24068,0.46746
107.99961,0.44213
107.75854,0.41723
107.51747,0.39523
107.27640,0.37780
107.03533,0.36448
106.79426,0.35357
106.55319,0.34372
106.31212,0.33394
106.07104,0.32329
105.82997,0.31225
105.58890,0.30300
105.34783,0.29643
105.10676,0.29016
104.86569,0.28122
104.62462,0.26981
104.38355,0.25892
104.14248,0.25038
103.90141,0.24317
103.66034,0.23584
103.41927,0.22875
103.17820,0.22276
102.93713,0.21787
102.69606,0.21405
102.45499,0.21176
102.21392,0.21044
101.97285,0.20830
101.73177,0.20413
101.49070,0.19827
101.24963,0.19199
101.00856,0.18705
100.76749,0.18485
100.52642,0.18480
100.28535,0.18470
100.04428,0.18345
99.80321,0.18181
99.56214,0.18066
99.32107,0.18006
99.08000,0.17988
98.83893,0.17983
98.59786,0.17943
98.35679,0.17786
98.11572,0.17428
97.87465,0.16949
97.63358,0.16723
97.39250,0.17085
97.15143,0.17917
96.91036,0.18826
96.66929,0.19621
96.42822,0.20334
96.18715,0.20955
95.94608,0.21446
95.70501,0.21866
95.46394,0.22301
95.22287,0.22744
94.98180,0.23170
94.74073,0.23652
94.49966,0.24273
94.25859,0.24924
94.01752,0.25345
93.77645,0.25404
93.53538,0.25210
93.29431,0.24965
93.05323,0.24856
92.81216,0.25057
92.57109,0.25611
92.33002,0.26314
92.08895,0.26846
91.84788,0.27097
91.60681,0.27331
91.36574,0.27943
91.12467,0.29102
90.88360,0.30746
90.64253,0.32854
90.40146,0.35539
90.16039,0.38879
89.91932,0.42771
89.67825,0.46894
89.43718,0.50782
89.19611,0.54107
88.95504,0.56800
88.71396,0.58654
88.47289,0.59049
88.23182,0.57459
87.99075,0.54106
87.74968,0.49804
87.50861,0.45349
87.26754,0.41232
87.02647,0.37673
86.78540,0.34678
86.54433,0.32084
86.30326,0.29708
86.06219,0.27488
85.82112,0.25458
85.58005,0.23674
85.33898,0.22199
85.09791,0.21028
84.85684,0.19982
84.61577,0.18802
84.37469,0.17424
84.13362,0.16043
83.89255,0.14883
83.65148,0.13983
83.41041,0.13253
83.16934,0.12674
82.92827,0.12334
82.68720,0.12242
82.44613,0.12225
82.20506,0.12064
81.96399,0.11674
81.72292,0.11158
81.48185,0.10732
81.24078,0.10563
80.99971,0.10634
80.75864,0.10776
80.51757,0.10842
80.27650,0.10805
80.03542,0.10709
79.79435,0.10595
79.55328,0.10458
79.31221,0.10285
79.07114,0.10133
78.83007,0.10086
78.58900,0.10127
78.34793,0.10133
78.10686,0.09976
77.86579,0.09568
77.62472,0.08933
77.38365,0.08269
77.14258,0.07840
76.90151,0.07758
76.66044,0.07950
76.41937,0.08256
76.17830,0.08505
75.93723,0.08566
75.69615,0.08415
75.45508,0.08144
75.21401,0.07853
74.97294,0.07559
74.73187,0.07262
74.49080,0.07063
74.24973,0.07101
74.00866,0.07386
73.76759,0.07773
73.52652,0.08070
73.28545,0.08145
73.04438,0.08059
72.80331,0.08043
72.56224,0.08215
72.32117,0.08438
72.08010,0.08585
71.83903,0.08721
71.59796,0.08893
71.35688,0.09007
71.11581,0.09057
70.87474,0.09250
70.63367,0.09824
70.39260,0.10861
70.15153,0.12235
69.91046,0.13684
69.66939,0.14970
69.42832,0.16030
69.18725,0.16855
68.94618,0.17213
68.70511,0.16755
68.46404,0.15502
68.22297,0.13960
67.98190,0.12589
67.74083,0.11420
67.49976,0.10309
67.25869,0.09293
67.01761,0.08533
66.77654,0.08095
66.53547,0.07891
66.29440,0.07760
66.05333,0.07585
65.81226,0.07363
65.57119,0.07159
65.33012,0.06999
65.08905,0.06918
64.84798,0.07106
64.60691,0.07771
64.36584,0.08779
64.12477,0.09652
63.88370,0.10051
63.64263,0.10009
63.40156,0.09665
63.16049,0.09112
62.91942,0.08547
62.67834,0.08169
62.43727,0.07881
62.19620,0.07421
61.95513,0.06775
61.71406,0.06143
61.47299,0.05600
61.23192,0.05100
60.99085,0.04746
60.74978,0.04736
60.50871,0.05123
60.26764,0.05761
60.02657,0.06411
59.78550,0.06814
59.54443,0.06816
59.30336,0.06471
59.06229,0.05977
58.82122,0.05558
58.58015,0.05390
58.33907,0.05497
58.09800,0.05685
57.85693,0.05751
57.61586,0.05707
57.37479,0.05665
57.13372,0.05582
56.89265,0.05281
56.65158,0.04775
56.41051,0.04330
56.16944,0.04142
55.92837,0.04099
55.68730,0.04043
55.44623,0.04118
55.20516,0.04568
54.96409,0.05266
54.72302,0.05714
54.48195,0.05604
54.24088,0.05245
53.99980,0.05217
53.75873,0.05621
53.51766,0.05961
53.27659,0.05810
53.03552,0.05318
52.79445,0.04938
52.55338,0.04839
52.31231,0.04862
52.07124,0.04874
51.83017,0.04818
51.58910,0.04581
51.34803,0.04117
51.10696,0.03603
50.86589,0.03306
50.62482,0.03395
50.38375,0.03898
50.14268,0.04590
49.90161,0.04987
49.66053,0.04796
49.41946,0.04226
49.17839,0.03617
48.93732,0.03017
48.69625,0.02310
48.45518,0.01525
48.21411,0.00861
47.97304,0.00549
47.73197,0.00694
47.49090,0.01149
47.24983,0.01629
47.00876,0.01943
46.76769,0.02073
46.52662,0.02103
46.28555,0.02112
46.04448,0.01997
45.80341,0.01493
45.56234,0.00572
45.32126,-0.00384
45.08019,-0.00946
44.83912,-0.00906
44.59805,-0.00150
44.35698,0.01221
44.11591,0.02610
43.87484,0.03225
43.63377,0.02779
43.39270,0.01600
43.15163,0.00209
42.91056,-0.00940
42.66949,-0.01559
42.42842,-0.01495
42.18735,-0.00798
41.94628,0.00088
41.70521,0.00493
41.46414,0.00124
41.22307,-0.00604
40.98199,-0.01051
40.74092,-0.00982
40.49985,-0.00609
40.25878,-0.00209
40.01771,0.00154
39.77664,0.00337
39.53557,-0.00102
39.29450,-0.01218
39.05343,-0.02155
38.81236,-0.01955
38.57129,-0.00603
38.33022,0.00871
38.08915,0.01162
37.84808,-0.00242
37.60701,-0.02371
37.36594,-0.03337
37.12487,-0.02110
36.88380,0.00149
36.64272,0.01614
36.40165,0.01939
36.16058,0.01756
35.91951,0.01374
35.67844,0.00798
35.43737,0.00381
35.19630,0.00492
34.95523,0.00548
34.71416,-0.00292
34.47309,-0.01756
34.23202,-0.02603
33.99095,-0.01923
33.74988,-0.00302
33.50881,0.01236
33.26774,0.02637
33.02667,0.04341
32.78560,0.06736
32.54453,0.08782
32.30345,0.07836
32.06238,0.03408
31.82131,-0.01521
31.58024,-0.04028
31.33917,-0.04724
31.09810,-0.06561
30.85703,-0.10344
30.61596,-0.13448
30.37489,-0.13956
30.13382,-0.13611
29.89275,-0.14416
29.65168,-0.14761
29.41061,-0.11480
29.16954,-0.05195
28.92847,0.00693
28.68740,0.04295
28.44633,0.06655
28.20526,0.09782
27.96418,0.12835
27.72311,0.12198
27.48204,0.07531
27.24097,0.02369
26.99990,-0.02608
26.75883,-0.06814
26.51776,-0.07567
26.27669,-0.04006
26.03562,0.01636
25.79455,0.04798
25.55348,0.02809
25.31241,-0.02091
25.07134,-0.04338
24.83027,-0.00604
24.58920,0.04545
24.34813,0.06000
24.10706,0.05330
23.86599,0.08833
23.62491,0.18159
23.38384,0.25760
23.14277,0.27412
22.90170,0.22438
22.66063,0.12535
22.41956,0.02868
22.17849,-0.00655
21.93742,0.00908
21.69635,0.02680
21.45528,0.04611
21.21421,0.08975
20.97314,0.16191
20.73207,0.22714
20.49100,0.20520
20.24993,0.13543
20.00886,0.15117
19.76779,0.25358
19.52672,0.32911
19.28564,0.28094
19.04457,0.19389
18.80350,0.16802
18.56243,0.22006
18.32136,0.33187
18.08029,0.43642
17.83922,0.56998
17.59815,0.74006
17.35708,0.68554
17.11601,0.48218
16.87494,0.31394
16.63387,0.26602
16.39280,0.34697
16.15173,0.51489
15.91066,0.65138
15.66959,0.61399
15.42852,0.50237
15.18745,0.42126
14.94637,0.34696
14.70530,0.28801
14.46423,0.28727
14.22316,0.37917
13.98209,0.56597
13.74102,0.73668
13.49995,0.78476
13.25888,0.89293
13.01781,1.11040
12.77674,1.18071
12.53567,0.95249
12.29460,0.68612
12.05353,0.54741
11.81246,0.49163
11.57139,0.47348
11.33032,0.52095
11.08925,0.70516
10.84818,0.95444
10.60710,1.06761
10.36603,1.06000
10.12496,0.86641
9.88389,0.68627
9.64282,0.59901
9.40175,0.61211
9.16068,0.66304
8.91961,0.67049
8.67854,0.58498
8.43747,0.58555
8.19640,0.65478
7.95533,0.79657
7.71426,0.73090
7.47319,0.61514
7.23212,0.60909
6.99105,0.75791
6.74998,0.99736
6.50891,0.91188
6.26783,0.90703
6.02676,1.14511
5.78569,1.16235
5.54462,1.13436
5.30355,0.83496
5.06248,0.60544
4.82141,0.54732
4.58034,0.56468
4.33927,0.62187
4.09820,0.69178
3.85713,0.70519
3.61606,0.65684
3.37499,0.65432
3.13392,0.79686
2.89285,0.88326
2.65178,0.81963
2.41071,0.82089
2.16964,0.82726
1.92856,0.85604
1.68749,0.68011
1.44642,0.59994
1.20535,0.67691
0.96428,0.73655
0.72321,0.59807
0.48214,0.45625
0.24107,0.44387
-0.00000,0.68477
