399.69498,1.61413
399.45391,1.64743
399.21284,1.66394
398.97177,1.65555
398.73070,1.64458
398.48963,1.64721
398.24856,1.65617
398.00749,1.65964
397.76642,1.65313
397.52535,1.63518
397.28428,1.61119
397.04321,1.59707
396.80214,1.60282
396.56107,1.62512
396.32000,1.65433
396.07892,1.68263
395.83785,1.71489
395.59678,1.76850
395.35571,1.84484
395.11464,1.90549
394.87357,1.91272
394.63250,1.89228
394.39143,1.90118
394.15036,1.95474
393.90929,2.00790
393.66822,2.00632
393.42715,1.94759
393.18608,1.88320
392.94501,1.86390
392.70394,1.89548
392.46287,1.93627
392.22180,1.92467
391.98073,1.85452
391.73965,1.77694
391.49858,1.73241
391.25751,1.73457
391.01644,1.77164
390.77537,1.81820
390.53430,1.85804
390.29323,1.91110
390.05216,2.02539
389.81109,2.17887
389.57002,2.23628
389.32895,2.21168
389.08788,2.15384
388.84681,2.10876
388.60574,2.08683
388.36467,2.09511
388.12360,2.14746
387.88253,2.20640
387.64146,2.15828
387.40038,2.29067
387.15931,2.54392
386.91824,2.57102
386.67717,2.53033
386.43610,2.38888
386.19503,2.21405
385.95396,2.11326
385.71289,2.06952
385.47182,2.15320
385.23075,2.32402
384.98968,2.36829
384.74861,2.27826
384.50754,2.17174
384.26647,2.09091
384.02540,2.04402
383.78433,2.07343
383.54326,2.04810
383.30219,2.03653
383.06111,2.03240
382.82004,2.12940
382.57897,2.31464
382.33790,2.39985
382.09683,2.29317
381.85576,2.11547
381.61469,1.93665
381.37362,1.85007
381.13255,1.87377
380.89148,1.95609
380.65041,2.01614
380.40934,2.01385
380.16827,1.95281
379.92720,1.98851
379.68613,2.06962
379.44506,1.97526
379.20399,1.85474
378.96292,1.82414
378.72184,1.87661
378.48077,1.94310
378.23970,1.97857
377.99863,2.00813
377.75756,2.05498
377.51649,2.07980
377.27542,2.06896
377.03435,2.09849
376.79328,2.15118
376.55221,2.01471
376.31114,1.96508
376.07007,2.00892
375.82900,2.04216
375.58793,2.01591
375.34686,1.98432
375.10579,1.95254
374.86472,1.95283
374.62365,1.96171
374.38257,1.93761
374.14150,1.88525
373.90043,1.85261
373.65936,1.87433
373.41829,1.91074
373.17722,1.90272
372.93615,1.85419
372.69508,1.77448
372.45401,1.68869
372.21294,1.63077
371.97187,1.60572
371.73080,1.59486
371.48973,1.57643
371.24866,1.54845
371.00759,1.52167
370.76652,1.49784
370.52545,1.47353
370.28437,1.45247
370.04330,1.44007
369.80223,1.43495
369.56116,1.42763
369.32009,1.41107
369.07902,1.39272
368.83795,1.38029
368.59688,1.36921
368.35581,1.34959
368.11474,1.31968
367.87367,1.29260
367.63260,1.28418
367.39153,1.29651
367.15046,1.31697
366.90939,1.32839
366.66832,1.31957
366.42725,1.29464
366.18618,1.27184
365.94510,1.26766
365.70403,1.28369
365.46296,1.30735
365.22189,1.32526
364.98082,1.33209
364.73975,1.32818
364.49868,1.31576
364.25761,1.29711
364.01654,1.27585
363.77547,1.25971
363.53440,1.25617
363.29333,1.26299
363.05226,1.26700
362.81119,1.26002
362.57012,1.25071
362.32905,1.25155
362.08798,1.26125
361.84691,1.26499
361.60583,1.25270
361.36476,1.23307
361.12369,1.22242
360.88262,1.22681
360.64155,1.23647
360.40048,1.23602
360.15941,1.22269
359.91834,1.20927
359.67727,1.20700
359.43620,1.21502
359.19513,1.22666
358.95406,1.23773
358.71299,1.24661
358.47192,1.25036
358.23085,1.24755
357.98978,1.24223
357.74871,1.23766
357.50764,1.23237
357.26656,1.22693
357.02549,1.22534
356.78442,1.22651
356.54335,1.22523
356.30228,1.22339
356.06121,1.22745
355.82014,1.23619
355.57907,1.24219
355.33800,1.24327
355.09693,1.24314
354.85586,1.24481
354.61479,1.24799
354.37372,1.24739
354.13265,1.23724
353.89158,1.22081
353.65051,1.20792
353.40944,1.20475
353.16837,1.21107
352.92729,1.22416
352.68622,1.24036
352.44515,1.25404
352.20408,1.26048
351.96301,1.26014
351.72194,1.25729
351.48087,1.25441
351.23980,1.25074
350.99873,1.24632
350.75766,1.24222
350.51659,1.23823
350.27552,1.23640
350.03445,1.24194
349.79338,1.25483
349.55231,1.26469
349.31124,1.26214
349.07017,1.25309
348.82910,1.25021
348.58802,1.25660
348.34695,1.26591
348.10588,1.27319
347.86481,1.27897
347.62374,1.28122
347.38267,1.27734
347.14160,1.27263
346.90053,1.27391
346.65946,1.28235
346.41839,1.29372
346.17732,1.30355
345.93625,1.31166
345.69518,1.31763
345.45411,1.31900
345.21304,1.31722
344.97197,1.31653
344.73090,1.31825
344.48983,1.32358
344.24875,1.33538
344.00768,1.35171
343.76661,1.36678
343.52554,1.37422
343.28447,1.37131
343.04340,1.36696
342.80233,1.37109
342.56126,1.38406
342.32019,1.40188
342.07912,1.42397
341.83805,1.45285
341.59698,1.48556
341.35591,1.50585
341.11484,1.49913
340.87377,1.48060
340.63270,1.48421
340.39163,1.52632
340.15056,1.58648
339.90948,1.62166
339.66841,1.61757
339.42734,1.60402
339.18627,1.60649
338.94520,1.62472
338.70413,1.64668
338.46306,1.66313
338.22199,1.67358
337.98092,1.68076
337.73985,1.68741
337.49878,1.70034
337.25771,1.72952
337.01664,1.78050
336.77557,1.84185
336.53450,1.87735
336.29343,1.85823
336.05236,1.80121
335.81129,1.74758
335.57021,1.71497
335.32914,1.69634
335.08807,1.68537
334.84700,1.68931
334.60593,1.71649
334.36486,1.75170
334.12379,1.75858
333.88272,1.71725
333.64165,1.65435
333.40058,1.62281
333.15951,1.63731
332.91844,1.66995
332.67737,1.68407
332.43630,1.66363
332.19523,1.62111
331.95416,1.57911
331.71309,1.55796
331.47202,1.56553
331.23094,1.58105
330.98987,1.57656
330.74880,1.55584
330.50773,1.54099
330.26666,1.53279
330.02559,1.51585
329.78452,1.49141
329.54345,1.47654
329.30238,1.47973
329.06131,1.49445
328.82024,1.50839
328.57917,1.51142
328.33810,1.49862
328.09703,1.47332
327.85596,1.45175
327.61489,1.45653
327.37382,1.49372
327.13275,1.53979
326.89167,1.56440
326.65060,1.56608
326.40953,1.55855
326.16846,1.54288
325.92739,1.52050
325.68632,1.50999
325.44525,1.52851
325.20418,1.56749
324.96311,1.59569
324.72204,1.59281
324.48097,1.57484
324.23990,1.56884
323.99883,1.57710
323.75776,1.58109
323.51669,1.57179
323.27562,1.56569
323.03455,1.58379
322.79348,1.61575
322.55240,1.63101
322.31133,1.62772
322.07026,1.63621
321.82919,1.68110
321.58812,1.75114
321.34705,1.81027
321.10598,1.84765
320.86491,1.89167
320.62384,1.95641
320.38277,1.98485
320.14170,1.91348
319.90063,1.82276
319.65956,1.79699
319.41849,1.84816
319.17742,1.90757
318.93635,1.90246
318.69528,1.89894
318.45421,1.98735
318.21313,2.16143
317.97206,2.23501
317.73099,2.06437
317.48992,1.90485
317.24885,1.82350
317.00778,1.79852
316.76671,1.80126
316.52564,1.82559
316.28457,1.88109
316.04350,1.96832
315.80243,2.08459
315.56136,2.15227
315.32029,2.07136
315.07922,2.02029
314.83815,2.06602
314.59708,2.14881
314.35601,2.17971
314.11494,2.15188
313.87386,2.15637
313.63279,2.13575
313.39172,2.06955
313.15065,1.96119
312.90958,1.90826
312.66851,1.99792
312.42744,2.19690
312.18637,2.30747
311.94530,2.36158
311.70423,2.41830
311.46316,2.30272
311.22209,2.23341
310.98102,2.23573
310.73995,2.22329
310.49888,2.16588
310.25781,2.11805
310.01674,2.10561
309.77567,2.12648
309.53459,2.17722
309.29352,2.18328
309.05245,2.15792
308.81138,2.09079
308.57031,2.04074
308.32924,2.02803
308.08817,2.02807
307.84710,2.02200
307.60603,1.99511
307.36496,1.96334
307.12389,1.95832
306.88282,1.96650
306.64175,1.94308
306.40068,1.88813
306.15961,1.82764
305.91854,1.77006
305.67747,1.72005
305.43640,1.68487
305.19532,1.64464
304.95425,1.58916
304.71318,1.53744
304.47211,1.50392
304.23104,1.48105
303.98997,1.45553
303.74890,1.42292
303.50783,1.38756
303.26676,1.35950
303.02569,1.34858
302.78462,1.35265
302.54355,1.35626
302.30248,1.34714
302.06141,1.32705
301.82034,1.30643
301.57927,1.29429
301.33820,1.29175
301.09713,1.29230
300.85605,1.28717
300.61498,1.27315
300.37391,1.25608
300.13284,1.24275
299.89177,1.23349
299.65070,1.22299
299.40963,1.20640
299.16856,1.18598
298.92749,1.17025
298.68642,1.16608
298.44535,1.17222
298.20428,1.17957
297.96321,1.17910
297.72214,1.17079
297.48107,1.16183
297.24000,1.15696
296.99893,1.15413
296.75786,1.14845
296.51678,1.13708
296.27571,1.12200
296.03464,1.10860
295.79357,1.09988
295.55250,1.09451
295.31143,1.09126
295.07036,1.09028
294.82929,1.08874
294.58822,1.08266
294.34715,1.07401
294.10608,1.06851
293.86501,1.06767
293.62394,1.06793
293.38287,1.06570
293.14180,1.05973
292.90073,1.05105
292.65966,1.04298
292.41859,1.03843
292.17751,1.03613
291.93644,1.03325
291.69537,1.03104
291.45430,1.03242
291.21323,1.03524
290.97216,1.03381
290.73109,1.02691
290.49002,1.01900
290.24895,1.01307
290.00788,1.00818
289.76681,1.00306
289.52574,0.99766
289.28467,0.99233
289.04360,0.98826
288.80253,0.98628
288.56146,0.98476
288.32039,0.98231
288.07932,0.98065
287.83824,0.98130
287.59717,0.98179
287.35610,0.97807
287.11503,0.96917
286.87396,0.95885
286.63289,0.95281
286.39182,0.95310
286.15075,0.95646
285.90968,0.95867
285.66861,0.95898
285.42754,0.95914
285.18647,0.96019
284.94540,0.96217
284.70433,0.96445
284.46326,0.96517
284.22219,0.96243
283.98112,0.95719
283.74005,0.95242
283.49897,0.94905
283.25790,0.94542
283.01683,0.94189
282.77576,0.94283
282.53469,0.95057
282.29362,0.95961
282.05255,0.96124
281.81148,0.95422
281.57041,0.94537
281.32934,0.94029
281.08827,0.93891
280.84720,0.93889
280.60613,0.93970
280.36506,0.94205
280.12399,0.94396
279.88292,0.94161
279.64185,0.93526
279.40078,0.93022
279.15970,0.92995
278.91863,0.93223
278.67756,0.93358
278.43649,0.93357
278.19542,0.93338
277.95435,0.93328
277.71328,0.93302
277.47221,0.93294
277.23114,0.93361
276.99007,0.93493
276.74900,0.93710
276.50793,0.94142
276.26686,0.94814
276.02579,0.95427
275.78472,0.95567
275.54365,0.95173
275.30258,0.94669
275.06151,0.94551
274.82043,0.94885
274.57936,0.95266
274.33829,0.95344
274.09722,0.95194
273.85615,0.95100
273.61508,0.95173
273.37401,0.95254
273.13294,0.95109
272.89187,0.94712
272.65080,0.94300
272.40973,0.94111
272.16866,0.94203
271.92759,0.94591
271.68652,0.95275
271.44545,0.96086
271.20438,0.96798
270.96331,0.97337
270.72224,0.97671
270.48116,0.97723
270.24009,0.97564
269.99902,0.97418
269.75795,0.97411
269.51688,0.97537
269.27581,0.97756
269.03474,0.97984
268.79367,0.98178
268.55260,0.98475
268.31153,0.99032
268.07046,0.99822
267.82939,1.00695
267.58832,1.01464
267.34725,1.01965
267.10618,1.02180
266.86511,1.02263
266.62404,1.02419
266.38297,1.02773
266.14189,1.03263
265.90082,1.03673
265.65975,1.03951
265.41868,1.04427
265.17761,1.05403
264.93654,1.06630
264.69547,1.07568
264.45440,1.08149
264.21333,1.08820
263.97226,1.09880
263.73119,1.11096
263.49012,1.12006
263.24905,1.12413
263.00798,1.12603
262.76691,1.13118
262.52584,1.14286
262.28477,1.15951
262.04370,1.17870
261.80262,1.20223
261.56155,1.23075
261.32048,1.25558
261.07941,1.26631
260.83834,1.26579
260.59727,1.26603
260.35620,1.27411
260.11513,1.29018
259.87406,1.31152
259.63299,1.33319
259.39192,1.35093
259.15085,1.36745
258.90978,1.39086
258.66871,1.42278
258.42764,1.45288
258.18657,1.47300
257.94550,1.48810
257.70443,1.50790
257.46335,1.53606
257.22228,1.56584
256.98121,1.59128
256.74014,1.61894
256.49907,1.65185
256.25800,1.67497
256.01693,1.67968
255.77586,1.67533
255.53479,1.67707
255.29372,1.70418
255.05265,1.76530
254.81158,1.84874
254.57051,1.94042
254.32944,2.03704
254.08837,2.11793
253.84730,2.15658
253.60623,2.15780
253.36516,2.14929
253.12408,2.15156
252.88301,2.14696
252.64194,2.11650
252.40087,2.08083
252.15980,2.08658
251.91873,2.17504
251.67766,2.34270
251.43659,2.50131
251.19552,2.56139
250.95445,2.47307
250.71338,2.35007
250.47231,2.32206
250.23124,2.36049
249.99017,2.36838
249.74910,2.35717
249.50803,2.35254
249.26696,2.36393
249.02589,2.40935
248.78481,2.37211
248.54374,2.34479
248.30267,2.30933
248.06160,2.24454
247.82053,2.21213
247.57946,2.24048
247.33839,2.32010
247.09732,2.39097
246.85625,2.36323
246.61518,2.26428
246.37411,2.17958
246.13304,2.12303
245.89197,2.08920
245.65090,2.08411
245.40983,2.08688
245.16876,2.06161
244.92769,2.00067
244.68661,1.91498
244.44554,1.82308
244.20447,1.74725
243.96340,1.69269
243.72233,1.64819
243.48126,1.60282
243.24019,1.55326
242.99912,1.49647
242.75805,1.43578
242.51698,1.38109
242.27591,1.33246
242.03484,1.28433
241.79377,1.23754
241.55270,1.19565
241.31163,1.15941
241.07056,1.12640
240.82949,1.09381
240.58842,1.06081
240.34734,1.02822
240.10627,0.99799
239.86520,0.97255
239.62413,0.95196
239.38306,0.93172
239.14199,0.90672
238.90092,0.87791
238.65985,0.85118
238.41878,0.83013
238.17771,0.81401
237.93664,0.80120
237.69557,0.79084
237.45450,0.78183
237.21343,0.77274
236.97236,0.76247
236.73129,0.75073
236.49022,0.73879
236.24915,0.72877
236.00807,0.72151
235.76700,0.71577
235.52593,0.70986
235.28486,0.70294
235.04379,0.69495
234.80272,0.68651
234.56165,0.67898
234.32058,0.67385
234.07951,0.67134
233.83844,0.66988
233.59737,0.66778
233.35630,0.66539
233.11523,0.66463
232.87416,0.66604
232.63309,0.66742
232.39202,0.66610
232.15095,0.66162
231.90988,0.65595
231.66880,0.65175
231.42773,0.65052
231.18666,0.65155
230.94559,0.65262
230.70452,0.65202
230.46345,0.64968
230.22238,0.64661
229.98131,0.64421
229.74024,0.64381
229.49917,0.64588
229.25810,0.64947
229.01703,0.65246
228.77596,0.65264
228.53489,0.64956
228.29382,0.64547
228.05275,0.64304
227.81168,0.64197
227.57061,0.63970
227.32953,0.63562
227.08846,0.63209
226.84739,0.63146
226.60632,0.63380
226.36525,0.63748
226.12418,0.64112
225.88311,0.64428
225.64204,0.64665
225.40097,0.64764
225.15990,0.64726
224.91883,0.64667
224.67776,0.64739
224.43669,0.64998
224.19562,0.65363
223.95455,0.65712
223.71348,0.66034
223.47241,0.66416
223.23134,0.66898
222.99026,0.67407
222.74919,0.67856
222.50812,0.68253
222.26705,0.68644
222.02598,0.69017
221.78491,0.69343
221.54384,0.69723
221.30277,0.70360
221.06170,0.71331
220.82063,0.72512
220.57956,0.73713
220.33849,0.74787
220.09742,0.75637
219.85635,0.76300
219.61528,0.76982
219.37421,0.77803
219.13314,0.78601
218.89207,0.79182
218.65099,0.79655
218.40992,0.80304
218.16885,0.81191
217.92778,0.82085
217.68671,0.82843
217.44564,0.83672
217.20457,0.84894
216.96350,0.86597
216.72243,0.88516
216.48136,0.90209
216.24029,0.91457
215.99922,0.92483
215.75815,0.93602
215.51708,0.94796
215.27601,0.95868
215.03494,0.96814
214.79387,0.97775
214.55280,0.98750
214.31172,0.99610
214.07065,1.00360
213.82958,1.01161
213.58851,1.02003
213.34744,1.02586
213.10637,1.02732
212.86530,1.02684
212.62423,1.02825
212.38316,1.03313
212.14209,1.04081
211.90102,1.04974
211.65995,1.05741
211.41888,1.06049
211.17781,1.05882
210.93674,1.05845
210.69567,1.06651
210.45460,1.08196
210.21353,1.09425
209.97245,1.09383
209.73138,1.08220
209.49031,1.06822
209.24924,1.05849
209.00817,1.05434
208.76710,1.05434
208.52603,1.05626
208.28496,1.05716
208.04389,1.05453
207.80282,1.04863
207.56175,1.04187
207.32068,1.03482
207.07961,1.02588
206.83854,1.01548
206.59747,1.00681
206.35640,1.00203
206.11533,1.00019
205.87426,0.99810
205.63318,0.99195
205.39211,0.97931
205.15104,0.96148
204.90997,0.94386
204.66890,0.93129
204.42783,0.92344
204.18676,0.91652
203.94569,0.90841
203.70462,0.89927
203.46355,0.88852
203.22248,0.87518
202.98141,0.86053
202.74034,0.84707
202.49927,0.83536
202.25820,0.82406
202.01713,0.81251
201.77606,0.80145
201.53499,0.79102
201.29391,0.77946
201.05284,0.76552
200.81177,0.75116
200.57070,0.73895
200.32963,0.72788
200.08856,0.71510
199.84749,0.70104
199.60642,0.68879
199.36535,0.67934
199.12428,0.67112
198.88321,0.66338
198.64214,0.65672
198.40107,0.65059
198.16000,0.64289
197.91893,0.63248
197.67786,0.62042
197.43679,0.60833
197.19572,0.59702
196.95464,0.58713
196.71357,0.57962
196.47250,0.57458
196.23143,0.57067
195.99036,0.56632
195.74929,0.56099
195.50822,0.55510
195.26715,0.54937
195.02608,0.54439
194.78501,0.54022
194.54394,0.53631
194.30287,0.53202
194.06180,0.52709
193.82073,0.52190
193.57966,0.51740
193.33859,0.51416
193.09752,0.51145
192.85645,0.50773
192.61537,0.50233
192.37430,0.49620
192.13323,0.49093
191.89216,0.48721
191.65109,0.48460
191.41002,0.48253
191.16895,0.48065
190.92788,0.47850
190.68681,0.47584
190.44574,0.47331
190.20467,0.47135
189.96360,0.46897
189.72253,0.46493
189.48146,0.45981
189.24039,0.45578
188.99932,0.45424
188.75825,0.45449
188.51718,0.45496
188.27610,0.45477
188.03503,0.45393
187.79396,0.45278
187.55289,0.45197
187.31182,0.45200
187.07075,0.45260
186.82968,0.45297
186.58861,0.45270
186.34754,0.45186
186.10647,0.45071
185.86540,0.44960
185.62433,0.44903
185.38326,0.44937
185.14219,0.45023
184.90112,0.45087
184.66005,0.45154
184.41898,0.45348
184.17791,0.45698
183.93683,0.46048
183.69576,0.46257
183.45469,0.46357
183.21362,0.46448
182.97255,0.46600
182.73148,0.46847
182.49041,0.47141
182.24934,0.47360
182.00827,0.47465
181.76720,0.47559
181.52613,0.47744
181.28506,0.48008
181.04399,0.48251
180.80292,0.48395
180.56185,0.48473
180.32078,0.48621
180.07971,0.48933
179.83864,0.49367
179.59756,0.49834
179.35649,0.50305
179.11542,0.50792
178.87435,0.51282
178.63328,0.51743
178.39221,0.52204
178.15114,0.52798
177.91007,0.53674
177.66900,0.54811
177.42793,0.56019
177.18686,0.57177
176.94579,0.58361
176.70472,0.59660
176.46365,0.61009
176.22258,0.62328
175.98151,0.63736
175.74044,0.65475
175.49937,0.67598
175.25829,0.69888
175.01722,0.72105
174.77615,0.74211
174.53508,0.76219
174.29401,0.78013
174.05294,0.79565
173.81187,0.81102
173.57080,0.82697
173.32973,0.84015
173.08866,0.84846
172.84759,0.85496
172.60652,0.86254
172.36545,0.86943
172.12438,0.87243
171.88331,0.87092
171.64224,0.86669
171.40117,0.86218
171.16010,0.85926
170.91902,0.85819
170.67795,0.85763
170.43688,0.85571
170.19581,0.85200
169.95474,0.84740
169.71367,0.84192
169.47260,0.83443
169.23153,0.82496
168.99046,0.81633
168.74939,0.81174
168.50832,0.81093
168.26725,0.81028
168.02618,0.80728
167.78511,0.80327
167.54404,0.80073
167.30297,0.80032
167.06190,0.80154
166.82083,0.80426
166.57975,0.80838
166.33868,0.81372
166.09761,0.82063
165.85654,0.82945
165.61547,0.83917
165.37440,0.84713
165.13333,0.85084
164.89226,0.85100
164.65119,0.85156
164.41012,0.85586
164.16905,0.86456
163.92798,0.87701
163.68691,0.89194
163.44584,0.90620
163.20477,0.91601
162.96370,0.92170
162.72263,0.92848
162.48156,0.93995
162.24048,0.95300
161.99941,0.96088
161.75834,0.96059
161.51727,0.95616
161.27620,0.95454
161.03513,0.95896
160.79406,0.96650
160.55299,0.97145
160.31192,0.97052
160.07085,0.96411
159.82978,0.95388
159.58871,0.94291
159.34764,0.93508
159.10657,0.93118
158.86550,0.92891
158.62443,0.92613
158.38336,0.92177
158.14229,0.91536
157.90121,0.90844
157.66014,0.90460
157.41907,0.90522
157.17800,0.90676
156.93693,0.90464
156.69586,0.89890
156.45479,0.89272
156.21372,0.88653
155.97265,0.87770
155.73158,0.86602
155.49051,0.85498
155.24944,0.84728
155.00837,0.84281
154.76730,0.83980
154.52623,0.83516
154.28516,0.82523
154.04409,0.80959
153.80302,0.79231
153.56194,0.77685
153.32087,0.76202
153.07980,0.74490
152.83873,0.72588
152.59766,0.70799
152.35659,0.69231
152.11552,0.67706
151.87445,0.66085
151.63338,0.64447
151.39231,0.62918
151.15124,0.61494
150.91017,0.60089
150.66910,0.58674
150.42803,0.57326
150.18696,0.56140
149.94589,0.55104
149.70482,0.54138
149.46375,0.53214
149.22267,0.52330
148.98160,0.51449
148.74053,0.50585
148.49946,0.49839
148.25839,0.49278
148.01732,0.48877
147.77625,0.48579
147.53518,0.48301
147.29411,0.47949
147.05304,0.47544
146.81197,0.47259
146.57090,0.47263
146.32983,0.47570
146.08876,0.48052
145.84769,0.48532
145.60662,0.48885
145.36555,0.49143
145.12448,0.49465
144.88340,0.49992
144.64233,0.50706
144.40126,0.51449
144.16019,0.52037
143.91912,0.52349
143.67805,0.52370
143.43698,0.52174
143.19591,0.51824
142.95484,0.51306
142.71377,0.50572
142.47270,0.49623
142.23163,0.48528
141.99056,0.47395
141.74949,0.46356
141.50842,0.45538
141.26735,0.45006
141.02628,0.44716
140.78521,0.44534
140.54413,0.44347
140.30306,0.44150
140.06199,0.44022
139.82092,0.44026
139.57985,0.44172
139.33878,0.44459
139.09771,0.44895
138.85664,0.45468
138.61557,0.46141
138.37450,0.46900
138.13343,0.47793
137.89236,0.48909
137.65129,0.50269
137.41022,0.51780
137.16915,0.53368
136.92808,0.55102
136.68701,0.57053
136.44594,0.59095
136.20486,0.60986
135.96379,0.62696
135.72272,0.64517
135.48165,0.66818
135.24058,0.69652
134.99951,0.72618
134.75844,0.75237
134.51737,0.77524
134.27630,0.79900
134.03523,0.82556
133.79416,0.85212
133.55309,0.87504
133.31202,0.89298
133.07095,0.90668
132.82988,0.91729
132.58881,0.92536
132.34774,0.93148
132.10667,0.93788
131.86559,0.94667
131.62452,0.95443
131.38345,0.95241
131.14238,0.93652
130.90131,0.91322
130.66024,0.89161
130.41917,0.87322
130.17810,0.85252
129.93703,0.82568
129.69596,0.79506
129.45489,0.76467
129.21382,0.73521
128.97275,0.70529
128.73168,0.67478
128.49061,0.64535
128.24954,0.61823
128.00847,0.59292
127.76740,0.56858
127.52632,0.54526
127.28525,0.52336
127.04418,0.50294
126.80311,0.48427
126.56204,0.46785
126.32097,0.45334
126.07990,0.43951
125.83883,0.42604
125.59776,0.41407
125.35669,0.40421
125.11562,0.39535
124.87455,0.38609
124.63348,0.37645
124.39241,0.36752
124.15134,0.35991
123.91027,0.35343
123.66920,0.34808
123.42812,0.34464
123.18705,0.34360
122.94598,0.34410
122.70491,0.34467
122.46384,0.34505
122.22277,0.34604
121.98170,0.34744
121.74063,0.34800
121.49956,0.34777
121.25849,0.34873
121.01742,0.35248
120.77635,0.35850
120.53528,0.36567
120.29421,0.37459
120.05314,0.38717
119.81207,0.40415
119.57100,0.42400
119.32993,0.44467
119.08885,0.46586
118.84778,0.48895
118.60671,0.51470
118.36564,0.54174
118.12457,0.56773
117.88350,0.59161
117.64243,0.61323
117.40136,0.63134
117.16029,0.64371
116.91922,0.64986
116.67815,0.65192
116.43708,0.65109
116.19601,0.64573
115.95494,0.63411
115.71387,0.61659
115.47280,0.59602
115.23173,0.57717
114.99066,0.56428
114.74958,0.55783
114.50851,0.55462
114.26744,0.55165
114.02637,0.54828
113.78530,0.54483
113.54423,0.54184
113.30316,0.54067
113.06209,0.54204
112.82102,0.54421
112.57995,0.54540
112.33888,0.54727
112.09781,0.55280
111.85674,0.56228
111.61567,0.57322
111.37460,0.58249
111.13353,0.58807
110.89246,0.59045
110.65139,0.59200
110.41031,0.59327
110.16924,0.59042
109.92817,0.57935
109.68710,0.56197
109.44603,0.54413
109.20496,0.52844
108.96389,0.51327
108.72282,0.49744
108.48175,0.48124
108.24068,0.46401
107.99961,0.44537
107.75854,0.42782
107.51747,0.41377
107.27640,0.40137
107.03533,0.38694
106.79426,0.37055
106.55319,0.35563
106.31212,0.34416
106.07104,0.33498
105.82997,0.32638
105.58890,0.31804
105.34783,0.31035
105.10676,0.30299
104.86569,0.29521
104.62462,0.28704
104.38355,0.27925
104.14248,0.27224
103.90141,0.26576
103.66034,0.25966
103.41927,0.25418
103.17820,0.24923
102.93713,0.24440
102.69606,0.23987
102.45499,0.23617
102.21392,0.23316
101.97285,0.22990
101.73177,0.22573
101.49070,0.22101
101.24963,0.21693
101.00856,0.21442
100.76749,0.21283
100.52642,0.21017
100.28535,0.20530
100.04428,0.19939
99.80321,0.19494
99.56214,0.19338
99.32107,0.19391
99.08000,0.19445
98.83893,0.19399
98.59786,0.19355
98.35679,0.19422
98.11572,0.19553
97.87465,0.19653
97.63358,0.19729
97.39250,0.19820
97.15143,0.19935
96.91036,0.20111
96.66929,0.20445
96.42822,0.20980
96.18715,0.21647
95.94608,0.22357
95.70501,0.23071
95.46394,0.23785
95.22287,0.24519
94.98180,0.25279
94.74073,0.25998
94.49966,0.26539
94.25859,0.26808
94.01752,0.26830
93.77645,0.26704
93.53538,0.26550
93.29431,0.26492
93.05323,0.26599
92.81216,0.26799
92.57109,0.26948
92.33002,0.27000
92.08895,0.27068
91.84788,0.27314
91.60681,0.27830
91.36574,0.28637
91.12467,0.29767
90.88360,0.31332
90.64253,0.33439
90.40146,0.36081
90.16039,0.39213
89.91932,0.42855
89.67825,0.46943
89.43718,0.51095
89.19611,0.54763
88.95504,0.57617
88.71396,0.59503
88.47289,0.60094
88.23182,0.58981
87.99075,0.56144
87.74968,0.52125
87.50861,0.47692
87.26754,0.43424
87.02647,0.39581
86.78540,0.36213
86.54433,0.33303
86.30326,0.30836
86.06219,0.28787
85.82112,0.27066
85.58005,0.25521
85.33898,0.24018
85.09791,0.22520
84.85684,0.21066
84.61577,0.19703
84.37469,0.18478
84.13362,0.17471
83.89255,0.16784
83.65148,0.16430
83.41041,0.16236
83.16934,0.15926
82.92827,0.15372
82.68720,0.14711
82.44613,0.14181
82.20506,0.13891
81.96399,0.13780
81.72292,0.13710
81.48185,0.13566
81.24078,0.13343
80.99971,0.13125
80.75864,0.12956
80.51757,0.12795
80.27650,0.12636
80.03542,0.12558
79.79435,0.12606
79.55328,0.12725
79.31221,0.12806
79.07114,0.12755
78.83007,0.12528
78.58900,0.12162
78.34793,0.11761
78.10686,0.11415
77.86579,0.11163
77.62472,0.11004
77.38365,0.10881
77.14258,0.10712
76.90151,0.10516
76.66044,0.10470
76.41937,0.10683
76.17830,0.10955
75.93723,0.10943
75.69615,0.10590
75.45508,0.10181
75.21401,0.09952
74.97294,0.09894
74.73187,0.09905
74.49080,0.09935
74.24973,0.09960
74.00866,0.09984
73.76759,0.10075
73.52652,0.10272
73.28545,0.10478
73.04438,0.10561
72.80331,0.10513
72.56224,0.10452
72.32117,0.10486
72.08010,0.10629
71.83903,0.10826
71.59796,0.11048
71.35688,0.11325
71.11581,0.11678
70.87474,0.12077
70.63367,0.12518
70.39260,0.13095
70.15153,0.13939
69.91046,0.15086
69.66939,0.16406
69.42832,0.17620
69.18725,0.18399
68.94618,0.18497
68.70511,0.17845
68.46404,0.16659
68.22297,0.15363
67.98190,0.14251
67.74083,0.13322
67.49976,0.12473
67.25869,0.11700
67.01761,0.11035
66.77654,0.10481
66.53547,0.10058
66.29440,0.09791
66.05333,0.09677
65.81226,0.09717
65.57119,0.09939
65.33012,0.10317
65.08905,0.10738
64.84798,0.11102
64.60691,0.11443
64.36584,0.11883
64.12477,0.12400
63.88370,0.12729
63.64263,0.12658
63.40156,0.12270
63.16049,0.11726
62.91942,0.11048
62.67834,0.10306
62.43727,0.09730
62.19620,0.09490
61.95513,0.09497
61.71406,0.09514
61.47299,0.09346
61.23192,0.08972
60.99085,0.08563
60.74978,0.08333
60.50871,0.08400
60.26764,0.08752
60.02657,0.09194
59.78550,0.09387
59.54443,0.09147
59.30336,0.08657
59.06229,0.08214
58.82122,0.07946
58.58015,0.07906
58.33907,0.08103
58.09800,0.08385
57.85693,0.08533
57.61586,0.08487
57.37479,0.08323
57.13372,0.08064
56.89265,0.07657
56.65158,0.07094
56.41051,0.06468
56.16944,0.05986
55.92837,0.05896
55.68730,0.06289
55.44623,0.06932
55.20516,0.07415
54.96409,0.07531
54.72302,0.07384
54.48195,0.07160
54.24088,0.06999
53.99980,0.07012
53.75873,0.07189
53.51766,0.07367
53.27659,0.07448
53.03552,0.07510
52.79445,0.07633
52.55338,0.07780
52.31231,0.07859
52.07124,0.07761
51.83017,0.07453
51.58910,0.07112
51.34803,0.06957
51.10696,0.06944
50.86589,0.06870
50.62482,0.06722
50.38375,0.06693
50.14268,0.06830
49.90161,0.06858
49.66053,0.06498
49.41946,0.05882
49.17839,0.05453
48.93732,0.05434
48.69625,0.05574
48.45518,0.05517
48.21411,0.05334
47.97304,0.05404
47.73197,0.05748
47.49090,0.05918
47.24983,0.05620
47.00876,0.05063
46.76769,0.04655
46.52662,0.04606
46.28555,0.04810
46.04448,0.04979
45.80341,0.04901
45.56234,0.04637
45.32126,0.04428
45.08019,0.04465
44.83912,0.04755
44.59805,0.05101
44.35698,0.05239
44.11591,0.05085
43.87484,0.04837
43.63377,0.04744
43.39270,0.04824
43.15163,0.04920
42.91056,0.05004
42.66949,0.05253
42.42842,0.05756
42.18735,0.06204
41.94628,0.06148
41.70521,0.05546
41.46414,0.04780
41.22307,0.04273
40.98199,0.04319
40.74092,0.05004
40.49985,0.05993
40.25878,0.06611
40.01771,0.06545
39.77664,0.06273
39.53557,0.06401
39.29450,0.06970
39.05343,0.07736
38.81236,0.08575
38.57129,0.09457
38.33022,0.10399
38.08915,0.11390
37.84808,0.12000
37.60701,0.11560
37.36594,0.10093
37.12487,0.08494
36.88380,0.07688
36.64272,0.07788
36.40165,0.08213
36.16058,0.08497
35.91951,0.08737
35.67844,0.09297
35.43737,0.10113
35.19630,0.10579
34.95523,0.10320
34.71416,0.09720
34.47309,0.09392
34.23202,0.09705
33.99095,0.10968
33.74988,0.13198
33.50881,0.15500
33.26774,0.16538
33.02667,0.16009
32.78560,0.15466
32.54453,0.16420
32.30345,0.18148
32.06238,0.18199
31.82131,0.15337
31.58024,0.11519
31.33917,0.09357
31.09810,0.09325
30.85703,0.10307
30.61596,0.11186
30.37489,0.11255
30.13382,0.10206
29.89275,0.08544
29.65168,0.07481
29.41061,0.07713
29.16954,0.09132
28.92847,0.12086
28.68740,0.16900
28.44633,0.21832
28.20526,0.24145
27.96418,0.22965
27.72311,0.19884
27.48204,0.17087
27.24097,0.15969
26.99990,0.17077
26.75883,0.19392
26.51776,0.20815
26.27669,0.20331
26.03562,0.19407
25.79455,0.20346
25.55348,0.22925
25.31241,0.25002
25.07134,0.25468
24.83027,0.24677
24.58920,0.24184
24.34813,0.26092
24.10706,0.32075
23.86599,0.40813
23.62491,0.47482
23.38384,0.49368
23.14277,0.47646
22.90170,0.46282
22.66063,0.47967
22.41956,0.52094
22.17849,0.54467
21.93742,0.50916
21.69635,0.42999
21.45528,0.35876
21.21421,0.32855
20.97314,0.33653
20.73207,0.35668
20.49100,0.37609
20.24993,0.39725
20.00886,0.41485
19.76779,0.42388
19.52672,0.41953
19.28564,0.43141
19.04457,0.50728
18.80350,0.65427
18.56243,0.81194
18.32136,0.86669
18.08029,0.78761
17.83922,0.71813
17.59815,0.70112
17.35708,0.72606
17.11601,0.76944
16.87494,0.82090
16.63387,0.84754
16.39280,0.83380
16.15173,0.94837
15.91066,0.96972
15.66959,0.87218
15.42852,0.69087
15.18745,0.48695
14.94637,0.36337
14.70530,0.36360
14.46423,0.42827
14.22316,0.46917
13.98209,0.45983
13.74102,0.44531
13.49995,0.47640
13.25888,0.55025
13.01781,0.60793
12.77674,0.65095
12.53567,0.70406
12.29460,0.73888
12.05353,0.71739
11.81246,0.67961
11.57139,0.73551
11.33032,0.92714
11.08925,1.02270
10.84818,0.82806
10.60710,0.62135
10.36603,0.49910
10.12496,0.47747
9.88389,0.57931
9.64282,0.67266
9.40175,0.67848
9.16068,0.72333
8.91961,0.67532
8.67854,0.56437
8.43747,0.60433
8.19640,0.77210
7.95533,0.93583
7.71426,1.06358
7.47319,1.12300
7.23212,0.94460
6.99105,0.85057
6.74998,0.63938
6.50891,0.52884
6.26783,0.51760
6.02676,0.48213
5.78569,0.48021
5.54462,0.55556
5.30355,0.68983
5.06248,0.74453
4.82141,0.82709
4.58034,0.78814
4.33927,0.73930
4.09820,0.55672
3.85713,0.49842
3.61606,0.60280
3.37499,0.72653
3.13392,0.80904
2.89285,0.90167
2.65178,0.86334
2.41071,0.69811
2.16964,0.59098
1.92856,0.59347
1.68749,0.77750
1.44642,1.10170
1.20535,0.88383
0.96428,0.73719
0.72321,0.66909
0.48214,0.57179
0.24107,0.50209
-0.00000,0.13331
