399.69498,1.71949
399.45391,1.73539
399.21284,1.75031
398.97177,1.75299
398.73070,1.76553
398.48963,1.79850
398.24856,1.80307
398.00749,1.78894
397.76642,1.76142
397.52535,1.72313
397.28428,1.69313
397.04321,1.68752
396.80214,1.70754
396.56107,1.74284
396.32000,1.77148
396.07892,1.76978
395.83785,1.75534
395.59678,1.73621
395.35571,1.68956
395.11464,1.66447
394.87357,1.66047
394.63250,1.66380
394.39143,1.66460
394.15036,1.66193
393.90929,1.66493
393.66822,1.66342
393.42715,1.66433
393.18608,1.69223
392.94501,1.73401
392.70394,1.74722
392.46287,1.72158
392.22180,1.67979
391.98073,1.63767
391.73965,1.61147
391.49858,1.63137
391.25751,1.70596
391.01644,1.77516
390.77537,1.75335
390.53430,1.70829
390.29323,1.67979
390.05216,1.67135
389.81109,1.67588
389.57002,1.68810
389.32895,1.70979
389.08788,1.73349
388.84681,1.76647
388.60574,1.83247
388.36467,1.89026
388.12360,1.90147
387.88253,1.84297
387.64146,1.69199
387.40038,1.55871
387.15931,1.49108
386.91824,1.48836
386.67717,1.52365
386.43610,1.55090
386.19503,1.55557
385.95396,1.56311
385.71289,1.58824
385.47182,1.61339
385.23075,1.60110
384.98968,1.58014
384.74861,1.55804
384.50754,1.54448
384.26647,1.54632
384.02540,1.54664
383.78433,1.54005
383.54326,1.53865
383.30219,1.53963
383.06111,1.51895
382.82004,1.50653
382.57897,1.52007
382.33790,1.49644
382.09683,1.44666
381.85576,1.40128
381.61469,1.36475
381.37362,1.34534
381.13255,1.34921
380.89148,1.37707
380.65041,1.42243
380.40934,1.42004
380.16827,1.42521
379.92720,1.45578
379.68613,1.50347
379.44506,1.54229
379.20399,1.54067
378.96292,1.52262
378.72184,1.51655
378.48077,1.51526
378.23970,1.50233
377.99863,1.46597
377.75756,1.43154
377.51649,1.40801
377.27542,1.40282
377.03435,1.43464
376.79328,1.51968
376.55221,1.62640
376.31114,1.66213
376.07007,1.66096
375.82900,1.67712
375.58793,1.67412
375.34686,1.67324
375.10579,1.67209
374.86472,1.63670
374.62365,1.56535
374.38257,1.54442
374.14150,1.58161
373.90043,1.62231
373.65936,1.61531
373.41829,1.61177
373.17722,1.61431
372.93615,1.62108
372.69508,1.64448
372.45401,1.68081
372.21294,1.69345
371.97187,1.66022
371.73080,1.60781
371.48973,1.56680
371.24866,1.54476
371.00759,1.54087
370.76652,1.54607
370.52545,1.54521
370.28437,1.52930
370.04330,1.50247
369.80223,1.47194
369.56116,1.44924
369.32009,1.43958
369.07902,1.43831
368.83795,1.43981
368.59688,1.44504
368.35581,1.45332
368.11474,1.45156
367.87367,1.42642
367.63260,1.39092
367.39153,1.37166
367.15046,1.37878
366.90939,1.40161
366.66832,1.42260
366.42725,1.43446
366.18618,1.43865
365.94510,1.43284
365.70403,1.41783
365.46296,1.41033
365.22189,1.42092
364.98082,1.43396
364.73975,1.42750
364.49868,1.40387
364.25761,1.38161
364.01654,1.36694
363.77547,1.35164
363.53440,1.33391
363.29333,1.32810
363.05226,1.34389
362.81119,1.36840
362.57012,1.38459
362.32905,1.39540
362.08798,1.40695
361.84691,1.41167
361.60583,1.40014
361.36476,1.37593
361.12369,1.35478
360.88262,1.34269
360.64155,1.33549
360.40048,1.33252
360.15941,1.33175
359.91834,1.32869
359.67727,1.32468
359.43620,1.32498
359.19513,1.32869
358.95406,1.33108
358.71299,1.33481
358.47192,1.34241
358.23085,1.34699
357.98978,1.34487
357.74871,1.33954
357.50764,1.33473
357.26656,1.33227
357.02549,1.32927
356.78442,1.32153
356.54335,1.31413
356.30228,1.32019
356.06121,1.34393
355.82014,1.36741
355.57907,1.36855
355.33800,1.35490
355.09693,1.35073
354.85586,1.35525
354.61479,1.34703
354.37372,1.32489
354.13265,1.31231
353.89158,1.32357
353.65051,1.35063
353.40944,1.37569
353.16837,1.38717
352.92729,1.38667
352.68622,1.37686
352.44515,1.35676
352.20408,1.33407
351.96301,1.32035
351.72194,1.32358
351.48087,1.34100
351.23980,1.35696
350.99873,1.36255
350.75766,1.37093
350.51659,1.39480
350.27552,1.42349
350.03445,1.43711
349.79338,1.43037
349.55231,1.41113
349.31124,1.38861
349.07017,1.36796
348.82910,1.34507
348.58802,1.31938
348.34695,1.30861
348.10588,1.32920
347.86481,1.36668
347.62374,1.38313
347.38267,1.36873
347.14160,1.35700
346.90053,1.37557
346.65946,1.41367
346.41839,1.43842
346.17732,1.43470
345.93625,1.42114
345.69518,1.42373
345.45411,1.44247
345.21304,1.45442
344.97197,1.44593
344.73090,1.43123
344.48983,1.42938
344.24875,1.44355
344.00768,1.47085
343.76661,1.51220
343.52554,1.55446
343.28447,1.56521
343.04340,1.53712
342.80233,1.50160
342.56126,1.48113
342.32019,1.46615
342.07912,1.44161
341.83805,1.41967
341.59698,1.42396
341.35591,1.45926
341.11484,1.50969
340.87377,1.55523
340.63270,1.58375
340.39163,1.60320
340.15056,1.61933
339.90948,1.62536
339.66841,1.60672
339.42734,1.56813
339.18627,1.53191
338.94520,1.51842
338.70413,1.54139
338.46306,1.59907
338.22199,1.65271
337.98092,1.65143
337.73985,1.63359
337.49878,1.65334
337.25771,1.68351
337.01664,1.67045
336.77557,1.66036
336.53450,1.64952
336.29343,1.63148
336.05236,1.58936
335.81129,1.56786
335.57021,1.60003
335.32914,1.64945
335.08807,1.63193
334.84700,1.61782
334.60593,1.58403
334.36486,1.57269
334.12379,1.61431
333.88272,1.66471
333.64165,1.65821
333.40058,1.61379
333.15951,1.59771
332.91844,1.61214
332.67737,1.60614
332.43630,1.56392
332.19523,1.50479
331.95416,1.48209
331.71309,1.50127
331.47202,1.51756
331.23094,1.51720
330.98987,1.50105
330.74880,1.47135
330.50773,1.44678
330.26666,1.44164
330.02559,1.46575
329.78452,1.51632
329.54345,1.56920
329.30238,1.56756
329.06131,1.51478
328.82024,1.48036
328.57917,1.45686
328.33810,1.42302
328.09703,1.39085
327.85596,1.37889
327.61489,1.39373
327.37382,1.42954
327.13275,1.48171
326.89167,1.53126
326.65060,1.53068
326.40953,1.52225
326.16846,1.51640
325.92739,1.53710
325.68632,1.58948
325.44525,1.61466
325.20418,1.56182
324.96311,1.49294
324.72204,1.46141
324.48097,1.41246
324.23990,1.37114
323.99883,1.38556
323.75776,1.43384
323.51669,1.46644
323.27562,1.48847
323.03455,1.54201
322.79348,1.61483
322.55240,1.64644
322.31133,1.60993
322.07026,1.50885
321.82919,1.43892
321.58812,1.46006
321.34705,1.56959
321.10598,1.71824
320.86491,1.78171
320.62384,1.65611
320.38277,1.55413
320.14170,1.49405
319.90063,1.48895
319.65956,1.54355
319.41849,1.55968
319.17742,1.51463
318.93635,1.51701
318.69528,1.55231
318.45421,1.50431
318.21313,1.44748
317.97206,1.43336
317.73099,1.47011
317.48992,1.53407
317.24885,1.58633
317.00778,1.58821
316.76671,1.51416
316.52564,1.45138
316.28457,1.44987
316.04350,1.48047
315.80243,1.48796
315.56136,1.50311
315.32029,1.56804
315.07922,1.65213
314.83815,1.66878
314.59708,1.66008
314.35601,1.63550
314.11494,1.61338
313.87386,1.63603
313.63279,1.69407
313.39172,1.72159
313.15065,1.68732
312.90958,1.62627
312.66851,1.59115
312.42744,1.59060
312.18637,1.58775
311.94530,1.55459
311.70423,1.51116
311.46316,1.49156
311.22209,1.51598
310.98102,1.57042
310.73995,1.60278
310.49888,1.59894
310.25781,1.60668
310.01674,1.62144
309.77567,1.62743
309.53459,1.66007
309.29352,1.72970
309.05245,1.72474
308.81138,1.64537
308.57031,1.58777
308.32924,1.55402
308.08817,1.54234
307.84710,1.55995
307.60603,1.56380
307.36496,1.54283
307.12389,1.53889
306.88282,1.54805
306.64175,1.57887
306.40068,1.62847
306.15961,1.67394
305.91854,1.68171
305.67747,1.60072
305.43640,1.54697
305.19532,1.55432
304.95425,1.59748
304.71318,1.63284
304.47211,1.63107
304.23104,1.58555
303.98997,1.53390
303.74890,1.52079
303.50783,1.55241
303.26676,1.60050
303.02569,1.61294
302.78462,1.57005
302.54355,1.52563
302.30248,1.51109
302.06141,1.52499
301.82034,1.54520
301.57927,1.54617
301.33820,1.52688
301.09713,1.50381
300.85605,1.48937
300.61498,1.48460
300.37391,1.47668
300.13284,1.44591
299.89177,1.39838
299.65070,1.37212
299.40963,1.38610
299.16856,1.41885
298.92749,1.43508
298.68642,1.42352
298.44535,1.40184
298.20428,1.38845
297.96321,1.38724
297.72214,1.38891
297.48107,1.38118
297.24000,1.36639
296.99893,1.35776
296.75786,1.36088
296.51678,1.37052
296.27571,1.37582
296.03464,1.36889
295.79357,1.35344
295.55250,1.33995
295.31143,1.33565
295.07036,1.33876
294.82929,1.33821
294.58822,1.32610
294.34715,1.30997
294.10608,1.30215
293.86501,1.30458
293.62394,1.31140
293.38287,1.31283
293.14180,1.30057
292.90073,1.28019
292.65966,1.26765
292.41859,1.27114
292.17751,1.28210
291.93644,1.28763
291.69537,1.28638
291.45430,1.28529
291.21323,1.28932
290.97216,1.29505
290.73109,1.29090
290.49002,1.27174
290.24895,1.25058
290.00788,1.23954
289.76681,1.23707
289.52574,1.23502
289.28467,1.22836
289.04360,1.22037
288.80253,1.21737
288.56146,1.22072
288.32039,1.22267
288.07932,1.21680
287.83824,1.20848
287.59717,1.20350
287.35610,1.20084
287.11503,1.19794
286.87396,1.19250
286.63289,1.18667
286.39182,1.18762
286.15075,1.19813
285.90968,1.20953
285.66861,1.21082
285.42754,1.20274
285.18647,1.19349
284.94540,1.18730
284.70433,1.18362
284.46326,1.18483
284.22219,1.19427
283.98112,1.20646
283.74005,1.20937
283.49897,1.19739
283.25790,1.18052
283.01683,1.17401
282.77576,1.18076
282.53469,1.19120
282.29362,1.20028
282.05255,1.21291
281.81148,1.22879
281.57041,1.23772
281.32934,1.23507
281.08827,1.22729
280.84720,1.21834
280.60613,1.20563
280.36506,1.19046
280.12399,1.18157
279.88292,1.18546
279.64185,1.19864
279.40078,1.21002
279.15970,1.21191
278.91863,1.20425
278.67756,1.19231
278.43649,1.18544
278.19542,1.18656
277.95435,1.18807
277.71328,1.18541
277.47221,1.18531
277.23114,1.19463
276.99007,1.20825
276.74900,1.21440
276.50793,1.20936
276.26686,1.19921
276.02579,1.19049
275.78472,1.18590
275.54365,1.18433
275.30258,1.18433
275.06151,1.18538
274.82043,1.18672
274.57936,1.18896
274.33829,1.19458
274.09722,1.20419
273.85615,1.21415
273.61508,1.22036
273.37401,1.22192
273.13294,1.22101
272.89187,1.22200
272.65080,1.22842
272.40973,1.23785
272.16866,1.24242
271.92759,1.23979
271.68652,1.23603
271.44545,1.23572
271.20438,1.23671
270.96331,1.23523
270.72224,1.23258
270.48116,1.23182
270.24009,1.23242
269.99902,1.23155
269.75795,1.23016
269.51688,1.23431
269.27581,1.24930
269.03474,1.27308
268.79367,1.29468
268.55260,1.30220
268.31153,1.29403
268.07046,1.28111
267.82939,1.27624
267.58832,1.28376
267.34725,1.29894
267.10618,1.31364
266.86511,1.32260
266.62404,1.32523
266.38297,1.32590
266.14189,1.33210
265.90082,1.34676
265.65975,1.36419
265.41868,1.37644
265.17761,1.38037
264.93654,1.37953
264.69547,1.38323
264.45440,1.39990
264.21333,1.42610
263.97226,1.44576
263.73119,1.44759
263.49012,1.43712
263.24905,1.42676
263.00798,1.42477
262.76691,1.43590
262.52584,1.46284
262.28477,1.50231
262.04370,1.54107
261.80262,1.56482
261.56155,1.57508
261.32048,1.58952
261.07941,1.61998
260.83834,1.65438
260.59727,1.67453
260.35620,1.68766
260.11513,1.71545
259.87406,1.76368
259.63299,1.82490
259.39192,1.88125
259.15085,1.89617
258.90978,1.88277
258.66871,1.88067
258.42764,1.89838
258.18657,1.94958
257.94550,2.00754
257.70443,1.93048
257.46335,1.82666
257.22228,1.75962
256.98121,1.72957
256.74014,1.73613
256.49907,1.76850
256.25800,1.80321
256.01693,1.82923
255.77586,1.85184
255.53479,1.85585
255.29372,1.83140
255.05265,1.81167
254.81158,1.82500
254.57051,1.86949
254.32944,1.90858
254.08837,1.88809
253.84730,1.86130
253.60623,1.86505
253.36516,1.87429
253.12408,1.86810
252.88301,1.85799
252.64194,1.86235
252.40087,1.85374
252.15980,1.82505
251.91873,1.78143
251.67766,1.74399
251.43659,1.74802
251.19552,1.76943
250.95445,1.77556
250.71338,1.75733
250.47231,1.73637
250.23124,1.74398
249.99017,1.78505
249.74910,1.82965
249.50803,1.84409
249.26696,1.84409
249.02589,1.85414
248.78481,1.79142
248.54374,1.71424
248.30267,1.65973
248.06160,1.62168
247.82053,1.61234
247.57946,1.63821
247.33839,1.68122
247.09732,1.71891
246.85625,1.73616
246.61518,1.72404
246.37411,1.69387
246.13304,1.67159
245.89197,1.66873
245.65090,1.67471
245.40983,1.68409
245.16876,1.71058
244.92769,1.76350
244.68661,1.83691
244.44554,1.93097
244.20447,2.01273
243.96340,1.99666
243.72233,1.98871
243.48126,1.97774
243.24019,1.94917
242.99912,1.94183
242.75805,1.95883
242.51698,1.95900
242.27591,1.91869
242.03484,1.83932
241.79377,1.74299
241.55270,1.64363
241.31163,1.54765
241.07056,1.45291
240.82949,1.36653
240.58842,1.29776
240.34734,1.24688
240.10627,1.20723
239.86520,1.17230
239.62413,1.14218
239.38306,1.11937
239.14199,1.10018
238.90092,1.07779
238.65985,1.05169
238.41878,1.03057
238.17771,1.02344
237.93664,1.02775
237.69557,1.02787
237.45450,1.01029
237.21343,0.98103
236.97236,0.95651
236.73129,0.94205
236.49022,0.92980
236.24915,0.91333
236.00807,0.89646
235.76700,0.88612
235.52593,0.88206
235.28486,0.87889
235.04379,0.87601
234.80272,0.87721
234.56165,0.88175
234.32058,0.88457
234.07951,0.88559
233.83844,0.88801
233.59737,0.88855
233.35630,0.88043
233.11523,0.86717
232.87416,0.85908
232.63309,0.85571
232.39202,0.84787
232.15095,0.83397
231.90988,0.82162
231.66880,0.81628
231.42773,0.81837
231.18666,0.82745
230.94559,0.84103
230.70452,0.85216
230.46345,0.85529
230.22238,0.85205
229.98131,0.84573
229.74024,0.83661
229.49917,0.82606
229.25810,0.81729
229.01703,0.81217
228.77596,0.81101
228.53489,0.81356
228.29382,0.81835
228.05275,0.82274
227.81168,0.82525
227.57061,0.82710
227.32953,0.82954
227.08846,0.83197
226.84739,0.83469
226.60632,0.83738
226.36525,0.83436
226.12418,0.82208
225.88311,0.80781
225.64204,0.80059
225.40097,0.80149
225.15990,0.80742
224.91883,0.81743
224.67776,0.82991
224.43669,0.84104
224.19562,0.84960
223.95455,0.85689
223.71348,0.86165
223.47241,0.86060
223.23134,0.85346
222.99026,0.84499
222.74919,0.84312
222.50812,0.85224
222.26705,0.86868
222.02598,0.88730
221.78491,0.90824
221.54384,0.92908
221.30277,0.93841
221.06170,0.93071
220.82063,0.91603
220.57956,0.90490
220.33849,0.90078
220.09742,0.90559
219.85635,0.92088
219.61528,0.94411
219.37421,0.96973
219.13314,0.99359
218.89207,1.01244
218.65099,1.02230
218.40992,1.02284
218.16885,1.02009
217.92778,1.02204
217.68671,1.03464
217.44564,1.06035
217.20457,1.09665
216.96350,1.13659
216.72243,1.17089
216.48136,1.18758
216.24029,1.17868
215.99922,1.15469
215.75815,1.13642
215.51708,1.13820
215.27601,1.16552
215.03494,1.21957
214.79387,1.29066
214.55280,1.33444
214.31172,1.31112
214.07065,1.26644
213.82958,1.24100
213.58851,1.23984
213.34744,1.26389
213.10637,1.30728
212.86530,1.34542
212.62423,1.35489
212.38316,1.34121
212.14209,1.31959
211.90102,1.29982
211.65995,1.29446
211.41888,1.31674
211.17781,1.36360
210.93674,1.39805
210.69567,1.37852
210.45460,1.32854
210.21353,1.29543
209.97245,1.29364
209.73138,1.31734
209.49031,1.35650
209.24924,1.39138
209.00817,1.39473
208.76710,1.37454
208.52603,1.36391
208.28496,1.37119
208.04389,1.38409
207.80282,1.38966
207.56175,1.38106
207.32068,1.35725
207.07961,1.32539
206.83854,1.29829
206.59747,1.28529
206.35640,1.28155
206.11533,1.26698
205.87426,1.23413
205.63318,1.20175
205.39211,1.18874
205.15104,1.20001
204.90997,1.22207
204.66890,1.22527
204.42783,1.19203
204.18676,1.14203
203.94569,1.10132
203.70462,1.08146
203.46355,1.08183
203.22248,1.09163
202.98141,1.09349
202.74034,1.07873
202.49927,1.05553
202.25820,1.03656
202.01713,1.02901
201.77606,1.02412
201.53499,1.00096
201.29391,0.96045
201.05284,0.92251
200.81177,0.89762
200.57070,0.88546
200.32963,0.87997
200.08856,0.87352
199.84749,0.86266
199.60642,0.84952
199.36535,0.83878
199.12428,0.83360
198.88321,0.83180
198.64214,0.82597
198.40107,0.81333
198.16000,0.80256
197.91893,0.80260
197.67786,0.80836
197.43679,0.80381
197.19572,0.78328
196.95464,0.75950
196.71357,0.74503
196.47250,0.73977
196.23143,0.73564
195.99036,0.72556
195.74929,0.70973
195.50822,0.69510
195.26715,0.68809
195.02608,0.68711
194.78501,0.68192
194.54394,0.66611
194.30287,0.64777
194.06180,0.63929
193.82073,0.64345
193.57966,0.65070
193.33859,0.65040
193.09752,0.64412
192.85645,0.63986
192.61537,0.64107
192.37430,0.64314
192.13323,0.63913
191.89216,0.63261
191.65109,0.63358
191.41002,0.64236
191.16895,0.64533
190.92788,0.63208
190.68681,0.61345
190.44574,0.60567
190.20467,0.60933
189.96360,0.61171
189.72253,0.60662
189.48146,0.60259
189.24039,0.60606
188.99932,0.61062
188.75825,0.60693
188.51718,0.59916
188.27610,0.59847
188.03503,0.60421
187.79396,0.60522
187.55289,0.59907
187.31182,0.59434
187.07075,0.59356
186.82968,0.59072
186.58861,0.58614
186.34754,0.58764
186.10647,0.59388
185.86540,0.59478
185.62433,0.58931
185.38326,0.58612
185.14219,0.58761
184.90112,0.58866
184.66005,0.58765
184.41898,0.58741
184.17791,0.58890
183.93683,0.59156
183.69576,0.59645
183.45469,0.60378
183.21362,0.61043
182.97255,0.61419
182.73148,0.61678
182.49041,0.61877
182.24934,0.61740
182.00827,0.61327
181.76720,0.61091
181.52613,0.61067
181.28506,0.60962
181.04399,0.60884
180.80292,0.61105
180.56185,0.61586
180.32078,0.62309
180.07971,0.63294
179.83864,0.64149
179.59756,0.64608
179.35649,0.65168
179.11542,0.66180
178.87435,0.67137
178.63328,0.67677
178.39221,0.68252
178.15114,0.69230
177.91007,0.70426
177.66900,0.71533
177.42793,0.72419
177.18686,0.73175
176.94579,0.73905
176.70472,0.74499
176.46365,0.75042
176.22258,0.76121
175.98151,0.78154
175.74044,0.80929
175.49937,0.84332
175.25829,0.88665
175.01722,0.93469
174.77615,0.96916
174.53508,0.98001
174.29401,0.98085
174.05294,0.98409
173.81187,0.98781
173.57080,0.98763
173.32973,0.98664
173.08866,0.99159
172.84759,1.00583
172.60652,1.02668
172.36545,1.04763
172.12438,1.06465
171.88331,1.08077
171.64224,1.09935
171.40117,1.11410
171.16010,1.11477
170.91902,1.09920
170.67795,1.07400
170.43688,1.04787
170.19581,1.02592
169.95474,1.01091
169.71367,1.00687
169.47260,1.01570
169.23153,1.03231
168.99046,1.04709
168.74939,1.05561
168.50832,1.05907
168.26725,1.05357
168.02618,1.03443
167.78511,1.00781
167.54404,0.98371
167.30297,0.96829
167.06190,0.96528
166.82083,0.97645
166.57975,0.99889
166.33868,1.02512
166.09761,1.04729
165.85654,1.05993
165.61547,1.06127
165.37440,1.05462
165.13333,1.04607
164.89226,1.04151
164.65119,1.04512
164.41012,1.05978
164.16905,1.08741
163.92798,1.12583
163.68691,1.16586
163.44584,1.19072
163.20477,1.18439
162.96370,1.15367
162.72263,1.12369
162.48156,1.11458
162.24048,1.13291
161.99941,1.17147
161.75834,1.21580
161.51727,1.24402
161.27620,1.22911
161.03513,1.17875
160.79406,1.13021
160.55299,1.10345
160.31192,1.10066
160.07085,1.12017
159.82978,1.16078
159.58871,1.21197
159.34764,1.24239
159.10657,1.22592
158.86550,1.18145
158.62443,1.14541
158.38336,1.13718
158.14229,1.15463
157.90121,1.17904
157.66014,1.18271
157.41907,1.15179
157.17800,1.10645
156.93693,1.07410
156.69586,1.06701
156.45479,1.08369
156.21372,1.10915
155.97265,1.11837
155.73158,1.09902
155.49051,1.06564
155.24944,1.03887
155.00837,1.02837
154.76730,1.03037
154.52623,1.02925
154.28516,1.01121
154.04409,0.98278
153.80302,0.96111
153.56194,0.95371
153.32087,0.95279
153.07980,0.94060
152.83873,0.91036
152.59766,0.87692
152.35659,0.85548
152.11552,0.84655
151.87445,0.83960
151.63338,0.82374
151.39231,0.79639
151.15124,0.76549
150.91017,0.74213
150.66910,0.72995
150.42803,0.72335
150.18696,0.71279
149.94589,0.69241
149.70482,0.66654
149.46375,0.64603
149.22267,0.63713
148.98160,0.63605
148.74053,0.63369
148.49946,0.62541
148.25839,0.61468
148.01732,0.60751
147.77625,0.60607
147.53518,0.60703
147.29411,0.60569
147.05304,0.60285
146.81197,0.60444
146.57090,0.61195
146.32983,0.61845
146.08876,0.61658
145.84769,0.60849
145.60662,0.60450
145.36555,0.61161
145.12448,0.62649
144.88340,0.63842
144.64233,0.64072
144.40126,0.63977
144.16019,0.64572
143.91912,0.65805
143.67805,0.66497
143.43698,0.65962
143.19591,0.65014
142.95484,0.64563
142.71377,0.64325
142.47270,0.63366
142.23163,0.61559
141.99056,0.59852
141.74949,0.58848
141.50842,0.58087
141.26735,0.57102
141.02628,0.56290
140.78521,0.56096
140.54413,0.56274
140.30306,0.56421
140.06199,0.56615
139.82092,0.57009
139.57985,0.57395
139.33878,0.57586
139.09771,0.57740
138.85664,0.58035
138.61557,0.58538
138.37450,0.59417
138.13343,0.60792
137.89236,0.62306
137.65129,0.63458
137.41022,0.64445
137.16915,0.65952
136.92808,0.68141
136.68701,0.70644
136.44594,0.73250
136.20486,0.75873
135.96379,0.78371
135.72272,0.80987
135.48165,0.84105
135.24058,0.87423
134.99951,0.90323
134.75844,0.92872
134.51737,0.95478
134.27630,0.98184
134.03523,1.00828
133.79416,1.03287
133.55309,1.05503
133.31202,1.08020
133.07095,1.11912
132.82988,1.17217
132.58881,1.22497
132.34774,1.26414
132.10667,1.28699
131.86559,1.29399
131.62452,1.28163
131.38345,1.24747
131.14238,1.19919
130.90131,1.15257
130.66024,1.11641
130.41917,1.08648
130.17810,1.05550
129.93703,1.02242
129.69596,0.98810
129.45489,0.94968
129.21382,0.90480
128.97275,0.85635
128.73168,0.80954
128.49061,0.76737
128.24954,0.73144
128.00847,0.70358
127.76740,0.68430
127.52632,0.67110
127.28525,0.65982
127.04418,0.64744
126.80311,0.63277
126.56204,0.61600
126.32097,0.59873
126.07990,0.58342
125.83883,0.57149
125.59776,0.56186
125.35669,0.55216
125.11562,0.54056
124.87455,0.52546
124.63348,0.50638
124.39241,0.48623
124.15134,0.46952
123.91027,0.45805
123.66920,0.45099
123.42812,0.44828
123.18705,0.45038
122.94598,0.45551
122.70491,0.46074
122.46384,0.46539
122.22277,0.47027
121.98170,0.47494
121.74063,0.47894
121.49956,0.48382
121.25849,0.49042
121.01742,0.49621
120.77635,0.49941
120.53528,0.50288
120.29421,0.50995
120.05314,0.52014
119.81207,0.53244
119.57100,0.54913
119.32993,0.57370
119.08885,0.60777
118.84778,0.64933
118.60671,0.69338
118.36564,0.73567
118.12457,0.77494
117.88350,0.81157
117.64243,0.84179
117.40136,0.85346
117.16029,0.84000
116.91922,0.81514
116.67815,0.79698
116.43708,0.78931
116.19601,0.78674
115.95494,0.78739
115.71387,0.79250
115.47280,0.79870
115.23173,0.80002
114.99066,0.79651
114.74958,0.79255
114.50851,0.78695
114.26744,0.77261
114.02637,0.74700
113.78530,0.71480
113.54423,0.68294
113.30316,0.65753
113.06209,0.64247
112.82102,0.64040
112.57995,0.65355
112.33888,0.67996
112.09781,0.71256
111.85674,0.74629
111.61567,0.77962
111.37460,0.80337
111.13353,0.80123
110.89246,0.77370
110.65139,0.74082
110.41031,0.71986
110.16924,0.71732
109.92817,0.73325
109.68710,0.76397
109.44603,0.80125
109.20496,0.82189
108.96389,0.78684
108.72282,0.70992
108.48175,0.63730
108.24068,0.58566
107.99961,0.55576
107.75854,0.54607
107.51747,0.55728
107.27640,0.58390
107.03533,0.59266
106.79426,0.55210
106.55319,0.49247
106.31212,0.44703
106.07104,0.42468
105.82997,0.42397
105.58890,0.43857
105.34783,0.45441
105.10676,0.44869
104.86569,0.41500
104.62462,0.37752
104.38355,0.35743
104.14248,0.35863
103.90141,0.37234
103.66034,0.38135
103.41927,0.37186
103.17820,0.34851
102.93713,0.32765
102.69606,0.32089
102.45499,0.32802
102.21392,0.33706
101.97285,0.33424
101.73177,0.32080
101.49070,0.31044
101.24963,0.31210
101.00856,0.32329
100.76749,0.33147
100.52642,0.32303
100.28535,0.29975
100.04428,0.27903
99.80321,0.27467
99.56214,0.28594
99.32107,0.29939
99.08000,0.29848
98.83893,0.28205
98.59786,0.26574
98.35679,0.26348
98.11572,0.27674
97.87465,0.29030
97.63358,0.28629
97.39250,0.27153
97.15143,0.26714
96.91036,0.28104
96.66929,0.29869
96.42822,0.29837
96.18715,0.28558
95.94608,0.28627
95.70501,0.31135
95.46394,0.34033
95.22287,0.34363
94.98180,0.33527
94.74073,0.34591
94.49966,0.37381
94.25859,0.38578
94.01752,0.36914
93.77645,0.35636
93.53538,0.36549
93.29431,0.37987
93.05323,0.38130
92.81216,0.38188
92.57109,0.39297
92.33002,0.40017
92.08895,0.39285
91.84788,0.38839
91.60681,0.39734
91.36574,0.40745
91.12467,0.41561
90.88360,0.43607
90.64253,0.46898
90.40146,0.50298
90.16039,0.54143
89.91932,0.58804
89.67825,0.63270
89.43718,0.67628
89.19611,0.71693
88.95504,0.73660
88.71396,0.74271
88.47289,0.74953
88.23182,0.74375
87.99075,0.71902
87.74968,0.69036
87.50861,0.66145
87.26754,0.62314
87.02647,0.57627
86.78540,0.53080
86.54433,0.48986
86.30326,0.45041
86.06219,0.41288
85.82112,0.37951
85.58005,0.35073
85.33898,0.32591
85.09791,0.30376
84.85684,0.28410
84.61577,0.26808
84.37469,0.25489
84.13362,0.24157
83.89255,0.22788
83.65148,0.21791
83.41041,0.21434
83.16934,0.21444
82.92827,0.21446
82.68720,0.21414
82.44613,0.21407
82.20506,0.21344
81.96399,0.21289
81.72292,0.21448
81.48185,0.21781
81.24078,0.22062
80.99971,0.22250
80.75864,0.22409
80.51757,0.22427
80.27650,0.22216
80.03542,0.22004
79.79435,0.22084
79.55328,0.22357
79.31221,0.22336
79.07114,0.21677
78.83007,0.20638
78.58900,0.19819
78.34793,0.19532
78.10686,0.19619
77.86579,0.19740
77.62472,0.19606
77.38365,0.19004
77.14258,0.18005
76.90151,0.17043
76.66044,0.16649
76.41937,0.17153
76.17830,0.18437
75.93723,0.19772
75.69615,0.20082
75.45508,0.18893
75.21401,0.16897
74.97294,0.15145
74.73187,0.14233
74.49080,0.14330
74.24973,0.15402
74.00866,0.17081
73.76759,0.18572
73.52652,0.19143
73.28545,0.18869
73.04438,0.18574
72.80331,0.18924
72.56224,0.19762
72.32117,0.20293
72.08010,0.19944
71.83903,0.18983
71.59796,0.18061
71.35688,0.17507
71.11581,0.17300
70.87474,0.17428
70.63367,0.18241
70.39260,0.20412
70.15153,0.24299
69.91046,0.29459
69.66939,0.34940
69.42832,0.39249
69.18725,0.40248
68.94618,0.37589
68.70511,0.33250
68.46404,0.28831
68.22297,0.24764
67.98190,0.21119
67.74083,0.18182
67.49976,0.16147
67.25869,0.14756
67.01761,0.13584
66.77654,0.12522
66.53547,0.11810
66.29440,0.11771
66.05333,0.12524
65.81226,0.13986
65.57119,0.16091
65.33012,0.18884
65.08905,0.22345
64.84798,0.26104
64.60691,0.29376
64.36584,0.31300
64.12477,0.31545
63.88370,0.30334
63.64263,0.28071
63.40156,0.25450
63.16049,0.22959
62.91942,0.20402
62.67834,0.17380
62.43727,0.14061
62.19620,0.11240
61.95513,0.09577
61.71406,0.08937
61.47299,0.08688
61.23192,0.08559
60.99085,0.08938
60.74978,0.10327
60.50871,0.12841
60.26764,0.16250
60.02657,0.20283
59.78550,0.24808
59.54443,0.29211
59.30336,0.31102
59.06229,0.28272
58.82122,0.22523
58.58015,0.16784
58.33907,0.12738
58.09800,0.10649
57.85693,0.09957
57.61586,0.10293
57.37479,0.11771
57.13372,0.14566
56.89265,0.18876
56.65158,0.25777
56.41051,0.34441
56.16944,0.32813
55.92837,0.23129
55.68730,0.15235
55.44623,0.09918
55.20516,0.06661
54.96409,0.05294
54.72302,0.05957
54.48195,0.09461
54.24088,0.18291
53.99980,0.32631
53.75873,0.31796
53.51766,0.16334
53.27659,0.06581
53.03552,0.02923
52.79445,0.03603
52.55338,0.08406
52.31231,0.19235
52.07124,0.34005
51.83017,0.27370
51.58910,0.13301
51.34803,0.06712
51.10696,0.07199
50.86589,0.13977
50.62482,0.24237
50.38375,0.24377
50.14268,0.14519
49.90161,0.08120
49.66053,0.08519
49.41946,0.17494
49.17839,0.29855
48.93732,0.21456
48.69625,0.11101
48.45518,0.09609
48.21411,0.18183
47.97304,0.31794
47.73197,0.20282
47.49090,0.07619
47.24983,0.06650
47.00876,0.15477
46.76769,0.20354
46.52662,0.12143
46.28555,0.09545
46.04448,0.14377
45.80341,0.16089
45.56234,0.11645
45.32126,0.09962
45.08019,0.11768
44.83912,0.12907
44.59805,0.14196
44.35698,0.17701
44.11591,0.19796
43.87484,0.18172
43.63377,0.16319
43.39270,0.16091
43.15163,0.17234
42.91056,0.19435
42.66949,0.20570
42.42842,0.18670
42.18735,0.16001
41.94628,0.15035
41.70521,0.15734
41.46414,0.17034
41.22307,0.17881
40.98199,0.17312
40.74092,0.15760
40.49985,0.14790
40.25878,0.15313
40.01771,0.16815
39.77664,0.17819
39.53557,0.17646
39.29450,0.17320
39.05343,0.17803
38.81236,0.18882
38.57129,0.20360
38.33022,0.22603
38.08915,0.25356
37.84808,0.27230
37.60701,0.27009
37.36594,0.25421
37.12487,0.24222
36.88380,0.23105
36.64272,0.20502
36.40165,0.17729
36.16058,0.17677
35.91951,0.20256
35.67844,0.22759
35.43737,0.23870
35.19630,0.24129
34.95523,0.23820
34.71416,0.22794
34.47309,0.21560
34.23202,0.20918
33.99095,0.21168
33.74988,0.22019
33.50881,0.22727
33.26774,0.23306
33.02667,0.24773
32.78560,0.26673
32.54453,0.27651
32.30345,0.27542
32.06238,0.27122
31.82131,0.26098
31.58024,0.22783
31.33917,0.17224
31.09810,0.12317
30.85703,0.10173
30.61596,0.10634
30.37489,0.12396
30.13382,0.13644
29.89275,0.13220
29.65168,0.12000
29.41061,0.12121
29.16954,0.14823
28.92847,0.19442
28.68740,0.23394
28.44633,0.23621
28.20526,0.20250
27.96418,0.17321
27.72311,0.16773
27.48204,0.16181
27.24097,0.12712
26.99990,0.06833
26.75883,0.02262
26.51776,0.01832
26.27669,0.03809
26.03562,0.03739
25.79455,0.00177
25.55348,-0.04331
25.31241,-0.06560
25.07134,-0.05645
24.83027,-0.03873
24.58920,-0.04132
24.34813,-0.07549
24.10706,-0.12057
23.86599,-0.14409
23.62491,-0.15230
23.38384,-0.15927
23.14277,-0.13873
22.90170,-0.07018
22.66063,0.01256
22.41956,0.05091
22.17849,0.03973
21.93742,0.03200
21.69635,0.05172
21.45528,0.06657
21.21421,0.06122
20.97314,0.04813
20.73207,0.03156
20.49100,0.02390
20.24993,0.02863
20.00886,0.02421
19.76779,-0.00873
19.52672,-0.06472
19.28564,-0.12397
19.04457,-0.16289
18.80350,-0.17739
18.56243,-0.19530
18.32136,-0.23557
18.08029,-0.28349
17.83922,-0.31167
17.59815,-0.28014
17.35708,-0.23345
17.11601,-0.21760
16.87494,-0.21976
16.63387,-0.19593
16.39280,-0.12751
16.15173,-0.09516
15.91066,-0.13390
15.66959,-0.16460
15.42852,-0.16443
15.18745,-0.14081
14.94637,-0.09589
14.70530,-0.06080
14.46423,-0.05866
14.22316,-0.06762
13.98209,-0.05559
13.74102,-0.02049
13.49995,0.00946
13.25888,0.00454
13.01781,-0.02820
12.77674,-0.04063
12.53567,-0.01201
12.29460,0.01886
12.05353,0.01604
11.81246,-0.01608
11.57139,-0.04556
11.33032,-0.04898
11.08925,-0.03528
10.84818,-0.03945
10.60710,-0.08424
10.36603,-0.13349
10.12496,-0.11434
9.88389,-0.03882
9.64282,0.01832
9.40175,0.01885
9.16068,-0.00895
8.91961,-0.04274
8.67854,-0.05932
8.43747,-0.07340
8.19640,-0.08098
7.95533,-0.09237
7.71426,-0.11839
7.47319,-0.12351
7.23212,-0.09622
6.99105,-0.04979
6.74998,-0.00429
6.50891,0.03382
6.26783,0.04117
6.02676,-0.01156
5.78569,-0.08375
5.54462,-0.13240
5.30355,-0.14960
5.06248,-0.14682
4.82141,-0.14210
4.58034,-0.13680
4.33927,-0.12085
4.09820,-0.09941
3.85713,-0.07196
3.61606,-0.05505
3.37499,-0.04436
3.13392,-0.03448
2.89285,-0.04399
2.65178,-0.07947
2.41071,-0.13160
2.16964,-0.18073
1.92856,-0.19278
1.68749,-0.16266
1.44642,-0.10788
1.20535,-0.05205
0.96428,-0.04170
0.72321,-0.08087
0.48214,-0.16661
0.24107,-0.23347
-0.00000,-0.19324
