399.69498,1.51141
399.45391,1.51097
399.21284,1.50709
398.97177,1.49697
398.73070,1.48052
398.48963,1.46615
398.24856,1.46012
398.00749,1.45956
397.76642,1.46012
397.52535,1.46285
397.28428,1.47035
397.04321,1.48032
396.80214,1.48564
396.56107,1.48128
396.32000,1.47027
396.07892,1.46118
395.83785,1.46033
395.59678,1.46696
395.35571,1.47643
395.11464,1.48572
394.87357,1.49255
394.63250,1.49532
394.39143,1.49413
394.15036,1.48809
393.90929,1.47588
393.66822,1.45868
393.42715,1.44143
393.18608,1.42804
392.94501,1.41916
392.70394,1.41471
392.46287,1.41553
392.22180,1.42198
391.98073,1.43063
391.73965,1.43474
391.49858,1.43074
391.25751,1.42151
391.01644,1.41227
390.77537,1.40729
390.53430,1.40977
390.29323,1.41963
390.05216,1.43117
389.81109,1.43514
389.57002,1.42694
389.32895,1.41301
389.08788,1.40269
388.84681,1.39818
388.60574,1.39562
388.36467,1.39260
388.12360,1.39095
387.88253,1.39178
387.64146,1.39224
387.40038,1.38894
387.15931,1.38435
386.91824,1.38361
386.67717,1.38625
386.43610,1.38723
386.19503,1.38197
385.95396,1.37035
385.71289,1.35685
385.47182,1.34488
385.23075,1.33473
384.98968,1.32581
384.74861,1.31637
384.50754,1.30332
384.26647,1.28545
384.02540,1.26741
383.78433,1.25632
383.54326,1.25238
383.30219,1.24907
383.06111,1.24062
382.82004,1.22696
382.57897,1.21283
382.33790,1.20397
382.09683,1.20309
381.85576,1.20657
381.61469,1.20910
381.37362,1.21004
381.13255,1.21083
380.89148,1.21039
380.65041,1.20754
380.40934,1.20240
380.16827,1.19433
379.92720,1.18389
379.68613,1.17607
379.44506,1.17788
379.20399,1.19021
378.96292,1.20523
378.72184,1.21735
378.48077,1.23084
378.23970,1.25022
377.99863,1.27084
377.75756,1.28414
377.51649,1.28641
377.27542,1.28202
377.03435,1.28001
376.79328,1.28419
376.55221,1.28879
376.31114,1.28744
376.07007,1.28271
375.82900,1.28034
375.58793,1.28088
375.34686,1.28217
375.10579,1.28575
374.86472,1.29569
374.62365,1.31165
374.38257,1.32779
374.14150,1.33860
373.90043,1.34383
373.65936,1.34748
373.41829,1.35394
373.17722,1.36421
372.93615,1.37376
372.69508,1.37557
372.45401,1.36861
372.21294,1.36037
371.97187,1.35649
371.73080,1.35439
371.48973,1.35046
371.24866,1.34622
371.00759,1.34539
370.76652,1.34948
370.52545,1.35537
370.28437,1.35694
370.04330,1.35086
369.80223,1.34076
369.56116,1.33321
369.32009,1.33097
369.07902,1.33202
368.83795,1.33272
368.59688,1.33018
368.35581,1.32475
368.11474,1.31985
367.87367,1.31654
367.63260,1.31236
367.39153,1.30667
367.15046,1.30157
366.90939,1.29823
366.66832,1.29635
366.42725,1.29560
366.18618,1.29534
365.94510,1.29466
365.70403,1.29426
365.46296,1.29585
365.22189,1.29889
364.98082,1.30071
364.73975,1.29880
364.49868,1.29079
364.25761,1.27667
364.01654,1.26233
363.77547,1.25529
363.53440,1.25676
363.29333,1.26261
363.05226,1.27110
362.81119,1.28167
362.57012,1.28896
362.32905,1.28689
362.08798,1.27587
361.84691,1.26174
361.60583,1.25029
361.36476,1.24478
361.12369,1.24570
360.88262,1.24982
360.64155,1.25190
360.40048,1.25034
360.15941,1.24792
359.91834,1.24529
359.67727,1.23906
359.43620,1.22927
359.19513,1.22176
358.95406,1.22063
358.71299,1.22445
358.47192,1.23022
358.23085,1.23557
357.98978,1.23781
357.74871,1.23463
357.50764,1.22688
357.26656,1.21876
357.02549,1.21431
356.78442,1.21428
356.54335,1.21699
356.30228,1.22185
356.06121,1.22927
355.82014,1.23503
355.57907,1.23100
355.33800,1.21646
355.09693,1.20147
354.85586,1.19559
354.61479,1.19914
354.37372,1.20644
354.13265,1.21384
353.89158,1.22135
353.65051,1.22802
353.40944,1.23079
353.16837,1.22920
352.92729,1.22684
352.68622,1.22595
352.44515,1.22497
352.20408,1.22248
351.96301,1.21927
351.72194,1.21559
351.48087,1.20987
351.23980,1.20250
350.99873,1.19718
350.75766,1.19623
350.51659,1.19639
350.27552,1.19327
350.03445,1.18906
349.79338,1.18956
349.55231,1.19473
349.31124,1.19886
349.07017,1.19983
348.82910,1.20239
348.58802,1.21068
348.34695,1.22218
348.10588,1.23056
347.86481,1.23280
347.62374,1.23195
347.38267,1.23267
347.14160,1.23563
346.90053,1.23687
346.65946,1.23284
346.41839,1.22491
346.17732,1.21713
345.93625,1.21201
345.69518,1.20935
345.45411,1.20772
345.21304,1.20715
344.97197,1.20990
344.73090,1.21782
344.48983,1.22924
344.24875,1.23916
344.00768,1.24557
343.76661,1.25102
343.52554,1.25620
343.28447,1.25892
343.04340,1.25914
342.80233,1.25953
342.56126,1.26133
342.32019,1.26276
342.07912,1.26165
341.83805,1.25925
341.59698,1.25982
341.35591,1.26544
341.11484,1.27473
340.87377,1.28664
340.63270,1.29966
340.39163,1.30868
340.15056,1.30892
339.90948,1.30279
339.66841,1.29713
339.42734,1.29571
339.18627,1.29841
338.94520,1.30388
338.70413,1.31090
338.46306,1.31885
338.22199,1.32690
337.98092,1.33340
337.73985,1.33770
337.49878,1.34117
337.25771,1.34495
337.01664,1.34733
336.77557,1.34455
336.53450,1.33650
336.29343,1.32896
336.05236,1.32848
335.81129,1.33527
335.57021,1.34185
335.32914,1.34055
335.08807,1.32873
334.84700,1.30836
334.60593,1.28715
334.36486,1.27638
334.12379,1.28306
333.88272,1.30320
333.64165,1.32187
333.40058,1.32378
333.15951,1.30838
332.91844,1.28891
332.67737,1.27655
332.43630,1.27272
332.19523,1.27305
331.95416,1.27233
331.71309,1.26625
331.47202,1.25399
331.23094,1.24163
330.98987,1.23836
330.74880,1.24637
330.50773,1.25603
330.26666,1.25521
330.02559,1.24393
329.78452,1.23263
329.54345,1.22807
329.30238,1.22924
329.06131,1.23367
328.82024,1.24027
328.57917,1.24636
328.33810,1.24682
328.09703,1.23784
327.85596,1.22221
327.61489,1.20851
327.37382,1.20350
327.13275,1.20765
326.89167,1.21618
326.65060,1.22355
326.40953,1.22646
326.16846,1.22432
325.92739,1.21844
325.68632,1.20944
325.44525,1.19723
325.20418,1.18532
324.96311,1.18104
324.72204,1.18741
324.48097,1.19897
324.23990,1.20870
323.99883,1.21689
323.75776,1.22632
323.51669,1.23239
323.27562,1.22734
323.03455,1.21165
322.79348,1.19488
322.55240,1.18656
322.31133,1.19012
322.07026,1.20329
321.82919,1.22075
321.58812,1.23490
321.34705,1.23750
321.10598,1.22663
320.86491,1.21005
320.62384,1.19812
320.38277,1.19637
320.14170,1.20463
319.90063,1.21853
319.65956,1.23010
319.41849,1.23210
319.17742,1.22418
318.93635,1.21196
318.69528,1.20202
318.45421,1.20018
318.21313,1.21023
317.97206,1.22933
317.73099,1.24489
317.48992,1.24375
317.24885,1.22915
317.00778,1.21852
316.76671,1.22183
316.52564,1.23257
316.28457,1.23892
316.04350,1.23659
315.80243,1.22841
315.56136,1.21971
315.32029,1.21707
315.07922,1.22456
314.83815,1.23911
314.59708,1.25280
314.35601,1.25981
314.11494,1.25969
313.87386,1.25574
313.63279,1.25341
313.39172,1.25762
313.15065,1.26684
312.90958,1.27504
312.66851,1.28181
312.42744,1.28880
312.18637,1.29008
311.94530,1.28095
311.70423,1.27077
311.46316,1.27152
311.22209,1.27895
310.98102,1.27900
310.73995,1.26988
310.49888,1.26214
310.25781,1.26021
310.01674,1.26080
309.77567,1.26431
309.53459,1.27297
309.29352,1.28478
309.05245,1.29463
308.81138,1.29873
308.57031,1.29759
308.32924,1.29459
308.08817,1.29185
307.84710,1.28918
307.60603,1.28778
307.36496,1.29071
307.12389,1.29704
306.88282,1.30137
306.64175,1.30199
306.40068,1.30298
306.15961,1.30652
305.91854,1.30922
305.67747,1.30747
305.43640,1.30201
305.19532,1.29539
304.95425,1.28876
304.71318,1.28308
304.47211,1.27996
304.23104,1.27966
303.98997,1.28222
303.74890,1.28923
303.50783,1.29909
303.26676,1.30402
303.02569,1.29861
302.78462,1.28673
302.54355,1.27805
302.30248,1.27882
302.06141,1.28526
301.82034,1.28879
301.57927,1.28689
301.33820,1.28393
301.09713,1.28386
300.85605,1.28645
300.61498,1.28922
300.37391,1.28807
300.13284,1.27896
299.89177,1.26481
299.65070,1.25537
299.40963,1.25683
299.16856,1.26418
298.92749,1.26699
298.68642,1.26322
298.44535,1.26033
298.20428,1.26233
297.96321,1.26455
297.72214,1.26169
297.48107,1.25406
297.24000,1.24490
296.99893,1.23739
296.75786,1.23401
296.51678,1.23554
296.27571,1.24055
296.03464,1.24548
295.79357,1.24580
295.55250,1.23907
295.31143,1.22798
295.07036,1.21840
294.82929,1.21382
294.58822,1.21297
294.34715,1.21247
294.10608,1.21157
293.86501,1.21274
293.62394,1.21588
293.38287,1.21543
293.14180,1.20657
292.90073,1.19225
292.65966,1.18044
292.41859,1.17614
292.17751,1.17836
291.93644,1.18235
291.69537,1.18375
291.45430,1.18234
291.21323,1.18127
290.97216,1.18220
290.73109,1.18321
290.49002,1.18255
290.24895,1.18104
290.00788,1.17922
289.76681,1.17591
289.52574,1.17159
289.28467,1.16946
289.04360,1.17200
288.80253,1.17772
288.56146,1.18162
288.32039,1.17969
288.07932,1.17311
287.83824,1.16666
287.59717,1.16354
287.35610,1.16323
287.11503,1.16333
286.87396,1.16113
286.63289,1.15499
286.39182,1.14673
286.15075,1.14043
285.90968,1.13773
285.66861,1.13674
285.42754,1.13636
285.18647,1.13839
284.94540,1.14349
284.70433,1.14822
284.46326,1.14831
284.22219,1.14313
283.98112,1.13538
283.74005,1.12800
283.49897,1.12299
283.25790,1.12166
283.01683,1.12376
282.77576,1.12666
282.53469,1.12720
282.29362,1.12448
282.05255,1.12044
281.81148,1.11836
281.57041,1.12015
281.32934,1.12438
281.08827,1.12821
280.84720,1.13103
280.60613,1.13339
280.36506,1.13377
280.12399,1.13071
279.88292,1.12694
279.64185,1.12635
279.40078,1.12862
279.15970,1.13038
278.91863,1.12909
278.67756,1.12391
278.43649,1.11589
278.19542,1.10871
277.95435,1.10669
277.71328,1.11063
277.47221,1.11690
277.23114,1.12106
276.99007,1.12237
276.74900,1.12364
276.50793,1.12635
276.26686,1.12778
276.02579,1.12463
275.78472,1.11802
275.54365,1.11269
275.30258,1.11221
275.06151,1.11636
274.82043,1.12251
274.57936,1.12812
274.33829,1.13219
274.09722,1.13440
273.85615,1.13408
273.61508,1.13170
273.37401,1.13054
273.13294,1.13335
272.89187,1.13805
272.65080,1.13996
272.40973,1.13863
272.16866,1.13823
271.92759,1.14149
271.68652,1.14694
271.44545,1.15179
271.20438,1.15436
270.96331,1.15383
270.72224,1.15030
270.48116,1.14563
270.24009,1.14288
269.99902,1.14434
269.75795,1.14986
269.51688,1.15637
269.27581,1.15994
269.03474,1.15978
268.79367,1.15948
268.55260,1.16301
268.31153,1.17052
268.07046,1.17882
267.82939,1.18532
267.58832,1.19028
267.34725,1.19530
267.10618,1.20128
266.86511,1.20833
266.62404,1.21591
266.38297,1.22230
266.14189,1.22597
265.90082,1.22851
265.65975,1.23343
265.41868,1.24093
265.17761,1.24766
264.93654,1.25171
264.69547,1.25397
264.45440,1.25612
264.21333,1.25905
263.97226,1.26292
263.73119,1.26823
263.49012,1.27763
263.24905,1.29457
263.00798,1.31730
262.76691,1.33720
262.52584,1.34769
262.28477,1.35234
262.04370,1.35887
261.80262,1.36993
261.56155,1.38455
261.32048,1.40301
261.07941,1.42419
260.83834,1.44207
260.59727,1.45133
260.35620,1.45477
260.11513,1.46039
259.87406,1.47341
259.63299,1.49386
259.39192,1.51898
259.15085,1.54455
258.90978,1.56461
258.66871,1.57544
258.42764,1.58129
258.18657,1.59302
257.94550,1.61705
257.70443,1.64700
257.46335,1.67117
257.22228,1.68521
256.98121,1.68711
256.74014,1.67700
256.49907,1.66700
256.25800,1.67010
256.01693,1.68475
255.77586,1.69528
255.53479,1.69076
255.29372,1.67696
255.05265,1.66673
254.81158,1.66617
254.57051,1.67082
254.32944,1.67129
254.08837,1.66374
253.84730,1.65496
253.60623,1.65207
253.36516,1.65129
253.12408,1.64324
252.88301,1.62733
252.64194,1.61327
252.40087,1.60726
252.15980,1.60361
251.91873,1.59212
251.67766,1.57024
251.43659,1.54475
251.19552,1.52596
250.95445,1.51998
250.71338,1.52365
250.47231,1.52739
250.23124,1.52285
249.99017,1.51117
249.74910,1.50166
249.50803,1.50177
249.26696,1.51030
249.02589,1.51900
248.78481,1.52175
248.54374,1.52049
248.30267,1.51861
248.06160,1.51621
247.82053,1.51606
247.57946,1.52376
247.33839,1.53819
247.09732,1.55121
246.85625,1.55871
246.61518,1.56477
246.37411,1.57516
246.13304,1.59115
245.89197,1.61020
245.65090,1.63090
245.40983,1.65670
245.16876,1.69192
244.92769,1.73225
244.68661,1.76326
244.44554,1.77479
244.20447,1.77824
243.96340,1.79826
243.72233,1.84295
243.48126,1.88843
243.24019,1.90722
242.99912,1.90165
242.75805,1.87831
242.51698,1.82822
242.27591,1.76572
242.03484,1.70407
241.79377,1.65062
241.55270,1.60547
241.31163,1.56292
241.07056,1.52071
240.82949,1.47944
240.58842,1.43974
240.34734,1.40276
240.10627,1.37005
239.86520,1.34205
239.62413,1.31721
239.38306,1.29366
239.14199,1.27139
238.90092,1.25076
238.65985,1.23068
238.41878,1.21045
238.17771,1.19107
237.93664,1.17351
237.69557,1.15723
237.45450,1.14102
237.21343,1.12408
236.97236,1.10622
236.73129,1.08844
236.49022,1.07275
236.24915,1.06055
236.00807,1.05141
235.76700,1.04394
235.52593,1.03705
235.28486,1.02949
235.04379,1.01988
234.80272,1.00907
234.56165,1.00024
234.32058,0.99455
234.07951,0.98904
233.83844,0.98130
233.59737,0.97364
233.35630,0.96962
233.11523,0.96831
232.87416,0.96552
232.63309,0.95973
232.39202,0.95347
232.15095,0.94913
231.90988,0.94580
231.66880,0.94063
231.42773,0.93280
231.18666,0.92489
230.94559,0.91952
230.70452,0.91638
230.46345,0.91355
230.22238,0.91000
229.98131,0.90579
229.74024,0.90170
229.49917,0.89911
229.25810,0.89831
229.01703,0.89697
228.77596,0.89246
228.53489,0.88593
228.29382,0.88180
228.05275,0.88256
227.81168,0.88525
227.57061,0.88416
227.32953,0.87754
227.08846,0.86922
226.84739,0.86317
226.60632,0.85940
226.36525,0.85603
226.12418,0.85334
225.88311,0.85320
225.64204,0.85510
225.40097,0.85571
225.15990,0.85378
224.91883,0.85227
224.67776,0.85345
224.43669,0.85485
224.19562,0.85314
223.95455,0.84923
223.71348,0.84661
223.47241,0.84685
223.23134,0.84935
222.99026,0.85328
222.74919,0.85771
222.50812,0.86138
222.26705,0.86445
222.02598,0.86887
221.78491,0.87477
221.54384,0.87889
221.30277,0.87921
221.06170,0.87822
220.82063,0.87953
220.57956,0.88431
220.33849,0.89194
220.09742,0.90092
219.85635,0.90922
219.61528,0.91606
219.37421,0.92263
219.13314,0.92964
218.89207,0.93669
218.65099,0.94471
218.40992,0.95525
218.16885,0.96706
217.92778,0.97675
217.68671,0.98319
217.44564,0.98879
217.20457,0.99644
216.96350,1.00708
216.72243,1.01906
216.48136,1.02942
216.24029,1.03718
215.99922,1.04473
215.75815,1.05435
215.51708,1.06534
215.27601,1.07634
215.03494,1.08769
214.79387,1.09972
214.55280,1.11107
214.31172,1.12062
214.07065,1.12951
213.82958,1.13922
213.58851,1.14859
213.34744,1.15555
213.10637,1.16228
212.86530,1.17395
212.62423,1.19065
212.38316,1.20507
212.14209,1.21107
211.90102,1.21088
211.65995,1.21022
211.41888,1.20997
211.17781,1.20673
210.93674,1.20055
210.69567,1.19759
210.45460,1.20260
210.21353,1.21191
209.97245,1.21694
209.73138,1.21377
209.49031,1.20588
209.24924,1.19855
209.00817,1.19493
208.76710,1.19631
208.52603,1.20264
208.28496,1.21123
208.04389,1.21577
207.80282,1.21047
207.56175,1.19662
207.32068,1.18127
207.07961,1.16984
206.83854,1.16328
206.59747,1.16003
206.35640,1.15788
206.11533,1.15499
205.87426,1.14993
205.63318,1.14114
205.39211,1.12823
205.15104,1.11339
204.90997,1.09978
204.66890,1.08873
204.42783,1.07924
204.18676,1.06940
203.94569,1.05782
203.70462,1.04492
203.46355,1.03355
203.22248,1.02722
202.98141,1.02597
202.74034,1.02441
202.49927,1.01576
202.25820,0.99833
202.01713,0.97682
201.77606,0.95824
201.53499,0.94721
201.29391,0.94283
201.05284,0.93898
200.81177,0.92903
200.57070,0.91181
200.32963,0.89233
200.08856,0.87662
199.84749,0.86690
199.60642,0.86078
199.36535,0.85437
199.12428,0.84561
198.88321,0.83495
198.64214,0.82421
198.40107,0.81558
198.16000,0.81004
197.91893,0.80572
197.67786,0.79884
197.43679,0.78759
197.19572,0.77456
196.95464,0.76401
196.71357,0.75724
196.47250,0.75164
196.23143,0.74443
195.99036,0.73599
195.74929,0.72859
195.50822,0.72281
195.26715,0.71649
195.02608,0.70783
194.78501,0.69847
194.54394,0.69186
194.30287,0.68886
194.06180,0.68638
193.82073,0.68076
193.57966,0.67226
193.33859,0.66454
193.09752,0.65984
192.85645,0.65650
192.61537,0.65181
192.37430,0.64569
192.13323,0.64006
191.89216,0.63592
191.65109,0.63239
191.41002,0.62824
191.16895,0.62341
190.92788,0.61896
190.68681,0.61569
190.44574,0.61279
190.20467,0.60881
189.96360,0.60400
189.72253,0.60049
189.48146,0.59909
189.24039,0.59777
188.99932,0.59455
188.75825,0.59057
188.51718,0.58828
188.27610,0.58786
188.03503,0.58725
187.79396,0.58504
187.55289,0.58189
187.31182,0.57912
187.07075,0.57728
186.82968,0.57610
186.58861,0.57509
186.34754,0.57372
186.10647,0.57157
185.86540,0.56904
185.62433,0.56746
185.38326,0.56753
185.14219,0.56840
184.90112,0.56900
184.66005,0.56933
184.41898,0.56976
184.17791,0.57015
183.93683,0.57035
183.69576,0.57062
183.45469,0.57146
183.21362,0.57291
182.97255,0.57412
182.73148,0.57409
182.49041,0.57315
182.24934,0.57246
182.00827,0.57229
181.76720,0.57189
181.52613,0.57084
181.28506,0.56940
181.04399,0.56830
180.80292,0.56842
180.56185,0.57003
180.32078,0.57242
180.07971,0.57495
179.83864,0.57784
179.59756,0.58124
179.35649,0.58463
179.11542,0.58819
178.87435,0.59324
178.63328,0.59997
178.39221,0.60685
178.15114,0.61337
177.91007,0.62096
177.66900,0.63000
177.42793,0.63885
177.18686,0.64692
176.94579,0.65572
176.70472,0.66636
176.46365,0.67855
176.22258,0.69138
175.98151,0.70421
175.74044,0.71793
175.49937,0.73461
175.25829,0.75384
175.01722,0.77213
174.77615,0.78790
174.53508,0.80343
174.29401,0.82018
174.05294,0.83644
173.81187,0.85015
173.57080,0.86092
173.32973,0.86961
173.08866,0.87748
172.84759,0.88520
172.60652,0.89276
172.36545,0.89966
172.12438,0.90428
171.88331,0.90474
171.64224,0.90221
171.40117,0.90085
171.16010,0.90320
170.91902,0.90797
170.67795,0.91240
170.43688,0.91409
170.19581,0.91121
169.95474,0.90349
169.71367,0.89314
169.47260,0.88293
169.23153,0.87369
168.99046,0.86490
168.74939,0.85675
168.50832,0.85021
168.26725,0.84581
168.02618,0.84375
167.78511,0.84445
167.54404,0.84756
167.30297,0.85112
167.06190,0.85308
166.82083,0.85317
166.57975,0.85279
166.33868,0.85326
166.09761,0.85475
165.85654,0.85682
165.61547,0.85977
165.37440,0.86451
165.13333,0.87146
164.89226,0.87995
164.65119,0.88895
164.41012,0.89751
164.16905,0.90515
163.92798,0.91259
163.68691,0.92155
163.44584,0.93247
163.20477,0.94311
162.96370,0.95133
162.72263,0.95836
162.48156,0.96693
162.24048,0.97627
161.99941,0.98240
161.75834,0.98355
161.51727,0.98240
161.27620,0.98212
161.03513,0.98281
160.79406,0.98284
160.55299,0.98175
160.31192,0.98095
160.07085,0.98160
159.82978,0.98246
159.58871,0.98099
159.34764,0.97628
159.10657,0.96957
158.86550,0.96274
158.62443,0.95738
158.38336,0.95477
158.14229,0.95533
157.90121,0.95835
157.66014,0.96210
157.41907,0.96353
157.17800,0.95945
156.93693,0.95032
156.69586,0.94046
156.45479,0.93355
156.21372,0.93018
155.97265,0.92908
155.73158,0.92878
155.49051,0.92778
155.24944,0.92415
155.00837,0.91600
154.76730,0.90324
154.52623,0.88864
154.28516,0.87594
154.04409,0.86676
153.80302,0.85953
153.56194,0.85113
153.32087,0.83926
153.07980,0.82376
152.83873,0.80668
152.59766,0.79093
152.35659,0.77817
152.11552,0.76762
151.87445,0.75695
151.63338,0.74436
151.39231,0.73015
151.15124,0.71631
150.91017,0.70479
150.66910,0.69557
150.42803,0.68644
150.18696,0.67538
149.94589,0.66273
149.70482,0.65050
149.46375,0.64009
149.22267,0.63135
148.98160,0.62293
148.74053,0.61349
148.49946,0.60300
148.25839,0.59304
148.01732,0.58569
147.77625,0.58181
147.53518,0.58001
147.29411,0.57768
147.05304,0.57384
146.81197,0.57016
146.57090,0.56842
146.32983,0.56807
146.08876,0.56728
145.84769,0.56588
145.60662,0.56591
145.36555,0.56914
145.12448,0.57535
144.88340,0.58292
144.64233,0.59019
144.40126,0.59623
144.16019,0.60090
143.91912,0.60420
143.67805,0.60529
143.43698,0.60288
143.19591,0.59702
142.95484,0.58949
142.71377,0.58191
142.47270,0.57431
142.23163,0.56617
141.99056,0.55771
141.74949,0.54924
141.50842,0.54051
141.26735,0.53155
141.02628,0.52324
140.78521,0.51636
140.54413,0.51106
140.30306,0.50750
140.06199,0.50605
139.82092,0.50655
139.57985,0.50821
139.33878,0.51048
139.09771,0.51337
138.85664,0.51696
138.61557,0.52105
138.37450,0.52545
138.13343,0.53078
137.89236,0.53832
137.65129,0.54866
137.41022,0.56069
137.16915,0.57315
136.92808,0.58631
136.68701,0.60131
136.44594,0.61859
136.20486,0.63832
135.96379,0.66105
135.72272,0.68616
135.48165,0.71073
135.24058,0.73221
134.99951,0.75197
134.75844,0.77408
134.51737,0.80042
134.27630,0.82834
134.03523,0.85322
133.79416,0.87334
133.55309,0.89200
133.31202,0.91358
133.07095,0.93741
132.82988,0.95793
132.58881,0.97136
132.34774,0.97841
132.10667,0.98021
131.86559,0.97741
131.62452,0.97292
131.38345,0.96930
131.14238,0.96445
130.90131,0.95391
130.66024,0.93694
130.41917,0.91697
130.17810,0.89700
129.93703,0.87707
129.69596,0.85618
129.45489,0.83427
129.21382,0.81181
128.97275,0.78914
128.73168,0.76681
128.49061,0.74550
128.24954,0.72531
128.00847,0.70581
127.76740,0.68722
127.52632,0.67053
127.28525,0.65573
127.04418,0.64063
126.80311,0.62295
126.56204,0.60322
126.32097,0.58434
126.07990,0.56877
125.83883,0.55705
125.59776,0.54809
125.35669,0.53976
125.11562,0.53020
124.87455,0.51947
124.63348,0.50955
124.39241,0.50221
124.15134,0.49719
123.91027,0.49278
123.66920,0.48750
123.42812,0.48093
123.18705,0.47372
122.94598,0.46724
122.70491,0.46275
122.46384,0.46030
122.22277,0.45884
121.98170,0.45743
121.74063,0.45602
121.49956,0.45513
121.25849,0.45521
121.01742,0.45665
120.77635,0.46002
120.53528,0.46566
120.29421,0.47282
120.05314,0.48020
119.81207,0.48785
119.57100,0.49784
119.32993,0.51237
119.08885,0.53197
118.84778,0.55547
118.60671,0.58085
118.36564,0.60643
118.12457,0.63157
117.88350,0.65639
117.64243,0.68106
117.40136,0.70544
117.16029,0.72822
116.91922,0.74639
116.67815,0.75701
116.43708,0.75920
116.19601,0.75367
115.95494,0.74252
115.71387,0.72934
115.47280,0.71686
115.23173,0.70527
114.99066,0.69450
114.74958,0.68576
114.50851,0.67980
114.26744,0.67583
114.02637,0.67336
113.78530,0.67266
113.54423,0.67349
113.30316,0.67503
113.06209,0.67609
112.82102,0.67461
112.57995,0.66943
112.33888,0.66339
112.09781,0.66165
111.85674,0.66725
111.61567,0.68012
111.37460,0.69844
111.13353,0.71841
110.89246,0.73430
110.65139,0.74215
110.41031,0.74311
110.16924,0.74062
109.92817,0.73537
109.68710,0.72567
109.44603,0.71176
109.20496,0.69655
108.96389,0.68201
108.72282,0.66718
108.48175,0.65059
108.24068,0.63306
107.99961,0.61617
107.75854,0.59899
107.51747,0.57924
107.27640,0.55713
107.03533,0.53573
106.79426,0.51768
106.55319,0.50357
106.31212,0.49316
106.07104,0.48595
105.82997,0.47942
105.58890,0.46925
105.34783,0.45387
105.10676,0.43684
104.86569,0.42262
104.62462,0.41234
104.38355,0.40466
104.14248,0.39874
103.90141,0.39477
103.66034,0.39167
103.41927,0.38609
103.17820,0.37543
102.93713,0.36160
102.69606,0.35003
102.45499,0.34486
102.21392,0.34549
101.97285,0.34719
101.73177,0.34490
101.49070,0.33741
101.24963,0.32794
101.00856,0.32070
100.76749,0.31719
100.52642,0.31533
100.28535,0.31172
100.04428,0.30487
99.80321,0.29636
99.56214,0.28970
99.32107,0.28749
99.08000,0.28871
98.83893,0.28881
98.59786,0.28433
98.35679,0.27719
98.11572,0.27230
97.87465,0.27223
97.63358,0.27544
97.39250,0.27800
97.15143,0.27757
96.91036,0.27637
96.66929,0.27851
96.42822,0.28493
96.18715,0.29199
95.94608,0.29614
95.70501,0.29916
95.46394,0.30548
95.22287,0.31497
94.98180,0.32212
94.74073,0.32382
94.49966,0.32399
94.25859,0.32712
94.01752,0.33152
93.77645,0.33248
93.53538,0.33037
93.29431,0.33065
93.05323,0.33506
92.81216,0.33844
92.57109,0.33697
92.33002,0.33393
92.08895,0.33345
91.84788,0.33476
91.60681,0.33650
91.36574,0.34077
91.12467,0.34942
90.88360,0.36134
90.64253,0.37665
90.40146,0.39943
90.16039,0.43198
89.91932,0.47036
89.67825,0.50964
89.43718,0.54925
89.19611,0.58783
88.95504,0.62052
88.71396,0.64472
88.47289,0.65885
88.23182,0.65815
87.99075,0.64244
87.74968,0.61817
87.50861,0.58850
87.26754,0.55434
87.02647,0.52084
86.78540,0.49207
86.54433,0.46674
86.30326,0.44330
86.06219,0.42265
85.82112,0.40428
85.58005,0.38580
85.33898,0.36653
85.09791,0.34821
84.85684,0.33266
84.61577,0.32016
84.37469,0.30951
84.13362,0.29960
83.89255,0.29071
83.65148,0.28357
83.41041,0.27773
83.16934,0.27184
82.92827,0.26507
82.68720,0.25800
82.44613,0.25181
82.20506,0.24681
81.96399,0.24239
81.72292,0.23860
81.48185,0.23634
81.24078,0.23554
80.99971,0.23445
80.75864,0.23165
80.51757,0.22774
80.27650,0.22443
80.03542,0.22228
79.79435,0.22031
79.55328,0.21776
79.31221,0.21526
79.07114,0.21375
78.83007,0.21319
78.58900,0.21275
78.34793,0.21186
78.10686,0.21072
77.86579,0.20951
77.62472,0.20750
77.38365,0.20384
77.14258,0.19897
76.90151,0.19437
76.66044,0.19105
76.41937,0.18905
76.17830,0.18784
75.93723,0.18655
75.69615,0.18446
75.45508,0.18198
75.21401,0.18040
74.97294,0.18016
74.73187,0.18013
74.49080,0.17908
74.24973,0.17749
74.00866,0.17749
73.76759,0.18049
73.52652,0.18467
73.28545,0.18601
73.04438,0.18284
72.80331,0.17809
72.56224,0.17575
72.32117,0.17699
72.08010,0.18081
71.83903,0.18613
71.59796,0.19145
71.35688,0.19410
71.11581,0.19238
70.87474,0.18833
70.63367,0.18624
70.39260,0.18911
70.15153,0.19820
69.91046,0.21435
69.66939,0.23718
69.42832,0.26279
69.18725,0.28429
68.94618,0.29555
68.70511,0.29425
68.46404,0.28170
68.22297,0.26136
67.98190,0.23774
67.74083,0.21534
67.49976,0.19745
67.25869,0.18532
67.01761,0.17789
66.77654,0.17269
66.53547,0.16769
66.29440,0.16282
66.05333,0.15926
65.81226,0.15760
65.57119,0.15770
65.33012,0.15982
65.08905,0.16463
64.84798,0.17217
64.60691,0.18167
64.36584,0.19160
64.12477,0.19941
63.88370,0.20279
63.64263,0.20178
63.40156,0.19810
63.16049,0.19277
62.91942,0.18630
62.67834,0.17978
62.43727,0.17409
62.19620,0.16902
61.95513,0.16412
61.71406,0.15963
61.47299,0.15617
61.23192,0.15428
60.99085,0.15413
60.74978,0.15571
60.50871,0.15943
60.26764,0.16599
60.02657,0.17508
59.78550,0.18478
59.54443,0.19266
59.30336,0.19698
59.06229,0.19658
58.82122,0.19046
58.58015,0.17924
58.33907,0.16599
58.09800,0.15441
57.85693,0.14664
57.61586,0.14333
57.37479,0.14415
57.13372,0.14734
56.89265,0.15041
56.65158,0.15218
56.41051,0.15359
56.16944,0.15623
55.92837,0.16035
55.68730,0.16356
55.44623,0.16197
55.20516,0.15432
54.96409,0.14411
54.72302,0.13592
54.48195,0.13177
54.24088,0.13256
53.99980,0.14080
53.75873,0.15939
53.51766,0.18654
53.27659,0.21098
53.03552,0.21640
52.79445,0.19989
52.55338,0.17660
52.31231,0.16090
52.07124,0.15877
51.83017,0.17236
51.58910,0.19965
51.34803,0.22377
51.10696,0.21627
50.86589,0.17992
50.62482,0.14707
50.38375,0.13779
50.14268,0.15582
49.90161,0.19249
49.66053,0.21917
49.41946,0.20622
49.17839,0.17270
48.93732,0.15647
48.69625,0.17255
48.45518,0.20508
48.21411,0.21178
47.97304,0.18455
47.73197,0.16500
47.49090,0.17427
47.24983,0.19136
47.00876,0.18096
46.76769,0.15587
46.52662,0.15124
46.28555,0.16662
46.04448,0.17140
45.80341,0.15665
45.56234,0.14814
45.32126,0.15575
45.08019,0.16275
44.83912,0.16392
44.59805,0.17273
44.35698,0.18427
44.11591,0.18354
43.87484,0.17861
43.63377,0.18084
43.39270,0.18258
43.15163,0.17896
42.91056,0.17798
42.66949,0.18031
42.42842,0.18217
42.18735,0.18638
41.94628,0.19085
41.70521,0.18761
41.46414,0.18037
41.22307,0.17821
40.98199,0.17982
40.74092,0.17966
40.49985,0.17916
40.25878,0.18400
40.01771,0.19527
39.77664,0.20643
39.53557,0.21069
39.29450,0.21048
39.05343,0.21271
38.81236,0.22032
38.57129,0.23324
38.33022,0.24924
38.08915,0.26167
37.84808,0.26435
37.60701,0.25877
37.36594,0.25234
37.12487,0.25111
36.88380,0.25631
36.64272,0.26552
36.40165,0.27518
36.16058,0.28188
35.91951,0.28264
35.67844,0.27488
35.43737,0.25582
35.19630,0.22592
34.95523,0.19578
34.71416,0.17982
34.47309,0.18282
34.23202,0.19650
33.99095,0.20638
33.74988,0.20573
33.50881,0.19924
33.26774,0.18940
33.02667,0.17380
32.78560,0.15693
32.54453,0.14916
32.30345,0.15144
32.06238,0.15230
31.82131,0.14127
31.58024,0.11942
31.33917,0.09568
31.09810,0.07709
30.85703,0.06469
30.61596,0.05592
30.37489,0.04829
30.13382,0.04001
29.89275,0.03083
29.65168,0.02237
29.41061,0.01379
29.16954,0.00064
28.92847,-0.01842
28.68740,-0.03819
28.44633,-0.05330
28.20526,-0.06314
27.96418,-0.06812
27.72311,-0.06658
27.48204,-0.06112
27.24097,-0.06148
26.99990,-0.07438
26.75883,-0.09266
26.51776,-0.10297
26.27669,-0.10008
26.03562,-0.09037
25.79455,-0.08528
25.55348,-0.09034
25.31241,-0.10020
25.07134,-0.10801
24.83027,-0.11608
24.58920,-0.12890
24.34813,-0.14340
24.10706,-0.15509
23.86599,-0.16615
23.62491,-0.17957
23.38384,-0.19243
23.14277,-0.19982
22.90170,-0.20174
22.66063,-0.20379
22.41956,-0.20986
22.17849,-0.21565
21.93742,-0.21416
21.69635,-0.20566
21.45528,-0.19638
21.21421,-0.19277
20.97314,-0.19921
20.73207,-0.21487
20.49100,-0.22962
20.24993,-0.23105
20.00886,-0.22130
19.76779,-0.21499
19.52672,-0.22163
19.28564,-0.23825
19.04457,-0.25684
18.80350,-0.27081
18.56243,-0.27419
18.32136,-0.26652
18.08029,-0.25809
17.83922,-0.25979
17.59815,-0.27056
17.35708,-0.28053
17.11601,-0.28163
16.87494,-0.27108
16.63387,-0.25366
16.39280,-0.24434
16.15173,-0.25377
15.91066,-0.27397
15.66959,-0.28616
15.42852,-0.28370
15.18745,-0.27790
14.94637,-0.28184
14.70530,-0.29912
14.46423,-0.31903
14.22316,-0.32568
13.98209,-0.31621
13.74102,-0.30181
13.49995,-0.29089
13.25888,-0.28465
13.01781,-0.28809
12.77674,-0.30154
12.53567,-0.31263
12.29460,-0.31309
12.05353,-0.30588
11.81246,-0.29731
11.57139,-0.29207
11.33032,-0.29114
11.08925,-0.29283
10.84818,-0.29178
10.60710,-0.28579
10.36603,-0.28147
10.12496,-0.28686
9.88389,-0.30148
9.64282,-0.31544
9.40175,-0.32288
9.16068,-0.32922
8.91961,-0.33534
8.67854,-0.33426
8.43747,-0.32392
8.19640,-0.30602
7.95533,-0.29146
7.71426,-0.29150
7.47319,-0.30426
7.23212,-0.31310
6.99105,-0.30663
6.74998,-0.29408
6.50891,-0.28398
6.26783,-0.27659
6.02676,-0.27182
5.78569,-0.27050
5.54462,-0.27163
5.30355,-0.27205
5.06248,-0.26782
4.82141,-0.25893
4.58034,-0.25287
4.33927,-0.25382
4.09820,-0.25704
3.85713,-0.26146
3.61606,-0.26777
3.37499,-0.27248
3.13392,-0.27653
2.89285,-0.28368
2.65178,-0.28942
2.41071,-0.28653
2.16964,-0.27593
1.92856,-0.26113
1.68749,-0.24813
1.44642,-0.24835
1.20535,-0.26061
0.96428,-0.27326
0.72321,-0.29523
0.48214,-0.34081
0.24107,-0.34025
-0.00000,-0.19596
