399.69498,1.57199
399.45391,1.58267
399.21284,1.58734
398.97177,1.57527
398.73070,1.55017
398.48963,1.53098
398.24856,1.52872
398.00749,1.53284
397.76642,1.52858
397.52535,1.52280
397.28428,1.53358
397.04321,1.55920
396.80214,1.57566
396.56107,1.56995
396.32000,1.55870
396.07892,1.56245
395.83785,1.58404
395.59678,1.61051
395.35571,1.62087
395.11464,1.60243
394.87357,1.56791
394.63250,1.54241
394.39143,1.53697
394.15036,1.54518
393.90929,1.55448
393.66822,1.55224
393.42715,1.53888
393.18608,1.52823
392.94501,1.52615
392.70394,1.52648
392.46287,1.52274
392.22180,1.51540
391.98073,1.51187
391.73965,1.51601
391.49858,1.52154
391.25751,1.52453
391.01644,1.53435
390.77537,1.56199
390.53430,1.59858
390.29323,1.61421
390.05216,1.59671
389.81109,1.56775
389.57002,1.54443
389.32895,1.52448
389.08788,1.50650
388.84681,1.49968
388.60574,1.50623
388.36467,1.51126
388.12360,1.49436
387.88253,1.45685
387.64146,1.42530
387.40038,1.42147
387.15931,1.43952
386.91824,1.45243
386.67717,1.44231
386.43610,1.41843
386.19503,1.40147
385.95396,1.40236
385.71289,1.41654
385.47182,1.43295
385.23075,1.44401
384.98968,1.44659
384.74861,1.44118
384.50754,1.43032
384.26647,1.41231
384.02540,1.38547
383.78433,1.36135
383.54326,1.35757
383.30219,1.37399
383.06111,1.39025
382.82004,1.39661
382.57897,1.40298
382.33790,1.41019
382.09683,1.40573
381.85576,1.38393
381.61469,1.35443
381.37362,1.32849
381.13255,1.30966
380.89148,1.29355
380.65041,1.27594
380.40934,1.25771
380.16827,1.24244
379.92720,1.23605
379.68613,1.24548
379.44506,1.26794
379.20399,1.28688
378.96292,1.29391
378.72184,1.30006
378.48077,1.31486
378.23970,1.33265
377.99863,1.34292
377.75756,1.34185
377.51649,1.33439
377.27542,1.33054
377.03435,1.33571
376.79328,1.34786
376.55221,1.36154
376.31114,1.37408
376.07007,1.38547
375.82900,1.39181
375.58793,1.39090
375.34686,1.38969
375.10579,1.39866
374.86472,1.42331
374.62365,1.45202
374.38257,1.46493
374.14150,1.46026
373.90043,1.45030
373.65936,1.43732
373.41829,1.41940
373.17722,1.40585
372.93615,1.40520
372.69508,1.41195
372.45401,1.41592
372.21294,1.41577
371.97187,1.41529
371.73080,1.41403
371.48973,1.40718
371.24866,1.39390
371.00759,1.37957
370.76652,1.36847
370.52545,1.36185
370.28437,1.35935
370.04330,1.35725
369.80223,1.35055
369.56116,1.34173
369.32009,1.34062
369.07902,1.34799
368.83795,1.35075
368.59688,1.34288
368.35581,1.33417
368.11474,1.32988
367.87367,1.32242
367.63260,1.30805
367.39153,1.29684
367.15046,1.29991
366.90939,1.31352
366.66832,1.32461
366.42725,1.32708
366.18618,1.32406
365.94510,1.31874
365.70403,1.30966
365.46296,1.29564
365.22189,1.28266
364.98082,1.27921
364.73975,1.28480
364.49868,1.28999
364.25761,1.28747
364.01654,1.27844
363.77547,1.26762
363.53440,1.25865
363.29333,1.25539
363.05226,1.26132
362.81119,1.27557
362.57012,1.29197
362.32905,1.30274
362.08798,1.30177
361.84691,1.28848
361.60583,1.26985
361.36476,1.25434
361.12369,1.24599
360.88262,1.24539
360.64155,1.25174
360.40048,1.26243
360.15941,1.27132
359.91834,1.26948
359.67727,1.25524
359.43620,1.24051
359.19513,1.23667
358.95406,1.24031
358.71299,1.24104
358.47192,1.23745
358.23085,1.23558
357.98978,1.23686
357.74871,1.23818
357.50764,1.23919
357.26656,1.24051
357.02549,1.23970
356.78442,1.23697
356.54335,1.23668
356.30228,1.24001
356.06121,1.24433
355.82014,1.24947
355.57907,1.25624
355.33800,1.26004
355.09693,1.25501
354.85586,1.24227
354.61479,1.22900
354.37372,1.22188
354.13265,1.22271
353.89158,1.22775
353.65051,1.23026
353.40944,1.22567
353.16837,1.21545
352.92729,1.20573
352.68622,1.20193
352.44515,1.20587
352.20408,1.21611
351.96301,1.22865
351.72194,1.23970
351.48087,1.24905
351.23980,1.25937
350.99873,1.27190
350.75766,1.28320
350.51659,1.28563
350.27552,1.27505
350.03445,1.25889
349.79338,1.25021
349.55231,1.25397
349.31124,1.26394
349.07017,1.26914
348.82910,1.26108
348.58802,1.24272
348.34695,1.22944
348.10588,1.23443
347.86481,1.25577
347.62374,1.27912
347.38267,1.29154
347.14160,1.29321
346.90053,1.29430
346.65946,1.30184
346.41839,1.31299
346.17732,1.32049
345.93625,1.32060
345.69518,1.31372
345.45411,1.30211
345.21304,1.29038
344.97197,1.28506
344.73090,1.29098
344.48983,1.30685
344.24875,1.32424
344.00768,1.33392
343.76661,1.33379
343.52554,1.32794
343.28447,1.32024
343.04340,1.31227
342.80233,1.30484
342.56126,1.29956
342.32019,1.29935
342.07912,1.30501
341.83805,1.31339
341.59698,1.32107
341.35591,1.32595
341.11484,1.32736
340.87377,1.32906
340.63270,1.33640
340.39163,1.34891
340.15056,1.36155
339.90948,1.37221
339.66841,1.38118
339.42734,1.38574
339.18627,1.38378
338.94520,1.38170
338.70413,1.38906
338.46306,1.40790
338.22199,1.43419
337.98092,1.46163
337.73985,1.48144
337.49878,1.48634
337.25771,1.47656
337.01664,1.46385
336.77557,1.46255
336.53450,1.47341
336.29343,1.47997
336.05236,1.46664
335.81129,1.44466
335.57021,1.44208
335.32914,1.46514
335.08807,1.48411
334.84700,1.47118
334.60593,1.44236
334.36486,1.42613
334.12379,1.42284
333.88272,1.42093
333.64165,1.42499
333.40058,1.44170
333.15951,1.45361
332.91844,1.43688
332.67737,1.39863
332.43630,1.36585
332.19523,1.35308
331.95416,1.35636
331.71309,1.36258
331.47202,1.36128
331.23094,1.35245
330.98987,1.34466
330.74880,1.34625
330.50773,1.35469
330.26666,1.35785
330.02559,1.34926
329.78452,1.33484
329.54345,1.31969
329.30238,1.30375
329.06131,1.29435
328.82024,1.30327
328.57917,1.32726
328.33810,1.34477
328.09703,1.34089
327.85596,1.32423
327.61489,1.30765
327.37382,1.29353
327.13275,1.28533
326.89167,1.29111
326.65060,1.30852
326.40953,1.32439
326.16846,1.33195
325.92739,1.33295
325.68632,1.33116
325.44525,1.32856
325.20418,1.32762
324.96311,1.33382
324.72204,1.34521
324.48097,1.34890
324.23990,1.33825
323.99883,1.32376
323.75776,1.31807
323.51669,1.31971
323.27562,1.31919
323.03455,1.31428
322.79348,1.31022
322.55240,1.30948
322.31133,1.31064
322.07026,1.31496
321.82919,1.32439
321.58812,1.33660
321.34705,1.34532
321.10598,1.34687
320.86491,1.34627
320.62384,1.35174
320.38277,1.36441
320.14170,1.37760
319.90063,1.38418
319.65956,1.38008
319.41849,1.36259
319.17742,1.33520
318.93635,1.31253
318.69528,1.31044
318.45421,1.33174
318.21313,1.36111
317.97206,1.37830
317.73099,1.38078
317.48992,1.37174
317.24885,1.34994
317.00778,1.32553
316.76671,1.31812
316.52564,1.33461
316.28457,1.36116
316.04350,1.37913
315.80243,1.38312
315.56136,1.37681
315.32029,1.36494
315.07922,1.35546
314.83815,1.35594
314.59708,1.36711
314.35601,1.38719
314.11494,1.41467
313.87386,1.44184
313.63279,1.45197
313.39172,1.43728
313.15065,1.41136
312.90958,1.39491
312.66851,1.39584
312.42744,1.40501
312.18637,1.40931
311.94530,1.40264
311.70423,1.38727
311.46316,1.37301
311.22209,1.37080
310.98102,1.38324
310.73995,1.40597
310.49888,1.43251
310.25781,1.45172
310.01674,1.45479
309.77567,1.44594
309.53459,1.43869
309.29352,1.44467
309.05245,1.46382
308.81138,1.48406
308.57031,1.49272
308.32924,1.48124
308.08817,1.45276
307.84710,1.42767
307.60603,1.41967
307.36496,1.42396
307.12389,1.43199
306.88282,1.43544
306.64175,1.42550
306.40068,1.40349
306.15961,1.38280
305.91854,1.37795
305.67747,1.39107
305.43640,1.41191
305.19532,1.42699
304.95425,1.42643
304.71318,1.40946
304.47211,1.38616
304.23104,1.37161
303.98997,1.37565
303.74890,1.39166
303.50783,1.40289
303.26676,1.40505
303.02569,1.40471
302.78462,1.39899
302.54355,1.38120
302.30248,1.35926
302.06141,1.34752
301.82034,1.34867
301.57927,1.35470
301.33820,1.35787
301.09713,1.35430
300.85605,1.34325
300.61498,1.32861
300.37391,1.31670
300.13284,1.31030
299.89177,1.30626
299.65070,1.29952
299.40963,1.28992
299.16856,1.28214
298.92749,1.27740
298.68642,1.27132
298.44535,1.26150
298.20428,1.24966
297.96321,1.23847
297.72214,1.23230
297.48107,1.23696
297.24000,1.25347
296.99893,1.27277
296.75786,1.28061
296.51678,1.27187
296.27571,1.25564
296.03464,1.24169
295.79357,1.23114
295.55250,1.22212
295.31143,1.21565
295.07036,1.21310
294.82929,1.21261
294.58822,1.21127
294.34715,1.20801
294.10608,1.20225
293.86501,1.19466
293.62394,1.19096
293.38287,1.19784
293.14180,1.21331
292.90073,1.22487
292.65966,1.21968
292.41859,1.19802
292.17751,1.17341
291.93644,1.15970
291.69537,1.16141
291.45430,1.17238
291.21323,1.18160
290.97216,1.18093
290.73109,1.16932
290.49002,1.15340
290.24895,1.14308
290.00788,1.14338
289.76681,1.14993
289.52574,1.15413
289.28467,1.15347
289.04360,1.15291
288.80253,1.15586
288.56146,1.15862
288.32039,1.15594
288.07932,1.14990
287.83824,1.14615
287.59717,1.14402
287.35610,1.13888
287.11503,1.13153
286.87396,1.12816
286.63289,1.13205
286.39182,1.13991
286.15075,1.14455
285.90968,1.14076
285.66861,1.13091
285.42754,1.12293
285.18647,1.12100
284.94540,1.12137
284.70433,1.11936
284.46326,1.11668
284.22219,1.11734
283.98112,1.12115
283.74005,1.12472
283.49897,1.12622
283.25790,1.12659
283.01683,1.12737
282.77576,1.12891
282.53469,1.13067
282.29362,1.13267
282.05255,1.13543
281.81148,1.13788
281.57041,1.13681
281.32934,1.13048
281.08827,1.12191
280.84720,1.11608
280.60613,1.11503
280.36506,1.11740
280.12399,1.12116
279.88292,1.12546
279.64185,1.13012
279.40078,1.13428
279.15970,1.13655
278.91863,1.13611
278.67756,1.13385
278.43649,1.13261
278.19542,1.13464
277.95435,1.13797
277.71328,1.13822
277.47221,1.13517
277.23114,1.13381
276.99007,1.13748
276.74900,1.14323
276.50793,1.14598
276.26686,1.14432
276.02579,1.14013
275.78472,1.13573
275.54365,1.13322
275.30258,1.13419
275.06151,1.13851
274.82043,1.14409
274.57936,1.14853
274.33829,1.15063
274.09722,1.15044
273.85615,1.14861
273.61508,1.14672
273.37401,1.14757
273.13294,1.15337
272.89187,1.16256
272.65080,1.17025
272.40973,1.17314
272.16866,1.17255
271.92759,1.17136
271.68652,1.17021
271.44545,1.16890
271.20438,1.16941
270.96331,1.17485
270.72224,1.18548
270.48116,1.19788
270.24009,1.20831
269.99902,1.21510
269.75795,1.21849
269.51688,1.21946
269.27581,1.21838
269.03474,1.21554
268.79367,1.21319
268.55260,1.21434
268.31153,1.21857
268.07046,1.22318
267.82939,1.22879
267.58832,1.23926
267.34725,1.25569
267.10618,1.27389
266.86511,1.28789
266.62404,1.29559
266.38297,1.29937
266.14189,1.30201
265.90082,1.30467
265.65975,1.30728
265.41868,1.31059
265.17761,1.31667
264.93654,1.32644
264.69547,1.33805
264.45440,1.34807
264.21333,1.35535
263.97226,1.36277
263.73119,1.37455
263.49012,1.39239
263.24905,1.41350
263.00798,1.43101
262.76691,1.44055
262.52584,1.44839
262.28477,1.46464
262.04370,1.48917
261.80262,1.51403
261.56155,1.53827
261.32048,1.56645
261.07941,1.59333
260.83834,1.60856
260.59727,1.61797
260.35620,1.63949
260.11513,1.67515
259.87406,1.70651
259.63299,1.72249
259.39192,1.73273
259.15085,1.74786
258.90978,1.76915
258.66871,1.80282
258.42764,1.85821
258.18657,1.91845
257.94550,1.93576
257.70443,1.89171
257.46335,1.82921
257.22228,1.79410
256.98121,1.79481
256.74014,1.80832
256.49907,1.80530
256.25800,1.78203
256.01693,1.75886
255.77586,1.74611
255.53479,1.73450
255.29372,1.71910
255.05265,1.70496
254.81158,1.69183
254.57051,1.68069
254.32944,1.67972
254.08837,1.69168
253.84730,1.70990
253.60623,1.72163
253.36516,1.71128
253.12408,1.68191
252.88301,1.65152
252.64194,1.62974
252.40087,1.61581
252.15980,1.60630
251.91873,1.59938
251.67766,1.59243
251.43659,1.58291
251.19552,1.57009
250.95445,1.55645
250.71338,1.54936
250.47231,1.55233
250.23124,1.55624
249.99017,1.55290
249.74910,1.55057
249.50803,1.56428
249.26696,1.59600
249.02589,1.62619
248.78481,1.62755
248.54374,1.59872
248.30267,1.56859
248.06160,1.55940
247.82053,1.57008
247.57946,1.58875
247.33839,1.60420
247.09732,1.60557
246.85625,1.58810
246.61518,1.56523
246.37411,1.55675
246.13304,1.56591
245.89197,1.57863
245.65090,1.58324
245.40983,1.58597
245.16876,1.59966
244.92769,1.62846
244.68661,1.66638
244.44554,1.70376
244.20447,1.73886
243.96340,1.77787
243.72233,1.82619
243.48126,1.87812
243.24019,1.91944
242.99912,1.94387
242.75805,1.94842
242.51698,1.94157
242.27591,1.91544
242.03484,1.78293
241.79377,1.66469
241.55270,1.58040
241.31163,1.50887
241.07056,1.44111
240.82949,1.37912
240.58842,1.32595
240.34734,1.28008
240.10627,1.23717
239.86520,1.19677
239.62413,1.16231
239.38306,1.13449
239.14199,1.10918
238.90092,1.08215
238.65985,1.05324
238.41878,1.02558
238.17771,1.00199
237.93664,0.98255
237.69557,0.96522
237.45450,0.94854
237.21343,0.93227
236.97236,0.91577
236.73129,0.89844
236.49022,0.88168
236.24915,0.86820
236.00807,0.85914
235.76700,0.85321
235.52593,0.84875
235.28486,0.84576
235.04379,0.84514
234.80272,0.84615
234.56165,0.84594
234.32058,0.84260
234.07951,0.83772
233.83844,0.83435
233.59737,0.83286
233.35630,0.83059
233.11523,0.82571
232.87416,0.81931
232.63309,0.81351
232.39202,0.80934
232.15095,0.80620
231.90988,0.80248
231.66880,0.79763
231.42773,0.79355
231.18666,0.79303
230.94559,0.79683
230.70452,0.80262
230.46345,0.80622
230.22238,0.80523
229.98131,0.80200
229.74024,0.80082
229.49917,0.80199
229.25810,0.80155
229.01703,0.79724
228.77596,0.79196
228.53489,0.78977
228.29382,0.79077
228.05275,0.79229
227.81168,0.79307
227.57061,0.79289
227.32953,0.79092
227.08846,0.78821
226.84739,0.78764
226.60632,0.78925
226.36525,0.79048
226.12418,0.79118
225.88311,0.79295
225.64204,0.79474
225.40097,0.79478
225.15990,0.79449
224.91883,0.79590
224.67776,0.79847
224.43669,0.80070
224.19562,0.80273
223.95455,0.80604
223.71348,0.81155
223.47241,0.81847
223.23134,0.82526
222.99026,0.83106
222.74919,0.83560
222.50812,0.83878
222.26705,0.84156
222.02598,0.84531
221.78491,0.85026
221.54384,0.85655
221.30277,0.86558
221.06170,0.87793
220.82063,0.89115
220.57956,0.90159
220.33849,0.90822
220.09742,0.91299
219.85635,0.91798
219.61528,0.92445
219.37421,0.93378
219.13314,0.94764
218.89207,0.96592
218.65099,0.98496
218.40992,1.00058
218.16885,1.01362
217.92778,1.02798
217.68671,1.04313
217.44564,1.05369
217.20457,1.05801
216.96350,1.06234
216.72243,1.07531
216.48136,1.10144
216.24029,1.13829
215.99922,1.17572
215.75815,1.20161
215.51708,1.21354
215.27601,1.22034
215.03494,1.23081
214.79387,1.24604
214.55280,1.26283
214.31172,1.27917
214.07065,1.29389
213.82958,1.30485
213.58851,1.31120
213.34744,1.31558
213.10637,1.32305
212.86530,1.33869
212.62423,1.36341
212.38316,1.38668
212.14209,1.39233
211.90102,1.37882
211.65995,1.36166
211.41888,1.35726
211.17781,1.36944
210.93674,1.38662
210.69567,1.39332
210.45460,1.38860
210.21353,1.38527
209.97245,1.39023
209.73138,1.39745
209.49031,1.39953
209.24924,1.39692
209.00817,1.39518
208.76710,1.39904
208.52603,1.40854
208.28496,1.41655
208.04389,1.41172
207.80282,1.38897
207.56175,1.35541
207.32068,1.32208
207.07961,1.29817
206.83854,1.29049
206.59747,1.29847
206.35640,1.30868
206.11533,1.30304
205.87426,1.27707
205.63318,1.24259
205.39211,1.21300
205.15104,1.19255
204.90997,1.17818
204.66890,1.16582
204.42783,1.15226
204.18676,1.13516
203.94569,1.11610
203.70462,1.10025
203.46355,1.09076
203.22248,1.08559
202.98141,1.07849
202.74034,1.06275
202.49927,1.03720
202.25820,1.00810
202.01713,0.98339
201.77606,0.96618
201.53499,0.95340
201.29391,0.93931
201.05284,0.92148
200.81177,0.90309
200.57070,0.88819
200.32963,0.87684
200.08856,0.86640
199.84749,0.85527
199.60642,0.84331
199.36535,0.83010
199.12428,0.81514
198.88321,0.79970
198.64214,0.78675
198.40107,0.77829
198.16000,0.77292
197.91893,0.76657
197.67786,0.75648
197.43679,0.74382
197.19572,0.73142
196.95464,0.72089
196.71357,0.71215
196.47250,0.70391
196.23143,0.69478
195.99036,0.68472
195.74929,0.67537
195.50822,0.66828
195.26715,0.66261
195.02608,0.65578
194.78501,0.64676
194.54394,0.63792
194.30287,0.63220
194.06180,0.62953
193.82073,0.62694
193.57966,0.62158
193.33859,0.61418
193.09752,0.60851
192.85645,0.60673
192.61537,0.60590
192.37430,0.60057
192.13323,0.59023
191.89216,0.58110
191.65109,0.57823
191.41002,0.57949
191.16895,0.57917
190.92788,0.57577
190.68681,0.57266
190.44574,0.57177
190.20467,0.57142
189.96360,0.57019
189.72253,0.56914
189.48146,0.56900
189.24039,0.56839
188.99932,0.56628
188.75825,0.56402
188.51718,0.56338
188.27610,0.56353
188.03503,0.56181
187.79396,0.55750
187.55289,0.55305
187.31182,0.55042
187.07075,0.54849
186.82968,0.54573
186.58861,0.54340
186.34754,0.54398
186.10647,0.54755
185.86540,0.55161
185.62433,0.55375
185.38326,0.55360
185.14219,0.55233
184.90112,0.55139
184.66005,0.55182
184.41898,0.55415
184.17791,0.55776
183.93683,0.56098
183.69576,0.56255
183.45469,0.56319
183.21362,0.56460
182.97255,0.56674
182.73148,0.56815
182.49041,0.56940
182.24934,0.57284
182.00827,0.57743
181.76720,0.57884
181.52613,0.57670
181.28506,0.57548
181.04399,0.57739
180.80292,0.58069
180.56185,0.58404
180.32078,0.58717
180.07971,0.58896
179.83864,0.58960
179.59756,0.59212
179.35649,0.59891
179.11542,0.60878
178.87435,0.61847
178.63328,0.62638
178.39221,0.63434
178.15114,0.64483
177.91007,0.65747
177.66900,0.67060
177.42793,0.68443
177.18686,0.69944
176.94579,0.71428
176.70472,0.72889
176.46365,0.74573
176.22258,0.76511
175.98151,0.78366
175.74044,0.79942
175.49937,0.81454
175.25829,0.83170
175.01722,0.85151
174.77615,0.87320
174.53508,0.89584
174.29401,0.91946
174.05294,0.94613
173.81187,0.97741
173.57080,1.01059
173.32973,1.04001
173.08866,1.06182
172.84759,1.07517
172.60652,1.08047
172.36545,1.07990
172.12438,1.07730
171.88331,1.07493
171.64224,1.07227
171.40117,1.06884
171.16010,1.06596
170.91902,1.06420
170.67795,1.06108
170.43688,1.05424
170.19581,1.04613
169.95474,1.04215
169.71367,1.04394
169.47260,1.04712
169.23153,1.04567
168.99046,1.03698
168.74939,1.02261
168.50832,1.00604
168.26725,0.99110
168.02618,0.98178
167.78511,0.98026
167.54404,0.98473
167.30297,0.99108
167.06190,0.99633
166.82083,0.99915
166.57975,0.99894
166.33868,0.99638
166.09761,0.99371
165.85654,0.99371
165.61547,0.99898
165.37440,1.01087
165.13333,1.02865
164.89226,1.04976
164.65119,1.06971
164.41012,1.08398
164.16905,1.09281
163.92798,1.10082
163.68691,1.11096
163.44584,1.12305
163.20477,1.13698
162.96370,1.15419
162.72263,1.17605
162.48156,1.19844
162.24048,1.21268
161.99941,1.21518
161.75834,1.21030
161.51727,1.20348
161.27620,1.19759
161.03513,1.19457
160.79406,1.19639
160.55299,1.20332
160.31192,1.21231
160.07085,1.21892
159.82978,1.22010
159.58871,1.21491
159.34764,1.20448
159.10657,1.19224
158.86550,1.18178
158.62443,1.17422
158.38336,1.16933
158.14229,1.16736
157.90121,1.16503
157.66014,1.15428
157.41907,1.13389
157.17800,1.11327
156.93693,1.10061
156.69586,1.09819
156.45479,1.10446
156.21372,1.11265
155.97265,1.11140
155.73158,1.09571
155.49051,1.07307
155.24944,1.05223
155.00837,1.03504
154.76730,1.02114
154.52623,1.01169
154.28516,1.00523
154.04409,0.99473
153.80302,0.97432
153.56194,0.94687
153.32087,0.92111
153.07980,0.90255
152.83873,0.88856
152.59766,0.87176
152.35659,0.84786
152.11552,0.81968
151.87445,0.79326
151.63338,0.77209
151.39231,0.75571
151.15124,0.74179
150.91017,0.72775
150.66910,0.71093
150.42803,0.69020
150.18696,0.66844
149.94589,0.65075
149.70482,0.63923
149.46375,0.63093
149.22267,0.62104
148.98160,0.60783
148.74053,0.59394
148.49946,0.58325
148.25839,0.57743
148.01732,0.57526
147.77625,0.57405
147.53518,0.57164
147.29411,0.56789
147.05304,0.56471
146.81197,0.56451
146.57090,0.56788
146.32983,0.57260
146.08876,0.57559
145.84769,0.57650
145.60662,0.57823
145.36555,0.58351
145.12448,0.59154
144.88340,0.59862
144.64233,0.60310
144.40126,0.60776
144.16019,0.61552
143.91912,0.62454
143.67805,0.62940
143.43698,0.62698
143.19591,0.61924
142.95484,0.60972
142.71377,0.59989
142.47270,0.58976
142.23163,0.57964
141.99056,0.56965
141.74949,0.55910
141.50842,0.54833
141.26735,0.53967
141.02628,0.53490
140.78521,0.53273
140.54413,0.53008
140.30306,0.52628
140.06199,0.52408
139.82092,0.52600
139.57985,0.53129
139.33878,0.53704
139.09771,0.54135
138.85664,0.54514
138.61557,0.55109
138.37450,0.56093
138.13343,0.57411
137.89236,0.58928
137.65129,0.60564
137.41022,0.62261
137.16915,0.64022
136.92808,0.65975
136.68701,0.68138
136.44594,0.70334
136.20486,0.72614
135.96379,0.75319
135.72272,0.78489
135.48165,0.81731
135.24058,0.84933
134.99951,0.88416
134.75844,0.92261
134.51737,0.96205
134.27630,1.00114
134.03523,1.04043
133.79416,1.07901
133.55309,1.11421
133.31202,1.14523
133.07095,1.17543
132.82988,1.20717
132.58881,1.23599
132.34774,1.25513
132.10667,1.26338
131.86559,1.26274
131.62452,1.25199
131.38345,1.22990
131.14238,1.19981
130.90131,1.16698
130.66024,1.13547
130.41917,1.10658
130.17810,1.07875
129.93703,1.04770
129.69596,1.00888
129.45489,0.96251
129.21382,0.91368
128.97275,0.86661
128.73168,0.82171
128.49061,0.77791
128.24954,0.73636
128.00847,0.70100
127.76740,0.67396
127.52632,0.65172
127.28525,0.62844
127.04418,0.60272
126.80311,0.57792
126.56204,0.55691
126.32097,0.53981
126.07990,0.52596
125.83883,0.51492
125.59776,0.50579
125.35669,0.49716
125.11562,0.48751
124.87455,0.47571
124.63348,0.46203
124.39241,0.44863
124.15134,0.43812
123.91027,0.43141
123.66920,0.42741
123.42812,0.42459
123.18705,0.42228
122.94598,0.42029
122.70491,0.41881
122.46384,0.41855
122.22277,0.41970
121.98170,0.42114
121.74063,0.42193
121.49956,0.42314
121.25849,0.42702
121.01742,0.43527
120.77635,0.44781
120.53528,0.46219
120.29421,0.47554
120.05314,0.48839
119.81207,0.50428
119.57100,0.52488
119.32993,0.54872
119.08885,0.57540
118.84778,0.60730
118.60671,0.64554
118.36564,0.68725
118.12457,0.72773
117.88350,0.76325
117.64243,0.79107
117.40136,0.80958
117.16029,0.81953
116.91922,0.82316
116.67815,0.82126
116.43708,0.81325
116.19601,0.80087
115.95494,0.78883
115.71387,0.77987
115.47280,0.77137
115.23173,0.75857
114.99066,0.74051
114.74958,0.72173
114.50851,0.70829
114.26744,0.70250
114.02637,0.70128
113.78530,0.69925
113.54423,0.69361
113.30316,0.68550
113.06209,0.67759
112.82102,0.67181
112.57995,0.66927
112.33888,0.67143
112.09781,0.68074
111.85674,0.69859
111.61567,0.72272
111.37460,0.74762
111.13353,0.76600
110.89246,0.77144
110.65139,0.76416
110.41031,0.75125
110.16924,0.73901
109.92817,0.72973
109.68710,0.72383
109.44603,0.71943
109.20496,0.71190
108.96389,0.69797
108.72282,0.67713
108.48175,0.64846
108.24068,0.61252
107.99961,0.57463
107.75854,0.54215
107.51747,0.51949
107.27640,0.50552
107.03533,0.49545
106.79426,0.48528
106.55319,0.47273
106.31212,0.45567
106.07104,0.43448
105.82997,0.41414
105.58890,0.39976
105.34783,0.39124
105.10676,0.38458
104.86569,0.37666
104.62462,0.36621
104.38355,0.35262
104.14248,0.33705
103.90141,0.32345
103.66034,0.31618
103.41927,0.31566
103.17820,0.31682
102.93713,0.31347
102.69606,0.30442
102.45499,0.29363
102.21392,0.28536
101.97285,0.28121
101.73177,0.28101
101.49070,0.28350
101.24963,0.28571
101.00856,0.28427
100.76749,0.27849
100.52642,0.27083
100.28535,0.26415
100.04428,0.25981
99.80321,0.25745
99.56214,0.25543
99.32107,0.25251
99.08000,0.24919
98.83893,0.24736
98.59786,0.24874
98.35679,0.25304
98.11572,0.25653
97.87465,0.25497
97.63358,0.24997
97.39250,0.24824
97.15143,0.25396
96.91036,0.26411
96.66929,0.27048
96.42822,0.26933
96.18715,0.26783
95.94608,0.27509
95.70501,0.29080
95.46394,0.30504
95.22287,0.31092
94.98180,0.31363
94.74073,0.32093
94.49966,0.33155
94.25859,0.33705
94.01752,0.33439
93.77645,0.33087
93.53538,0.33322
93.29431,0.33891
93.05323,0.34134
92.81216,0.34017
92.57109,0.34039
92.33002,0.34292
92.08895,0.34397
91.84788,0.34498
91.60681,0.35209
91.36574,0.36446
91.12467,0.37643
90.88360,0.39183
90.64253,0.41977
90.40146,0.45777
90.16039,0.49743
89.91932,0.54173
89.67825,0.59653
89.43718,0.65404
89.19611,0.70394
88.95504,0.74782
88.71396,0.78205
88.47289,0.79095
88.23182,0.76887
87.99075,0.72615
87.74968,0.67349
87.50861,0.61544
87.26754,0.55582
87.02647,0.50159
86.78540,0.45801
86.54433,0.42392
86.30326,0.39469
86.06219,0.36788
85.82112,0.34346
85.58005,0.32114
85.33898,0.30060
85.09791,0.28200
84.85684,0.26504
84.61577,0.24928
84.37469,0.23507
84.13362,0.22307
83.89255,0.21352
83.65148,0.20601
83.41041,0.19940
83.16934,0.19257
82.92827,0.18598
82.68720,0.18191
82.44613,0.18178
82.20506,0.18389
81.96399,0.18481
81.72292,0.18311
81.48185,0.18053
81.24078,0.17946
80.99971,0.18029
80.75864,0.18142
80.51757,0.18097
80.27650,0.17855
80.03542,0.17521
79.79435,0.17211
79.55328,0.16978
79.31221,0.16846
79.07114,0.16785
78.83007,0.16672
78.58900,0.16398
78.34793,0.16048
78.10686,0.15817
77.86579,0.15729
77.62472,0.15611
77.38365,0.15382
77.14258,0.15174
76.90151,0.15113
76.66044,0.15135
76.41937,0.15053
76.17830,0.14768
75.93723,0.14404
75.69615,0.14187
75.45508,0.14157
75.21401,0.14076
74.97294,0.13708
74.73187,0.13149
74.49080,0.12793
74.24973,0.12984
74.00866,0.13649
73.76759,0.14397
73.52652,0.14955
73.28545,0.15303
73.04438,0.15447
72.80331,0.15430
72.56224,0.15464
72.32117,0.15679
72.08010,0.15893
71.83903,0.15933
71.59796,0.15915
71.35688,0.15997
71.11581,0.16142
70.87474,0.16326
70.63367,0.16772
70.39260,0.17820
70.15153,0.19635
69.91046,0.22101
69.66939,0.24904
69.42832,0.27525
69.18725,0.29167
68.94618,0.29069
68.70511,0.27169
68.46404,0.24256
68.22297,0.21336
67.98190,0.19022
67.74083,0.17438
67.49976,0.16474
67.25869,0.15951
67.01761,0.15562
66.77654,0.14954
66.53547,0.14057
66.29440,0.13164
66.05333,0.12623
65.81226,0.12592
65.57119,0.13060
65.33012,0.13929
65.08905,0.15085
64.84798,0.16417
64.60691,0.17775
64.36584,0.18994
64.12477,0.19956
63.88370,0.20548
63.64263,0.20587
63.40156,0.19962
63.16049,0.18868
62.91942,0.17771
62.67834,0.17062
62.43727,0.16795
62.19620,0.16705
61.95513,0.16423
61.71406,0.15728
61.47299,0.14668
61.23192,0.13449
60.99085,0.12291
60.74978,0.11386
60.50871,0.10918
60.26764,0.10995
60.02657,0.11525
59.78550,0.12236
59.54443,0.12902
59.30336,0.13500
59.06229,0.14168
58.82122,0.15060
58.58015,0.16252
58.33907,0.17696
58.09800,0.19201
57.85693,0.20418
57.61586,0.20872
57.37479,0.20095
57.13372,0.17937
56.89265,0.14874
56.65158,0.11836
56.41051,0.09671
56.16944,0.08831
55.92837,0.09415
55.68730,0.11315
55.44623,0.14296
55.20516,0.17877
54.96409,0.20906
54.72302,0.21545
54.48195,0.19178
54.24088,0.15566
53.99980,0.12651
53.75873,0.11353
53.51766,0.11889
53.27659,0.14134
53.03552,0.17686
52.79445,0.21142
52.55338,0.21626
52.31231,0.18429
52.07124,0.14462
51.83017,0.11867
51.58910,0.11323
51.34803,0.12888
51.10696,0.15760
50.86589,0.17645
50.62482,0.16373
50.38375,0.13134
50.14268,0.10848
49.90161,0.11581
49.66053,0.16241
49.41946,0.22555
49.17839,0.22553
48.93732,0.15644
48.69625,0.10588
48.45518,0.10806
48.21411,0.15613
47.97304,0.20103
47.73197,0.17942
47.49090,0.13608
47.24983,0.12844
47.00876,0.15742
46.76769,0.16949
46.52662,0.13408
46.28555,0.10953
46.04448,0.12311
45.80341,0.14402
45.56234,0.14421
45.32126,0.14808
45.08019,0.16626
44.83912,0.16765
44.59805,0.14918
44.35698,0.14708
44.11591,0.16654
43.87484,0.18246
43.63377,0.18810
43.39270,0.19448
43.15163,0.19998
42.91056,0.19748
42.66949,0.19046
42.42842,0.18687
42.18735,0.18673
41.94628,0.18256
41.70521,0.17374
41.46414,0.16955
41.22307,0.17375
40.98199,0.17937
40.74092,0.18112
40.49985,0.18097
40.25878,0.18098
40.01771,0.18358
39.77664,0.19377
39.53557,0.21315
39.29450,0.23620
39.05343,0.25381
38.81236,0.25921
38.57129,0.25366
38.33022,0.24724
38.08915,0.25208
37.84808,0.27097
37.60701,0.29109
37.36594,0.29552
37.12487,0.28180
36.88380,0.26019
36.64272,0.24152
36.40165,0.23524
36.16058,0.24526
35.91951,0.25980
35.67844,0.26166
35.43737,0.25537
35.19630,0.26030
34.95523,0.28305
34.71416,0.30905
34.47309,0.31836
34.23202,0.31061
33.99095,0.30086
33.74988,0.29016
33.50881,0.26837
33.26774,0.23928
33.02667,0.22341
32.78560,0.23190
32.54453,0.25067
32.30345,0.26219
32.06238,0.26503
31.82131,0.25943
31.58024,0.23707
31.33917,0.19990
31.09810,0.16932
30.85703,0.16248
30.61596,0.17298
30.37489,0.18319
30.13382,0.18417
29.89275,0.17955
29.65168,0.17631
29.41061,0.17574
29.16954,0.17456
28.92847,0.17064
28.68740,0.16098
28.44633,0.14258
28.20526,0.12172
27.96418,0.10919
27.72311,0.10590
27.48204,0.10880
27.24097,0.11835
26.99990,0.12857
26.75883,0.12459
26.51776,0.10031
26.27669,0.06994
26.03562,0.05364
25.79455,0.05539
25.55348,0.06219
25.31241,0.06326
25.07134,0.05775
24.83027,0.04764
24.58920,0.03719
24.34813,0.03240
24.10706,0.03164
23.86599,0.02420
23.62491,0.00621
23.38384,-0.00810
23.14277,-0.00779
22.90170,-0.00697
22.66063,-0.02080
22.41956,-0.03524
22.17849,-0.02948
21.93742,-0.01357
21.69635,-0.01327
21.45528,-0.03630
21.21421,-0.06813
20.97314,-0.08984
20.73207,-0.09238
20.49100,-0.07817
20.24993,-0.05534
20.00886,-0.03491
19.76779,-0.03168
19.52672,-0.05596
19.28564,-0.09638
19.04457,-0.12289
18.80350,-0.12431
18.56243,-0.12134
18.32136,-0.13041
18.08029,-0.14128
17.83922,-0.14045
17.59815,-0.13703
17.35708,-0.14352
17.11601,-0.15079
16.87494,-0.14737
16.63387,-0.15133
16.39280,-0.17767
16.15173,-0.20693
15.91066,-0.22043
15.66959,-0.22362
15.42852,-0.22546
15.18745,-0.22279
14.94637,-0.20840
14.70530,-0.18403
14.46423,-0.16583
14.22316,-0.17027
13.98209,-0.19630
13.74102,-0.22409
13.49995,-0.23060
13.25888,-0.21329
13.01781,-0.18852
12.77674,-0.16995
12.53567,-0.16408
12.29460,-0.17233
12.05353,-0.18898
11.81246,-0.20390
11.57139,-0.21593
11.33032,-0.23420
11.08925,-0.25788
10.84818,-0.27308
10.60710,-0.27049
10.36603,-0.25381
10.12496,-0.23703
9.88389,-0.23776
9.64282,-0.25787
9.40175,-0.27627
9.16068,-0.27713
8.91961,-0.26688
8.67854,-0.25676
8.43747,-0.25206
8.19640,-0.25317
7.95533,-0.25122
7.71426,-0.24097
7.47319,-0.23464
7.23212,-0.24151
6.99105,-0.25612
6.74998,-0.26618
6.50891,-0.25937
6.26783,-0.24690
6.02676,-0.24682
5.78569,-0.25612
5.54462,-0.26064
5.30355,-0.25483
5.06248,-0.24257
4.82141,-0.23173
4.58034,-0.22861
4.33927,-0.23013
4.09820,-0.23432
3.85713,-0.24999
3.61606,-0.26695
3.37499,-0.26690
3.13392,-0.25810
2.89285,-0.25598
2.65178,-0.25300
2.41071,-0.23971
2.16964,-0.22652
1.92856,-0.22196
1.68749,-0.23140
1.44642,-0.25718
1.20535,-0.27369
0.96428,-0.26977
0.72321,-0.28091
0.48214,-0.33825
0.24107,-0.36159
-0.00000,-0.31013
