399.69498,1.55489
399.45391,1.55033
399.21284,1.54447
398.97177,1.53624
398.73070,1.52858
398.48963,1.52551
398.24856,1.53005
398.00749,1.54404
397.76642,1.56364
397.52535,1.57851
397.28428,1.57937
397.04321,1.56691
396.80214,1.54847
396.56107,1.53126
396.32000,1.52355
396.07892,1.53203
395.83785,1.55072
395.59678,1.56067
395.35571,1.55484
395.11464,1.54431
394.87357,1.53252
394.63250,1.51439
394.39143,1.49283
394.15036,1.48066
393.90929,1.49141
393.66822,1.52601
393.42715,1.56970
393.18608,1.60017
392.94501,1.60369
392.70394,1.58940
392.46287,1.57022
392.22180,1.54950
391.98073,1.53304
391.73965,1.53161
391.49858,1.54398
391.25751,1.55314
391.01644,1.55082
390.77537,1.54753
390.53430,1.55174
390.29323,1.55879
390.05216,1.55924
389.81109,1.54510
389.57002,1.51809
389.32895,1.49445
389.08788,1.48806
388.84681,1.49284
388.60574,1.48640
388.36467,1.45924
388.12360,1.43257
387.88253,1.43040
387.64146,1.45246
387.40038,1.47778
387.15931,1.48789
386.91824,1.48353
386.67717,1.47284
386.43610,1.46261
386.19503,1.46169
385.95396,1.47023
385.71289,1.46853
385.47182,1.44367
385.23075,1.41489
384.98968,1.39983
384.74861,1.39587
384.50754,1.39980
384.26647,1.41368
384.02540,1.43033
383.78433,1.43264
383.54326,1.41328
383.30219,1.38602
383.06111,1.36467
382.82004,1.35360
382.57897,1.35705
382.33790,1.37261
382.09683,1.38049
381.85576,1.36555
381.61469,1.33966
381.37362,1.31676
381.13255,1.29871
380.89148,1.29129
380.65041,1.30426
380.40934,1.33161
380.16827,1.34955
379.92720,1.34997
379.68613,1.35361
379.44506,1.37672
379.20399,1.40627
378.96292,1.41180
378.72184,1.38814
378.48077,1.35774
378.23970,1.33395
377.99863,1.31640
377.75756,1.30975
377.51649,1.32052
377.27542,1.34346
377.03435,1.36607
376.79328,1.38083
376.55221,1.38944
376.31114,1.39833
376.07007,1.40711
375.82900,1.41218
375.58793,1.41593
375.34686,1.42169
375.10579,1.42682
374.86472,1.42742
374.62365,1.42330
374.38257,1.41702
374.14150,1.41099
373.90043,1.40334
373.65936,1.38911
373.41829,1.36871
373.17722,1.35095
372.93615,1.34521
372.69508,1.35341
372.45401,1.36835
372.21294,1.37821
371.97187,1.37720
371.73080,1.37223
371.48973,1.37176
371.24866,1.37294
371.00759,1.36887
370.76652,1.36110
370.52545,1.35701
370.28437,1.35861
370.04330,1.36146
369.80223,1.36357
369.56116,1.36676
369.32009,1.36790
369.07902,1.35857
368.83795,1.33956
368.59688,1.32193
368.35581,1.31094
368.11474,1.30224
367.87367,1.29283
367.63260,1.28707
367.39153,1.28875
367.15046,1.29471
366.90939,1.29869
366.66832,1.29814
366.42725,1.29565
366.18618,1.29552
365.94510,1.29980
365.70403,1.30421
365.46296,1.30287
365.22189,1.29651
364.98082,1.29036
364.73975,1.28672
364.49868,1.28250
364.25761,1.27330
364.01654,1.25988
363.77547,1.24896
363.53440,1.24558
363.29333,1.24755
363.05226,1.25055
362.81119,1.25465
362.57012,1.26055
362.32905,1.26309
362.08798,1.25706
361.84691,1.24637
361.60583,1.23927
361.36476,1.23815
361.12369,1.23960
360.88262,1.24132
360.64155,1.24328
360.40048,1.24350
360.15941,1.23919
359.91834,1.23248
359.67727,1.22850
359.43620,1.22884
359.19513,1.23121
358.95406,1.23366
358.71299,1.23671
358.47192,1.24189
358.23085,1.25015
357.98978,1.26031
357.74871,1.26690
357.50764,1.26341
357.26656,1.25078
357.02549,1.23872
356.78442,1.23588
356.54335,1.24156
356.30228,1.24743
356.06121,1.24612
355.82014,1.23806
355.57907,1.22986
355.33800,1.22765
355.09693,1.23307
354.85586,1.24223
354.61479,1.24688
354.37372,1.24148
354.13265,1.23001
353.89158,1.22198
353.65051,1.22374
353.40944,1.23395
353.16837,1.24507
352.92729,1.24851
352.68622,1.24185
352.44515,1.23231
352.20408,1.22968
351.96301,1.23697
351.72194,1.24971
351.48087,1.26109
351.23980,1.26471
350.99873,1.25654
350.75766,1.24005
350.51659,1.22561
350.27552,1.22227
350.03445,1.22973
349.79338,1.23794
349.55231,1.23852
349.31124,1.23459
349.07017,1.23447
348.82910,1.24182
348.58802,1.25292
348.34695,1.26321
348.10588,1.27324
347.86481,1.28270
347.62374,1.28658
347.38267,1.28510
347.14160,1.28702
346.90053,1.29446
346.65946,1.29684
346.41839,1.28941
346.17732,1.28295
345.93625,1.28450
345.69518,1.28598
345.45411,1.28031
345.21304,1.27476
344.97197,1.27978
344.73090,1.29624
344.48983,1.31626
344.24875,1.33041
344.00768,1.33374
343.76661,1.32924
343.52554,1.32323
343.28447,1.31843
343.04340,1.31642
342.80233,1.32071
342.56126,1.33151
342.32019,1.34184
342.07912,1.34459
341.83805,1.34086
341.59698,1.33777
341.35591,1.34179
341.11484,1.35432
340.87377,1.36854
340.63270,1.37471
340.39163,1.37214
340.15056,1.37146
339.90948,1.38326
339.66841,1.40918
339.42734,1.44223
339.18627,1.47008
338.94520,1.48129
338.70413,1.47583
338.46306,1.46800
338.22199,1.46885
337.98092,1.47097
337.73985,1.46049
337.49878,1.43956
337.25771,1.42614
337.01664,1.42850
336.77557,1.43405
336.53450,1.43148
336.29343,1.42487
336.05236,1.41856
335.81129,1.41216
335.57021,1.40732
335.32914,1.40598
335.08807,1.40458
334.84700,1.39855
334.60593,1.38942
334.36486,1.38462
334.12379,1.39118
333.88272,1.40406
333.64165,1.40785
333.40058,1.39726
333.15951,1.38761
332.91844,1.39168
332.67737,1.39940
332.43630,1.39539
332.19523,1.38410
331.95416,1.37952
331.71309,1.38225
331.47202,1.38119
331.23094,1.36926
330.98987,1.34901
330.74880,1.32584
330.50773,1.30496
330.26666,1.29328
330.02559,1.29616
329.78452,1.31396
329.54345,1.34011
329.30238,1.36098
329.06131,1.36229
328.82024,1.34425
328.57917,1.32545
328.33810,1.31924
328.09703,1.32175
327.85596,1.32487
327.61489,1.32788
327.37382,1.33158
327.13275,1.33001
326.89167,1.31784
326.65060,1.30032
326.40953,1.28793
326.16846,1.28597
325.92739,1.29376
325.68632,1.31060
325.44525,1.33447
325.20418,1.35427
324.96311,1.35537
324.72204,1.33901
324.48097,1.32019
324.23990,1.30478
323.99883,1.28775
323.75776,1.27105
323.51669,1.26611
323.27562,1.27791
323.03455,1.29950
322.79348,1.32046
322.55240,1.33295
322.31133,1.33443
322.07026,1.32866
321.82919,1.32304
321.58812,1.32167
321.34705,1.31978
321.10598,1.31193
320.86491,1.30730
320.62384,1.31958
320.38277,1.34636
320.14170,1.37144
319.90063,1.37788
319.65956,1.36110
319.41849,1.33497
319.17742,1.31784
318.93635,1.31721
318.69528,1.32939
318.45421,1.34523
318.21313,1.35389
317.97206,1.34649
317.73099,1.32384
317.48992,1.29873
317.24885,1.28587
317.00778,1.29251
316.76671,1.31920
316.52564,1.35987
316.28457,1.39713
316.04350,1.41111
315.80243,1.40277
315.56136,1.38946
315.32029,1.38070
315.07922,1.37392
314.83815,1.36611
314.59708,1.36076
314.35601,1.36070
314.11494,1.36254
313.87386,1.36105
313.63279,1.35497
313.39172,1.34751
313.15065,1.34328
312.90958,1.34608
312.66851,1.35611
312.42744,1.36968
312.18637,1.38192
311.94530,1.38999
311.70423,1.39172
311.46316,1.38749
311.22209,1.38286
310.98102,1.38705
310.73995,1.40442
310.49888,1.42886
310.25781,1.44953
310.01674,1.45604
309.77567,1.44570
309.53459,1.43095
309.29352,1.42513
309.05245,1.42585
308.81138,1.41876
308.57031,1.39943
308.32924,1.38259
308.08817,1.38392
307.84710,1.40410
307.60603,1.42963
307.36496,1.44321
307.12389,1.43956
306.88282,1.43130
306.64175,1.42906
306.40068,1.43522
306.15961,1.44517
305.91854,1.44772
305.67747,1.43530
305.43640,1.41227
305.19532,1.39082
304.95425,1.37985
304.71318,1.37773
304.47211,1.37751
304.23104,1.37596
303.98997,1.37558
303.74890,1.37967
303.50783,1.38483
303.26676,1.38613
303.02569,1.38711
302.78462,1.39246
302.54355,1.39995
302.30248,1.40379
302.06141,1.39876
301.82034,1.38562
301.57927,1.37137
301.33820,1.35958
301.09713,1.34747
300.85605,1.33514
300.61498,1.32801
300.37391,1.32641
300.13284,1.32238
299.89177,1.30988
299.65070,1.29360
299.40963,1.28208
299.16856,1.27654
298.92749,1.27616
298.68642,1.28421
298.44535,1.29707
298.20428,1.29991
297.96321,1.28515
297.72214,1.26350
297.48107,1.24691
297.24000,1.23521
296.99893,1.22452
296.75786,1.21675
296.51678,1.21510
296.27571,1.21672
296.03464,1.21503
295.79357,1.20873
295.55250,1.20431
295.31143,1.20738
295.07036,1.21498
294.82929,1.21907
294.58822,1.21599
294.34715,1.20867
294.10608,1.20157
293.86501,1.19756
293.62394,1.19657
293.38287,1.19536
293.14180,1.19106
292.90073,1.18557
292.65966,1.18241
292.41859,1.18120
292.17751,1.17895
291.93644,1.17506
291.69537,1.17345
291.45430,1.17735
291.21323,1.18290
290.97216,1.18173
290.73109,1.17103
290.49002,1.15733
290.24895,1.14892
290.00788,1.14871
289.76681,1.15338
289.52574,1.15620
289.28467,1.15376
289.04360,1.14984
288.80253,1.14962
288.56146,1.15298
288.32039,1.15466
288.07932,1.15064
287.83824,1.14258
287.59717,1.13447
287.35610,1.12871
287.11503,1.12447
286.87396,1.12012
286.63289,1.11781
286.39182,1.12093
286.15075,1.12798
285.90968,1.13298
285.66861,1.13285
285.42754,1.12982
285.18647,1.12543
284.94540,1.11941
284.70433,1.11439
284.46326,1.11523
284.22219,1.12283
283.98112,1.13197
283.74005,1.13661
283.49897,1.13623
283.25790,1.13517
283.01683,1.13613
282.77576,1.13710
282.53469,1.13567
282.29362,1.13330
282.05255,1.13197
281.81148,1.12940
281.57041,1.12296
281.32934,1.11607
281.08827,1.11455
280.84720,1.11889
280.60613,1.12433
280.36506,1.12702
280.12399,1.12708
279.88292,1.12620
279.64185,1.12438
279.40078,1.12030
279.15970,1.11506
278.91863,1.11287
278.67756,1.11567
278.43649,1.12057
278.19542,1.12355
277.95435,1.12271
277.71328,1.11835
277.47221,1.11308
277.23114,1.11077
276.99007,1.11259
276.74900,1.11652
276.50793,1.12229
276.26686,1.13153
276.02579,1.14208
275.78472,1.14877
275.54365,1.15049
275.30258,1.15017
275.06151,1.14897
274.82043,1.14666
274.57936,1.14484
274.33829,1.14538
274.09722,1.14760
273.85615,1.14974
273.61508,1.15055
273.37401,1.14933
273.13294,1.14668
272.89187,1.14460
272.65080,1.14546
272.40973,1.15000
272.16866,1.15610
271.92759,1.16125
271.68652,1.16542
271.44545,1.16929
271.20438,1.17159
270.96331,1.17168
270.72224,1.17191
270.48116,1.17394
270.24009,1.17731
269.99902,1.18355
269.75795,1.19510
269.51688,1.20883
269.27581,1.21778
269.03474,1.22058
268.79367,1.22150
268.55260,1.22269
268.31153,1.22475
268.07046,1.23054
267.82939,1.24058
267.58832,1.24934
267.34725,1.25249
267.10618,1.25363
266.86511,1.25838
266.62404,1.26715
266.38297,1.27674
266.14189,1.28521
265.90082,1.29352
265.65975,1.30342
265.41868,1.31385
265.17761,1.32163
264.93654,1.32701
264.69547,1.33425
264.45440,1.34531
264.21333,1.35843
263.97226,1.37251
263.73119,1.38734
263.49012,1.40085
263.24905,1.41034
263.00798,1.41770
262.76691,1.43063
262.52584,1.45501
262.28477,1.48793
262.04370,1.52085
261.80262,1.54755
261.56155,1.56678
261.32048,1.58073
261.07941,1.59462
260.83834,1.61323
260.59727,1.63718
260.35620,1.66508
260.11513,1.69472
259.87406,1.72186
259.63299,1.74387
259.39192,1.76413
259.15085,1.78703
258.90978,1.81056
258.66871,1.82728
258.42764,1.83090
258.18657,1.82111
257.94550,1.80586
257.70443,1.78994
257.46335,1.77207
257.22228,1.75510
256.98121,1.74975
256.74014,1.75881
256.49907,1.76894
256.25800,1.76655
256.01693,1.75288
255.77586,1.73900
255.53479,1.73250
255.29372,1.73212
255.05265,1.72848
254.81158,1.71438
254.57051,1.69409
254.32944,1.67844
254.08837,1.66772
253.84730,1.65528
253.60623,1.64378
253.36516,1.64381
253.12408,1.65601
252.88301,1.66224
252.64194,1.64735
252.40087,1.62138
252.15980,1.60331
251.91873,1.59875
251.67766,1.60172
251.43659,1.60610
251.19552,1.60840
250.95445,1.60659
250.71338,1.60360
250.47231,1.60493
250.23124,1.60653
249.99017,1.59742
249.74910,1.57870
249.50803,1.56523
249.26696,1.56932
249.02589,1.58683
248.78481,1.59841
248.54374,1.58999
248.30267,1.56897
248.06160,1.55098
247.82053,1.54108
247.57946,1.53612
247.33839,1.53532
247.09732,1.53994
246.85625,1.54986
246.61518,1.56308
246.37411,1.57783
246.13304,1.59388
245.89197,1.60772
245.65090,1.61389
245.40983,1.61781
245.16876,1.63542
244.92769,1.67282
244.68661,1.71406
244.44554,1.73854
244.20447,1.74664
243.96340,1.75191
243.72233,1.76669
243.48126,1.80662
243.24019,1.88637
242.99912,1.99526
242.75805,2.07219
242.51698,2.04240
242.27591,1.93205
242.03484,1.80795
241.79377,1.69265
241.55270,1.59860
241.31163,1.52049
241.07056,1.44680
240.82949,1.37958
240.58842,1.32809
240.34734,1.29080
240.10627,1.25471
239.86520,1.21034
239.62413,1.16127
239.38306,1.11721
239.14199,1.08271
238.90092,1.05527
238.65985,1.03215
238.41878,1.01365
238.17771,0.99881
237.93664,0.98359
237.69557,0.96682
237.45450,0.95295
237.21343,0.94424
236.97236,0.93581
236.73129,0.92317
236.49022,0.90829
236.24915,0.89418
236.00807,0.88027
235.76700,0.86617
235.52593,0.85435
235.28486,0.84676
235.04379,0.84215
234.80272,0.83810
234.56165,0.83392
234.32058,0.83088
234.07951,0.83080
233.83844,0.83392
233.59737,0.83656
233.35630,0.83321
233.11523,0.82372
232.87416,0.81478
232.63309,0.81129
232.39202,0.81140
232.15095,0.81198
231.90988,0.81348
231.66880,0.81641
231.42773,0.81831
231.18666,0.81693
230.94559,0.81294
230.70452,0.80826
230.46345,0.80403
230.22238,0.80052
229.98131,0.79765
229.74024,0.79577
229.49917,0.79582
229.25810,0.79833
229.01703,0.80246
228.77596,0.80602
228.53489,0.80701
228.29382,0.80583
228.05275,0.80454
227.81168,0.80267
227.57061,0.79678
227.32953,0.78653
227.08846,0.77746
226.84739,0.77534
226.60632,0.78053
226.36525,0.78890
226.12418,0.79577
225.88311,0.79827
225.64204,0.79648
225.40097,0.79310
225.15990,0.79121
224.91883,0.79231
224.67776,0.79586
224.43669,0.80005
224.19562,0.80345
223.95455,0.80653
223.71348,0.81062
223.47241,0.81540
223.23134,0.81936
222.99026,0.82291
222.74919,0.82858
222.50812,0.83831
222.26705,0.85165
222.02598,0.86571
221.78491,0.87599
221.54384,0.87925
221.30277,0.87687
221.06170,0.87451
220.82063,0.87737
220.57956,0.88633
220.33849,0.89884
220.09742,0.91214
219.85635,0.92463
219.61528,0.93579
219.37421,0.94686
219.13314,0.95949
218.89207,0.97293
218.65099,0.98561
218.40992,0.99847
218.16885,1.01288
217.92778,1.02695
217.68671,1.03843
217.44564,1.04905
217.20457,1.06286
216.96350,1.08207
216.72243,1.10495
216.48136,1.12660
216.24029,1.14245
215.99922,1.15191
215.75815,1.15797
215.51708,1.16379
215.27601,1.17319
215.03494,1.19127
214.79387,1.22017
214.55280,1.25505
214.31172,1.28510
214.07065,1.30108
213.82958,1.30189
213.58851,1.29457
213.34744,1.29238
213.10637,1.30742
212.86530,1.33939
212.62423,1.37315
212.38316,1.39246
212.14209,1.39632
211.90102,1.39498
211.65995,1.39631
211.41888,1.40344
211.17781,1.41514
210.93674,1.42046
210.69567,1.40870
210.45460,1.38776
210.21353,1.37533
209.97245,1.38025
209.73138,1.39720
209.49031,1.40996
209.24924,1.40223
209.00817,1.37739
208.76710,1.35477
208.52603,1.34848
208.28496,1.35914
208.04389,1.37467
207.80282,1.37809
207.56175,1.36462
207.32068,1.34630
207.07961,1.33278
206.83854,1.32177
206.59747,1.30677
206.35640,1.28542
206.11533,1.25985
205.87426,1.23346
205.63318,1.20990
205.39211,1.19278
205.15104,1.18290
204.90997,1.17514
204.66890,1.16266
204.42783,1.14540
204.18676,1.12999
203.94569,1.12141
203.70462,1.11690
203.46355,1.10955
203.22248,1.09604
202.98141,1.07868
202.74034,1.06152
202.49927,1.04516
202.25820,1.02597
202.01713,1.00132
201.77606,0.97386
201.53499,0.94904
201.29391,0.92967
201.05284,0.91457
200.81177,0.90085
200.57070,0.88633
200.32963,0.87106
200.08856,0.85710
199.84749,0.84584
199.60642,0.83579
199.36535,0.82431
199.12428,0.81074
198.88321,0.79676
198.64214,0.78439
198.40107,0.77465
198.16000,0.76751
197.91893,0.76181
197.67786,0.75550
197.43679,0.74728
197.19572,0.73804
196.95464,0.72987
196.71357,0.72299
196.47250,0.71432
196.23143,0.70094
195.99036,0.68507
195.74929,0.67248
195.50822,0.66576
195.26715,0.66202
195.02608,0.65788
194.78501,0.65321
194.54394,0.64862
194.30287,0.64333
194.06180,0.63680
193.82073,0.62954
193.57966,0.62221
193.33859,0.61596
193.09752,0.61205
192.85645,0.60958
192.61537,0.60530
192.37430,0.59793
192.13323,0.59115
191.89216,0.58895
191.65109,0.58929
191.41002,0.58628
191.16895,0.57916
190.92788,0.57325
190.68681,0.57152
190.44574,0.57130
190.20467,0.57008
189.96360,0.56931
189.72253,0.56994
189.48146,0.56944
189.24039,0.56613
188.99932,0.56244
188.75825,0.56069
188.51718,0.55953
188.27610,0.55681
188.03503,0.55304
187.79396,0.55023
187.55289,0.54938
187.31182,0.55005
187.07075,0.55071
186.82968,0.55014
186.58861,0.54925
186.34754,0.54999
186.10647,0.55178
185.86540,0.55194
185.62433,0.55024
185.38326,0.54989
185.14219,0.55313
184.90112,0.55835
184.66005,0.56252
184.41898,0.56477
184.17791,0.56609
183.93683,0.56671
183.69576,0.56617
183.45469,0.56504
183.21362,0.56447
182.97255,0.56438
182.73148,0.56429
182.49041,0.56498
182.24934,0.56731
182.00827,0.57083
181.76720,0.57468
181.52613,0.57853
181.28506,0.58192
181.04399,0.58477
180.80292,0.58794
180.56185,0.59125
180.32078,0.59267
180.07971,0.59200
179.83864,0.59229
179.59756,0.59576
179.35649,0.60155
179.11542,0.60833
178.87435,0.61585
178.63328,0.62427
178.39221,0.63413
178.15114,0.64625
177.91007,0.66004
177.66900,0.67373
177.42793,0.68685
177.18686,0.70066
176.94579,0.71540
176.70472,0.72877
176.46365,0.73883
176.22258,0.74805
175.98151,0.76173
175.74044,0.78212
175.49937,0.80702
175.25829,0.83382
175.01722,0.86240
174.77615,0.89377
174.53508,0.92673
174.29401,0.95623
174.05294,0.97843
173.81187,0.99652
173.57080,1.01484
173.32973,1.03116
173.08866,1.04122
172.84759,1.04695
172.60652,1.05452
172.36545,1.06743
172.12438,1.08423
171.88331,1.09962
171.64224,1.10801
171.40117,1.10788
171.16010,1.10003
170.91902,1.08565
170.67795,1.06908
170.43688,1.05642
170.19581,1.05117
169.95474,1.05239
169.71367,1.05539
169.47260,1.05380
169.23153,1.04336
168.99046,1.02524
168.74939,1.00542
168.50832,0.99045
168.26725,0.98334
168.02618,0.98350
167.78511,0.98916
167.54404,0.99736
167.30297,1.00291
167.06190,1.00211
166.82083,0.99697
166.57975,0.99234
166.33868,0.99153
166.09761,0.99643
165.85654,1.00716
165.61547,1.02040
165.37440,1.03154
165.13333,1.03897
164.89226,1.04450
164.65119,1.05165
164.41012,1.06444
164.16905,1.08533
163.92798,1.11176
163.68691,1.13569
163.44584,1.14993
163.20477,1.15481
162.96370,1.15645
162.72263,1.16087
162.48156,1.17206
162.24048,1.19128
161.99941,1.21492
161.75834,1.23512
161.51727,1.24450
161.27620,1.24185
161.03513,1.23381
160.79406,1.22952
160.55299,1.23319
160.31192,1.24024
160.07085,1.24162
159.82978,1.23217
159.58871,1.21258
159.34764,1.18721
159.10657,1.16268
158.86550,1.14644
158.62443,1.14317
158.38336,1.14930
158.14229,1.15307
157.90121,1.14482
157.66014,1.12701
157.41907,1.10904
157.17800,1.09816
156.93693,1.09693
156.69586,1.10175
156.45479,1.10369
156.21372,1.09673
155.97265,1.08466
155.73158,1.07593
155.49051,1.07389
155.24944,1.07201
155.00837,1.05953
154.76730,1.03516
154.52623,1.00806
154.28516,0.98589
154.04409,0.96961
153.80302,0.95598
153.56194,0.94153
153.32087,0.92499
153.07980,0.90610
152.83873,0.88468
152.59766,0.86096
152.35659,0.83547
152.11552,0.80949
151.87445,0.78609
151.63338,0.76775
151.39231,0.75319
151.15124,0.73888
150.91017,0.72266
150.66910,0.70430
150.42803,0.68476
150.18696,0.66608
149.94589,0.65030
149.70482,0.63766
149.46375,0.62645
149.22267,0.61508
148.98160,0.60423
148.74053,0.59589
148.49946,0.59028
148.25839,0.58540
148.01732,0.57949
147.77625,0.57313
147.53518,0.56830
147.29411,0.56622
147.05304,0.56631
146.81197,0.56715
146.57090,0.56813
146.32983,0.56978
146.08876,0.57282
145.84769,0.57739
145.60662,0.58276
145.36555,0.58759
145.12448,0.59163
144.88340,0.59694
144.64233,0.60534
144.40126,0.61462
144.16019,0.62010
143.91912,0.62093
143.67805,0.62092
143.43698,0.62130
143.19591,0.61802
142.95484,0.60845
142.71377,0.59601
142.47270,0.58484
142.23163,0.57468
141.99056,0.56381
141.74949,0.55325
141.50842,0.54552
141.26735,0.54099
141.02628,0.53775
140.78521,0.53404
140.54413,0.52977
140.30306,0.52552
140.06199,0.52189
139.82092,0.52026
139.57985,0.52269
139.33878,0.52952
139.09771,0.53828
138.85664,0.54608
138.61557,0.55266
138.37450,0.56037
138.13343,0.57177
137.89236,0.58774
137.65129,0.60704
137.41022,0.62705
137.16915,0.64575
136.92808,0.66315
136.68701,0.68107
136.44594,0.70211
136.20486,0.72802
135.96379,0.75800
135.72272,0.78959
135.48165,0.82144
135.24058,0.85370
134.99951,0.88638
134.75844,0.92012
134.51737,0.95629
134.27630,0.99458
134.03523,1.03353
133.79416,1.07214
133.55309,1.10784
133.31202,1.13774
133.07095,1.16422
132.82988,1.19129
132.58881,1.21561
132.34774,1.23185
132.10667,1.24429
131.86559,1.25911
131.62452,1.26892
131.38345,1.25919
131.14238,1.22860
130.90131,1.18917
130.66024,1.15038
130.41917,1.11370
130.17810,1.07747
129.93703,1.04003
129.69596,0.99989
129.45489,0.95713
129.21382,0.91369
128.97275,0.87101
128.73168,0.82956
128.49061,0.78996
128.24954,0.75217
128.00847,0.71572
127.76740,0.68195
127.52632,0.65347
127.28525,0.63088
127.04418,0.61161
126.80311,0.59189
126.56204,0.56984
126.32097,0.54735
126.07990,0.52824
125.83883,0.51416
125.59776,0.50321
125.35669,0.49285
125.11562,0.48258
124.87455,0.47296
124.63348,0.46369
124.39241,0.45428
124.15134,0.44555
123.91027,0.43892
123.66920,0.43437
123.42812,0.43066
123.18705,0.42718
122.94598,0.42395
122.70491,0.42071
122.46384,0.41798
122.22277,0.41735
121.98170,0.41955
121.74063,0.42346
121.49956,0.42786
121.25849,0.43297
121.01742,0.43999
120.77635,0.45014
120.53528,0.46373
120.29421,0.47982
120.05314,0.49725
119.81207,0.51572
119.57100,0.53566
119.32993,0.55720
119.08885,0.57957
118.84778,0.60204
118.60671,0.62571
118.36564,0.65307
118.12457,0.68482
117.88350,0.71852
117.64243,0.75102
117.40136,0.78103
117.16029,0.80919
116.91922,0.83574
116.67815,0.85573
116.43708,0.86020
116.19601,0.84674
115.95494,0.82193
115.71387,0.79247
115.47280,0.76207
115.23173,0.73492
114.99066,0.71552
114.74958,0.70493
114.50851,0.70084
114.26744,0.70035
114.02637,0.69979
113.78530,0.69405
113.54423,0.68117
113.30316,0.66640
113.06209,0.65746
112.82102,0.65830
112.57995,0.66821
112.33888,0.68422
112.09781,0.70337
111.85674,0.72229
111.61567,0.73540
111.37460,0.73907
111.13353,0.73770
110.89246,0.73841
110.65139,0.74193
110.41031,0.74428
110.16924,0.74477
109.92817,0.74620
109.68710,0.74588
109.44603,0.73408
109.20496,0.70626
108.96389,0.66961
108.72282,0.63514
108.48175,0.60974
108.24068,0.59359
107.99961,0.58075
107.75854,0.56351
107.51747,0.53828
107.27640,0.50767
107.03533,0.47815
106.79426,0.45615
106.55319,0.44446
106.31212,0.43959
106.07104,0.43334
105.82997,0.42015
105.58890,0.40207
105.34783,0.38512
105.10676,0.37409
104.86569,0.37005
104.62462,0.36886
104.38355,0.36315
104.14248,0.34942
103.90141,0.33226
103.66034,0.31952
103.41927,0.31456
103.17820,0.31381
102.93713,0.31107
102.69606,0.30405
102.45499,0.29577
102.21392,0.29048
101.97285,0.28952
101.73177,0.29067
101.49070,0.29012
101.24963,0.28557
101.00856,0.27805
100.76749,0.27106
100.52642,0.26751
100.28535,0.26655
100.04428,0.26403
99.80321,0.25807
99.56214,0.25199
99.32107,0.24967
99.08000,0.25048
98.83893,0.25070
98.59786,0.24854
98.35679,0.24579
98.11572,0.24503
97.87465,0.24770
97.63358,0.25285
97.39250,0.25595
97.15143,0.25316
96.91036,0.24884
96.66929,0.25192
96.42822,0.26401
96.18715,0.27623
95.94608,0.28198
95.70501,0.28727
95.46394,0.29898
95.22287,0.31247
94.98180,0.31827
94.74073,0.31744
94.49966,0.31948
94.25859,0.32711
94.01752,0.33378
93.77645,0.33457
93.53538,0.33289
93.29431,0.33355
93.05323,0.33583
92.81216,0.33706
92.57109,0.33759
92.33002,0.33808
92.08895,0.33780
91.84788,0.33855
91.60681,0.34378
91.36574,0.35346
91.12467,0.36677
90.88360,0.38663
90.64253,0.41470
90.40146,0.44887
90.16039,0.49086
89.91932,0.54431
89.67825,0.60263
89.43718,0.65517
89.19611,0.70398
88.95504,0.75093
88.71396,0.78138
88.47289,0.78388
88.23182,0.76151
87.99075,0.71755
87.74968,0.65930
87.50861,0.60035
87.26754,0.54848
87.02647,0.50264
86.78540,0.46080
86.54433,0.42373
86.30326,0.39242
86.06219,0.36597
85.82112,0.34248
85.58005,0.32044
85.33898,0.29882
85.09791,0.27739
84.85684,0.25759
84.61577,0.24104
84.37469,0.22736
84.13362,0.21543
83.89255,0.20563
83.65148,0.19870
83.41041,0.19435
83.16934,0.19182
82.92827,0.18979
82.68720,0.18657
82.44613,0.18224
82.20506,0.17887
81.96399,0.17757
81.72292,0.17739
81.48185,0.17750
81.24078,0.17799
80.99971,0.17870
80.75864,0.17892
80.51757,0.17854
80.27650,0.17820
80.03542,0.17812
79.79435,0.17747
79.55328,0.17542
79.31221,0.17211
79.07114,0.16852
78.83007,0.16607
78.58900,0.16551
78.34793,0.16558
78.10686,0.16374
77.86579,0.15938
77.62472,0.15433
77.38365,0.15032
77.14258,0.14767
76.90151,0.14631
76.66044,0.14625
76.41937,0.14735
76.17830,0.14895
75.93723,0.14968
75.69615,0.14828
75.45508,0.14522
75.21401,0.14220
74.97294,0.14030
74.73187,0.13957
74.49080,0.13968
74.24973,0.14017
74.00866,0.14073
73.76759,0.14140
73.52652,0.14204
73.28545,0.14213
73.04438,0.14171
72.80331,0.14185
72.56224,0.14360
72.32117,0.14689
72.08010,0.15023
71.83903,0.15148
71.59796,0.15010
71.35688,0.14900
71.11581,0.15230
70.87474,0.16086
70.63367,0.17189
70.39260,0.18360
70.15153,0.19814
69.91046,0.21920
69.66939,0.24732
69.42832,0.27651
69.18725,0.29517
68.94618,0.29409
68.70511,0.27500
68.46404,0.24746
68.22297,0.21927
67.98190,0.19321
67.74083,0.17012
67.49976,0.15173
67.25869,0.14005
67.01761,0.13480
66.77654,0.13282
66.53547,0.13095
66.29440,0.12848
66.05333,0.12647
65.81226,0.12640
65.57119,0.12963
65.33012,0.13725
65.08905,0.14985
64.84798,0.16736
64.60691,0.18780
64.36584,0.20651
64.12477,0.21797
63.88370,0.21931
63.64263,0.21183
63.40156,0.19888
63.16049,0.18312
62.91942,0.16595
62.67834,0.14877
62.43727,0.13364
62.19620,0.12257
61.95513,0.11677
61.71406,0.11640
61.47299,0.12040
61.23192,0.12681
60.99085,0.13421
60.74978,0.14235
60.50871,0.15064
60.26764,0.15632
60.02657,0.15587
59.78550,0.14880
59.54443,0.13796
59.30336,0.12581
59.06229,0.11350
58.82122,0.10328
58.58015,0.09892
58.33907,0.10426
58.09800,0.12175
57.85693,0.15021
57.61586,0.18074
57.37479,0.19645
57.13372,0.18586
56.89265,0.15703
56.65158,0.12716
56.41051,0.10659
56.16944,0.09813
55.92837,0.10309
55.68730,0.12279
55.44623,0.15351
55.20516,0.17954
54.96409,0.17947
54.72302,0.15418
54.48195,0.12708
54.24088,0.11554
53.99980,0.12400
53.75873,0.14910
53.51766,0.17800
53.27659,0.18559
53.03552,0.16289
52.79445,0.13400
52.55338,0.12018
52.31231,0.12941
52.07124,0.15967
51.83017,0.18854
51.58910,0.18153
51.34803,0.14608
51.10696,0.11850
50.86589,0.11711
50.62482,0.14003
50.38375,0.16931
50.14268,0.17532
49.90161,0.15073
49.66053,0.12505
49.41946,0.12611
49.17839,0.15701
48.93732,0.17908
48.69625,0.15047
48.45518,0.11349
48.21411,0.11725
47.97304,0.16070
47.73197,0.18519
47.49090,0.15377
47.24983,0.12835
47.00876,0.14372
46.76769,0.16940
46.52662,0.15509
46.28555,0.12567
46.04448,0.11903
45.80341,0.12546
45.56234,0.12732
45.32126,0.13105
45.08019,0.13824
44.83912,0.13736
44.59805,0.13300
44.35698,0.13533
44.11591,0.13804
43.87484,0.14008
43.63377,0.15212
43.39270,0.17043
43.15163,0.18174
42.91056,0.18720
42.66949,0.19134
42.42842,0.18625
42.18735,0.17127
41.94628,0.16027
41.70521,0.15854
41.46414,0.15935
41.22307,0.15877
40.98199,0.16169
40.74092,0.17297
40.49985,0.18935
40.25878,0.20381
40.01771,0.21244
39.77664,0.21453
39.53557,0.21455
39.29450,0.22150
39.05343,0.23502
38.81236,0.24204
38.57129,0.23688
38.33022,0.22886
38.08915,0.22886
37.84808,0.24135
37.60701,0.25813
37.36594,0.26045
37.12487,0.24553
36.88380,0.23326
36.64272,0.23625
36.40165,0.24586
36.16058,0.24841
35.91951,0.24238
35.67844,0.23454
35.43737,0.22580
35.19630,0.21396
34.95523,0.20541
34.71416,0.20918
34.47309,0.22232
34.23202,0.23492
33.99095,0.24614
33.74988,0.25876
33.50881,0.26509
33.26774,0.25402
33.02667,0.22857
32.78560,0.21126
32.54453,0.22392
32.30345,0.25620
32.06238,0.27085
31.82131,0.25650
31.58024,0.24007
31.33917,0.23904
31.09810,0.24489
30.85703,0.24189
30.61596,0.22708
30.37489,0.21041
30.13382,0.19690
29.89275,0.18238
29.65168,0.16547
29.41061,0.14881
29.16954,0.13472
28.92847,0.12692
28.68740,0.13082
28.44633,0.14615
28.20526,0.16257
27.96418,0.16697
27.72311,0.15569
27.48204,0.13702
27.24097,0.11651
26.99990,0.09268
26.75883,0.06757
26.51776,0.04554
26.27669,0.02835
26.03562,0.01902
25.79455,0.01715
25.55348,0.00898
25.31241,-0.01962
25.07134,-0.06397
24.83027,-0.10780
24.58920,-0.14095
24.34813,-0.16738
24.10706,-0.19063
23.86599,-0.19282
23.62491,-0.16903
23.38384,-0.13808
23.14277,-0.11364
22.90170,-0.10646
22.66063,-0.11698
22.41956,-0.13281
22.17849,-0.14086
21.93742,-0.13893
21.69635,-0.14071
21.45528,-0.15847
21.21421,-0.17814
20.97314,-0.16926
20.73207,-0.13156
20.49100,-0.10911
20.24993,-0.13649
20.00886,-0.19893
19.76779,-0.25084
19.52672,-0.25623
19.28564,-0.22143
19.04457,-0.18664
18.80350,-0.17962
18.56243,-0.19947
18.32136,-0.22518
18.08029,-0.23481
17.83922,-0.23315
17.59815,-0.24868
17.35708,-0.28737
17.11601,-0.32158
16.87494,-0.32372
16.63387,-0.29641
16.39280,-0.26345
16.15173,-0.25085
15.91066,-0.26881
15.66959,-0.30199
15.42852,-0.32320
15.18745,-0.33052
14.94637,-0.34240
14.70530,-0.34026
14.46423,-0.31315
14.22316,-0.28103
13.98209,-0.25407
13.74102,-0.23315
13.49995,-0.22521
13.25888,-0.23960
13.01781,-0.27256
12.77674,-0.30681
12.53567,-0.32422
12.29460,-0.32279
12.05353,-0.31950
11.81246,-0.32273
11.57139,-0.31842
11.33032,-0.29809
11.08925,-0.27570
10.84818,-0.27051
10.60710,-0.28331
10.36603,-0.28455
10.12496,-0.28838
9.88389,-0.30758
9.64282,-0.32707
9.40175,-0.32962
9.16068,-0.31855
8.91961,-0.30942
8.67854,-0.31007
8.43747,-0.31928
8.19640,-0.31803
7.95533,-0.30182
7.71426,-0.29208
7.47319,-0.29574
7.23212,-0.30637
6.99105,-0.31063
6.74998,-0.30512
6.50891,-0.29693
6.26783,-0.28949
6.02676,-0.30003
5.78569,-0.33673
5.54462,-0.37799
5.30355,-0.39665
5.06248,-0.39257
4.82141,-0.39047
4.58034,-0.40292
4.33927,-0.40587
4.09820,-0.36970
3.85713,-0.31692
3.61606,-0.28179
3.37499,-0.26726
3.13392,-0.26744
2.89285,-0.28455
2.65178,-0.31105
2.41071,-0.33792
2.16964,-0.36593
1.92856,-0.37509
1.68749,-0.35027
1.44642,-0.32755
1.20535,-0.32947
0.96428,-0.33263
0.72321,-0.35318
0.48214,-0.44725
0.24107,-0.48181
-0.00000,-0.16531
