399.69498,1.61873
399.45391,1.64807
399.21284,1.66721
398.97177,1.65991
398.73070,1.63578
398.48963,1.62388
398.24856,1.63599
398.00749,1.65767
397.76642,1.67330
397.52535,1.68918
397.28428,1.71904
397.04321,1.76253
396.80214,1.80508
396.56107,1.82936
396.32000,1.83141
396.07892,1.82656
395.83785,1.82098
395.59678,1.81587
395.35571,1.81645
395.11464,1.81248
394.87357,1.78307
394.63250,1.73869
394.39143,1.71193
394.15036,1.72437
393.90929,1.77991
393.66822,1.85979
393.42715,1.91903
393.18608,1.90746
392.94501,1.84996
392.70394,1.81314
392.46287,1.80354
392.22180,1.79622
391.98073,1.79551
391.73965,1.82470
391.49858,1.87518
391.25751,1.90153
391.01644,1.88988
390.77537,1.87145
390.53430,1.85375
390.29323,1.85335
390.05216,1.91971
389.81109,2.06347
389.57002,2.15117
389.32895,2.19849
389.08788,2.08956
388.84681,1.94908
388.60574,1.90983
388.36467,1.96897
388.12360,2.10046
387.88253,2.25360
387.64146,2.28288
387.40038,2.40240
387.15931,2.77375
386.91824,2.72242
386.67717,2.38099
386.43610,2.33447
386.19503,2.39357
385.95396,2.18418
385.71289,2.05379
385.47182,2.04238
385.23075,2.09734
384.98968,2.15621
384.74861,2.29367
384.50754,2.47053
384.26647,2.31660
384.02540,2.13801
383.78433,2.00113
383.54326,1.94819
383.30219,1.98445
383.06111,1.99706
382.82004,2.08217
382.57897,2.21179
382.33790,2.10243
382.09683,2.10973
381.85576,2.18635
381.61469,2.15419
381.37362,2.13523
381.13255,2.11893
380.89148,1.98140
380.65041,1.85248
380.40934,1.88157
380.16827,1.99334
379.92720,2.03515
379.68613,2.05439
379.44506,2.09354
379.20399,2.20842
378.96292,2.28965
378.72184,2.21441
378.48077,2.01307
378.23970,1.94508
377.99863,2.05010
377.75756,2.24632
377.51649,2.36004
377.27542,2.28480
377.03435,2.09332
376.79328,2.02529
376.55221,2.06623
376.31114,2.12192
376.07007,2.15977
375.82900,2.17665
375.58793,2.18728
375.34686,2.34383
375.10579,2.67492
374.86472,2.51972
374.62365,2.24165
374.38257,2.02793
374.14150,1.92372
373.90043,1.90130
373.65936,1.88299
373.41829,1.82599
373.17722,1.75572
372.93615,1.71152
372.69508,1.70715
372.45401,1.72344
372.21294,1.71668
371.97187,1.66126
371.73080,1.58690
371.48973,1.53540
371.24866,1.52503
371.00759,1.54271
370.76652,1.55786
370.52545,1.55352
370.28437,1.52825
370.04330,1.48203
369.80223,1.43013
369.56116,1.40156
369.32009,1.40698
369.07902,1.42364
368.83795,1.41959
368.59688,1.39342
368.35581,1.36775
368.11474,1.35436
367.87367,1.35125
367.63260,1.35504
367.39153,1.35880
367.15046,1.35013
366.90939,1.32708
366.66832,1.30512
366.42725,1.29736
366.18618,1.30083
365.94510,1.30545
365.70403,1.30713
365.46296,1.30768
365.22189,1.30624
364.98082,1.29933
364.73975,1.28693
364.49868,1.27284
364.25761,1.26273
364.01654,1.26158
363.77547,1.26830
363.53440,1.27588
363.29333,1.28032
363.05226,1.28576
362.81119,1.29726
362.57012,1.30940
362.32905,1.30796
362.08798,1.28557
361.84691,1.25117
361.60583,1.22111
361.36476,1.20505
361.12369,1.20288
360.88262,1.21204
360.64155,1.23175
360.40048,1.25692
360.15941,1.27366
359.91834,1.27218
359.67727,1.26081
359.43620,1.25420
359.19513,1.25436
358.95406,1.25359
358.71299,1.24926
358.47192,1.24543
358.23085,1.24373
357.98978,1.24195
357.74871,1.24075
357.50764,1.24373
357.26656,1.24985
357.02549,1.25216
356.78442,1.24556
356.54335,1.23204
356.30228,1.21808
356.06121,1.21077
355.82014,1.21440
355.57907,1.22433
355.33800,1.22860
355.09693,1.22255
354.85586,1.21429
354.61479,1.21308
354.37372,1.21982
354.13265,1.22814
353.89158,1.23164
353.65051,1.22993
353.40944,1.22786
353.16837,1.22844
352.92729,1.23035
352.68622,1.23259
352.44515,1.23428
352.20408,1.23265
351.96301,1.22790
351.72194,1.22679
351.48087,1.23617
351.23980,1.25344
350.99873,1.26730
350.75766,1.26671
350.51659,1.25087
350.27552,1.23005
350.03445,1.21620
349.79338,1.21547
349.55231,1.22769
349.31124,1.24867
349.07017,1.27182
348.82910,1.29176
348.58802,1.30446
348.34695,1.30420
348.10588,1.29038
347.86481,1.27499
347.62374,1.27028
347.38267,1.27651
347.14160,1.28578
346.90053,1.29138
346.65946,1.29092
346.41839,1.28352
346.17732,1.27172
345.93625,1.26420
345.69518,1.26952
345.45411,1.28749
345.21304,1.30945
344.97197,1.32640
344.73090,1.33344
344.48983,1.33175
344.24875,1.32932
344.00768,1.33226
343.76661,1.33781
343.52554,1.34221
343.28447,1.35099
343.04340,1.37047
342.80233,1.39592
342.56126,1.41648
342.32019,1.42694
342.07912,1.42977
341.83805,1.43012
341.59698,1.43068
341.35591,1.43278
341.11484,1.44460
340.87377,1.47285
340.63270,1.50471
340.39163,1.51897
340.15056,1.52241
339.90948,1.53845
339.66841,1.56583
339.42734,1.59002
339.18627,1.61115
338.94520,1.63435
338.70413,1.65688
338.46306,1.67067
338.22199,1.68132
337.98092,1.70167
337.73985,1.73029
337.49878,1.74459
337.25771,1.73297
337.01664,1.71126
336.77557,1.69430
336.53450,1.68078
336.29343,1.66978
336.05236,1.67040
335.81129,1.69116
335.57021,1.73676
335.32914,1.81057
335.08807,1.89276
334.84700,1.91386
334.60593,1.83539
334.36486,1.73335
334.12379,1.67737
333.88272,1.66839
333.64165,1.66435
333.40058,1.63293
333.15951,1.58167
332.91844,1.53625
332.67737,1.51853
332.43630,1.52515
332.19523,1.53467
331.95416,1.53457
331.71309,1.53207
331.47202,1.53971
331.23094,1.55894
330.98987,1.57646
330.74880,1.57796
330.50773,1.56462
330.26666,1.55155
330.02559,1.54824
329.78452,1.54738
329.54345,1.53735
329.30238,1.51756
329.06131,1.50096
328.82024,1.49861
328.57917,1.50529
328.33810,1.50992
328.09703,1.51047
327.85596,1.50802
327.61489,1.49928
327.37382,1.48893
327.13275,1.49147
326.89167,1.51087
326.65060,1.53202
326.40953,1.53870
326.16846,1.53707
325.92739,1.54763
325.68632,1.57146
325.44525,1.58260
325.20418,1.57055
324.96311,1.55831
324.72204,1.56730
324.48097,1.60425
324.23990,1.65488
323.99883,1.67719
323.75776,1.65003
323.51669,1.62115
323.27562,1.63893
323.03455,1.68831
322.79348,1.71945
322.55240,1.72471
322.31133,1.74877
322.07026,1.82639
321.82919,1.94101
321.58812,2.01335
321.34705,1.99642
321.10598,1.92581
320.86491,1.81116
320.62384,1.72482
320.38277,1.69787
320.14170,1.70200
319.90063,1.71413
319.65956,1.71987
319.41849,1.71898
319.17742,1.73795
318.93635,1.78064
318.69528,1.82705
318.45421,1.88138
318.21313,1.93648
317.97206,1.94932
317.73099,1.90903
317.48992,1.83668
317.24885,1.76450
317.00778,1.72535
316.76671,1.73157
316.52564,1.77264
316.28457,1.81923
316.04350,1.84422
315.80243,1.85706
315.56136,1.90318
315.32029,2.01052
315.07922,2.12707
314.83815,2.19618
314.59708,2.23789
314.35601,2.31723
314.11494,2.20458
313.87386,2.08478
313.63279,2.11440
313.39172,2.13089
313.15065,2.15073
312.90958,2.27901
312.66851,2.42129
312.42744,2.32054
312.18637,2.20174
311.94530,2.16101
311.70423,2.13129
311.46316,2.09917
311.22209,2.14347
310.98102,2.25765
310.73995,2.28100
310.49888,2.22169
310.25781,2.15321
310.01674,2.04827
309.77567,1.98916
309.53459,1.98836
309.29352,2.05103
309.05245,2.19275
308.81138,2.28270
308.57031,2.14233
308.32924,2.05034
308.08817,2.03107
307.84710,1.95177
307.60603,1.83893
307.36496,1.79131
307.12389,1.79542
306.88282,1.78983
306.64175,1.74688
306.40068,1.68503
306.15961,1.63850
305.91854,1.62605
305.67747,1.63524
305.43640,1.62817
305.19532,1.58646
304.95425,1.53901
304.71318,1.51784
304.47211,1.52023
304.23104,1.51571
303.98997,1.48943
303.74890,1.45856
303.50783,1.43337
303.26676,1.40412
303.02569,1.36786
302.78462,1.34072
302.54355,1.33452
302.30248,1.33874
302.06141,1.33314
301.82034,1.31212
301.57927,1.28768
301.33820,1.27147
301.09713,1.26523
300.85605,1.26491
300.61498,1.26435
300.37391,1.25582
300.13284,1.23490
299.89177,1.20725
299.65070,1.18397
299.40963,1.17179
299.16856,1.17094
298.92749,1.17755
298.68642,1.18655
298.44535,1.19333
298.20428,1.19296
297.96321,1.18255
297.72214,1.16630
297.48107,1.15226
297.24000,1.14412
296.99893,1.13854
296.75786,1.13039
296.51678,1.11847
296.27571,1.10508
296.03464,1.09292
295.79357,1.08309
295.55250,1.07519
295.31143,1.06988
295.07036,1.06915
294.82929,1.07172
294.58822,1.07095
294.34715,1.06345
294.10608,1.05526
293.86501,1.05190
293.62394,1.05011
293.38287,1.04492
293.14180,1.03804
292.90073,1.03397
292.65966,1.03316
292.41859,1.03267
292.17751,1.03044
291.93644,1.02614
291.69537,1.02041
291.45430,1.01604
291.21323,1.01641
290.97216,1.02043
290.73109,1.02255
290.49002,1.01972
290.24895,1.01422
290.00788,1.00886
289.76681,1.00421
289.52574,1.00104
289.28467,1.00110
289.04360,1.00394
288.80253,1.00555
288.56146,1.00213
288.32039,0.99416
288.07932,0.98590
287.83824,0.98144
287.59717,0.98152
287.35610,0.98394
287.11503,0.98701
286.87396,0.99082
286.63289,0.99395
286.39182,0.99249
286.15075,0.98447
285.90968,0.97216
285.66861,0.95963
285.42754,0.95014
285.18647,0.94499
284.94540,0.94404
284.70433,0.94622
284.46326,0.94927
284.22219,0.95029
283.98112,0.94793
283.74005,0.94359
283.49897,0.93996
283.25790,0.93926
283.01683,0.94216
282.77576,0.94625
282.53469,0.94710
282.29362,0.94345
282.05255,0.93889
281.81148,0.93649
281.57041,0.93593
281.32934,0.93726
281.08827,0.94203
280.84720,0.94907
280.60613,0.95408
280.36506,0.95522
280.12399,0.95564
279.88292,0.95811
279.64185,0.96066
279.40078,0.96053
279.15970,0.95968
278.91863,0.96247
278.67756,0.96849
278.43649,0.97130
278.19542,0.96607
277.95435,0.95585
277.71328,0.94728
277.47221,0.94386
277.23114,0.94421
276.99007,0.94341
276.74900,0.93721
276.50793,0.92770
276.26686,0.92184
276.02579,0.92335
275.78472,0.92917
275.54365,0.93448
275.30258,0.93814
275.06151,0.94220
274.82043,0.94800
274.57936,0.95383
274.33829,0.95669
274.09722,0.95683
273.85615,0.95804
273.61508,0.96245
273.37401,0.96703
273.13294,0.96737
272.89187,0.96347
272.65080,0.95928
272.40973,0.95819
272.16866,0.96065
271.92759,0.96476
271.68652,0.96772
271.44545,0.96825
271.20438,0.96819
270.96331,0.96973
270.72224,0.97169
270.48116,0.97175
270.24009,0.97071
269.99902,0.97108
269.75795,0.97325
269.51688,0.97643
269.27581,0.98082
269.03474,0.98657
268.79367,0.99246
268.55260,0.99695
268.31153,0.99944
268.07046,1.00028
267.82939,1.00008
267.58832,0.99999
267.34725,1.00233
267.10618,1.00884
266.86511,1.01778
266.62404,1.02505
266.38297,1.02879
266.14189,1.03103
265.90082,1.03426
265.65975,1.03913
265.41868,1.04597
265.17761,1.05615
264.93654,1.06985
264.69547,1.08301
264.45440,1.09063
264.21333,1.09457
263.97226,1.10173
263.73119,1.11330
263.49012,1.12350
263.24905,1.13076
263.00798,1.14041
262.76691,1.15312
262.52584,1.16270
262.28477,1.16777
262.04370,1.17607
261.80262,1.19381
261.56155,1.21655
261.32048,1.23273
261.07941,1.23592
260.83834,1.23256
260.59727,1.23346
260.35620,1.24213
260.11513,1.25656
259.87406,1.27614
259.63299,1.30108
259.39192,1.32930
259.15085,1.35703
258.90978,1.37882
258.66871,1.39025
258.42764,1.39593
258.18657,1.40990
257.94550,1.44237
257.70443,1.48743
257.46335,1.52788
257.22228,1.55510
256.98121,1.57831
256.74014,1.61154
256.49907,1.65872
256.25800,1.71279
256.01693,1.76500
255.77586,1.80818
255.53479,1.83300
255.29372,1.83341
255.05265,1.82148
254.81158,1.82789
254.57051,1.87637
254.32944,1.95133
254.08837,2.00621
253.84730,2.04251
253.60623,2.06829
253.36516,2.07534
253.12408,2.09144
252.88301,2.13904
252.64194,2.21212
252.40087,2.29764
252.15980,2.37796
251.91873,2.38625
251.67766,2.32154
251.43659,2.28660
251.19552,2.29247
250.95445,2.31870
250.71338,2.33711
250.47231,2.32123
250.23124,2.29295
249.99017,2.28080
249.74910,2.35136
249.50803,2.53499
249.26696,2.73349
249.02589,2.82312
248.78481,2.86935
248.54374,2.64768
248.30267,2.46731
248.06160,2.43602
247.82053,2.47227
247.57946,2.37083
247.33839,2.31738
247.09732,2.31034
246.85625,2.28939
246.61518,2.27451
246.37411,2.27508
246.13304,2.26990
245.89197,2.23011
245.65090,2.23774
245.40983,2.23080
245.16876,2.09768
244.92769,1.98287
244.68661,1.94984
244.44554,1.93905
244.20447,1.87710
243.96340,1.77157
243.72233,1.67514
243.48126,1.61029
243.24019,1.56289
242.99912,1.50828
242.75805,1.43893
242.51698,1.36622
242.27591,1.30294
242.03484,1.25449
241.79377,1.21814
241.55270,1.18582
241.31163,1.15069
241.07056,1.11224
240.82949,1.07429
240.58842,1.04081
240.34734,1.01346
240.10627,0.99024
239.86520,0.96747
239.62413,0.94381
239.38306,0.91982
239.14199,0.89530
238.90092,0.87047
238.65985,0.84777
238.41878,0.82967
238.17771,0.81559
237.93664,0.80267
237.69557,0.78912
237.45450,0.77585
237.21343,0.76475
236.97236,0.75571
236.73129,0.74627
236.49022,0.73462
236.24915,0.72211
236.00807,0.71214
235.76700,0.70669
235.52593,0.70395
235.28486,0.69991
235.04379,0.69267
234.80272,0.68451
234.56165,0.67903
234.32058,0.67694
234.07951,0.67591
233.83844,0.67424
233.59737,0.67305
233.35630,0.67333
233.11523,0.67316
232.87416,0.67037
232.63309,0.66585
232.39202,0.66188
232.15095,0.65952
231.90988,0.65872
231.66880,0.65831
231.42773,0.65610
231.18666,0.65144
230.94559,0.64724
230.70452,0.64663
230.46345,0.64897
230.22238,0.65107
229.98131,0.65106
229.74024,0.64914
229.49917,0.64578
229.25810,0.64137
229.01703,0.63742
228.77596,0.63604
228.53489,0.63767
228.29382,0.64048
228.05275,0.64208
227.81168,0.64156
227.57061,0.63994
227.32953,0.63926
227.08846,0.64085
226.84739,0.64359
226.60632,0.64450
226.36525,0.64205
226.12418,0.63863
225.88311,0.63778
225.64204,0.63998
225.40097,0.64261
225.15990,0.64377
224.91883,0.64452
224.67776,0.64668
224.43669,0.64967
224.19562,0.65152
223.95455,0.65224
223.71348,0.65406
223.47241,0.65833
223.23134,0.66401
222.99026,0.66932
222.74919,0.67375
222.50812,0.67844
222.26705,0.68463
222.02598,0.69163
221.78491,0.69756
221.54384,0.70233
221.30277,0.70796
221.06170,0.71548
220.82063,0.72427
220.57956,0.73413
220.33849,0.74505
220.09742,0.75532
219.85635,0.76262
219.61528,0.76784
219.37421,0.77503
219.13314,0.78579
218.89207,0.79625
218.65099,0.80244
218.40992,0.80656
218.16885,0.81372
217.92778,0.82450
217.68671,0.83513
217.44564,0.84423
217.20457,0.85488
216.96350,0.86946
216.72243,0.88588
216.48136,0.90025
216.24029,0.91114
215.99922,0.92012
215.75815,0.92917
215.51708,0.93887
215.27601,0.94858
215.03494,0.95793
214.79387,0.96750
214.55280,0.97764
214.31172,0.98807
214.07065,0.99924
213.82958,1.01130
213.58851,1.02215
213.34744,1.02954
213.10637,1.03354
212.86530,1.03468
212.62423,1.03396
212.38316,1.03580
212.14209,1.04517
211.90102,1.06028
211.65995,1.07270
211.41888,1.07647
211.17781,1.07413
210.93674,1.07187
210.69567,1.07192
210.45460,1.07218
210.21353,1.07211
209.97245,1.07465
209.73138,1.08097
209.49031,1.08651
209.24924,1.08524
209.00817,1.07679
208.76710,1.06683
208.52603,1.06035
208.28496,1.05556
208.04389,1.04650
207.80282,1.03237
207.56175,1.02028
207.32068,1.01690
207.07961,1.02059
206.83854,1.02400
206.59747,1.02334
206.35640,1.02083
206.11533,1.01821
205.87426,1.01291
205.63318,1.00209
205.39211,0.98682
205.15104,0.97042
204.90997,0.95517
204.66890,0.94148
204.42783,0.92874
204.18676,0.91704
203.94569,0.90730
203.70462,0.89893
203.46355,0.88929
203.22248,0.87670
202.98141,0.86211
202.74034,0.84721
202.49927,0.83322
202.25820,0.82097
202.01713,0.80998
201.77606,0.79854
201.53499,0.78604
201.29391,0.77379
201.05284,0.76250
200.81177,0.75075
200.57070,0.73726
200.32963,0.72394
200.08856,0.71399
199.84749,0.70698
199.60642,0.69904
199.36535,0.68859
199.12428,0.67841
198.88321,0.67058
198.64214,0.66325
198.40107,0.65381
198.16000,0.64245
197.91893,0.63103
197.67786,0.62052
197.43679,0.61074
197.19572,0.60156
196.95464,0.59314
196.71357,0.58558
196.47250,0.57850
196.23143,0.57132
195.99036,0.56404
195.74929,0.55745
195.50822,0.55204
195.26715,0.54703
195.02608,0.54146
194.78501,0.53578
194.54394,0.53147
194.30287,0.52880
194.06180,0.52627
193.82073,0.52236
193.57966,0.51702
193.33859,0.51122
193.09752,0.50592
192.85645,0.50152
192.61537,0.49780
192.37430,0.49440
192.13323,0.49137
191.89216,0.48897
191.65109,0.48697
191.41002,0.48463
191.16895,0.48141
190.92788,0.47734
190.68681,0.47304
190.44574,0.46929
190.20467,0.46662
189.96360,0.46511
189.72253,0.46433
189.48146,0.46339
189.24039,0.46184
188.99932,0.46048
188.75825,0.46012
188.51718,0.45991
188.27610,0.45837
188.03503,0.45558
187.79396,0.45301
187.55289,0.45140
187.31182,0.45032
187.07075,0.44936
186.82968,0.44855
186.58861,0.44797
186.34754,0.44761
186.10647,0.44772
185.86540,0.44854
185.62433,0.44992
185.38326,0.45159
185.14219,0.45372
184.90112,0.45658
184.66005,0.45991
184.41898,0.46284
184.17791,0.46451
183.93683,0.46472
183.69576,0.46411
183.45469,0.46372
183.21362,0.46437
182.97255,0.46614
182.73148,0.46852
182.49041,0.47095
182.24934,0.47305
182.00827,0.47464
181.76720,0.47596
181.52613,0.47753
181.28506,0.47940
181.04399,0.48109
180.80292,0.48211
180.56185,0.48221
180.32078,0.48167
180.07971,0.48185
179.83864,0.48452
179.59756,0.48988
179.35649,0.49641
179.11542,0.50316
178.87435,0.51046
178.63328,0.51820
178.39221,0.52530
178.15114,0.53136
177.91007,0.53766
177.66900,0.54601
177.42793,0.55709
177.18686,0.56996
176.94579,0.58329
176.70472,0.59670
176.46365,0.61072
176.22258,0.62569
175.98151,0.64142
175.74044,0.65807
175.49937,0.67624
175.25829,0.69563
175.01722,0.71454
174.77615,0.73181
174.53508,0.74836
174.29401,0.76532
174.05294,0.78186
173.81187,0.79726
173.57080,0.81317
173.32973,0.83099
173.08866,0.84828
172.84759,0.86094
172.60652,0.86771
172.36545,0.87020
172.12438,0.87038
171.88331,0.86976
171.64224,0.86837
171.40117,0.86452
171.16010,0.85862
170.91902,0.85474
170.67795,0.85498
170.43688,0.85544
170.19581,0.85101
169.95474,0.84178
169.71367,0.83138
169.47260,0.82276
169.23153,0.81742
168.99046,0.81552
168.74939,0.81550
168.50832,0.81532
168.26725,0.81443
168.02618,0.81297
167.78511,0.81028
167.54404,0.80585
167.30297,0.80098
167.06190,0.79816
166.82083,0.79897
166.57975,0.80215
166.33868,0.80442
166.09761,0.80472
165.85654,0.80700
165.61547,0.81609
165.37440,0.83200
165.13333,0.84985
164.89226,0.86416
164.65119,0.87216
164.41012,0.87528
164.16905,0.87795
163.92798,0.88323
163.68691,0.89076
163.44584,0.89975
163.20477,0.91061
162.96370,0.92214
162.72263,0.93081
162.48156,0.93468
162.24048,0.93534
161.99941,0.93559
161.75834,0.93796
161.51727,0.94421
161.27620,0.95291
161.03513,0.95882
160.79406,0.95778
160.55299,0.95187
160.31192,0.94642
160.07085,0.94307
159.82978,0.93995
159.58871,0.93671
159.34764,0.93477
159.10657,0.93346
158.86550,0.93005
158.62443,0.92330
158.38336,0.91446
158.14229,0.90601
157.90121,0.90074
157.66014,0.89959
157.41907,0.89912
157.17800,0.89452
156.93693,0.88559
156.69586,0.87665
156.45479,0.87115
156.21372,0.86912
155.97265,0.86879
155.73158,0.86793
155.49051,0.86438
155.24944,0.85751
155.00837,0.84929
154.76730,0.84171
154.52623,0.83386
154.28516,0.82320
154.04409,0.80866
153.80302,0.79136
153.56194,0.77332
153.32087,0.75578
153.07980,0.73847
152.83873,0.72095
152.59766,0.70436
152.35659,0.69054
152.11552,0.67934
151.87445,0.66810
151.63338,0.65403
151.39231,0.63693
151.15124,0.61937
150.91017,0.60388
150.66910,0.59046
150.42803,0.57742
150.18696,0.56341
149.94589,0.54843
149.70482,0.53400
149.46375,0.52232
149.22267,0.51408
148.98160,0.50748
148.74053,0.50038
148.49946,0.49266
148.25839,0.48582
148.01732,0.48114
147.77625,0.47839
147.53518,0.47621
147.29411,0.47390
147.05304,0.47221
146.81197,0.47207
146.57090,0.47348
146.32983,0.47573
146.08876,0.47812
145.84769,0.48066
145.60662,0.48424
145.36555,0.48941
145.12448,0.49564
144.88340,0.50237
144.64233,0.50942
144.40126,0.51596
144.16019,0.52048
143.91912,0.52247
143.67805,0.52248
143.43698,0.52046
143.19591,0.51569
142.95484,0.50836
142.71377,0.50004
142.47270,0.49176
142.23163,0.48288
141.99056,0.47289
141.74949,0.46309
141.50842,0.45508
141.26735,0.44876
141.02628,0.44313
140.78521,0.43800
140.54413,0.43416
140.30306,0.43255
140.06199,0.43342
139.82092,0.43595
139.57985,0.43899
139.33878,0.44218
139.09771,0.44592
138.85664,0.45049
138.61557,0.45603
138.37450,0.46304
138.13343,0.47214
137.89236,0.48314
137.65129,0.49514
137.41022,0.50782
137.16915,0.52208
136.92808,0.53914
136.68701,0.55977
136.44594,0.58364
136.20486,0.60885
135.96379,0.63302
135.72272,0.65543
135.48165,0.67764
135.24058,0.70211
134.99951,0.73026
134.75844,0.76107
134.51737,0.79091
134.27630,0.81589
134.03523,0.83530
133.79416,0.85220
133.55309,0.87012
133.31202,0.88904
133.07095,0.90537
132.82988,0.91750
132.58881,0.92778
132.34774,0.93740
132.10667,0.94476
131.86559,0.94949
131.62452,0.95128
131.38345,0.94624
131.14238,0.93147
130.90131,0.90996
130.66024,0.88701
130.41917,0.86523
130.17810,0.84348
129.93703,0.81813
129.69596,0.78669
129.45489,0.75168
129.21382,0.71841
128.97275,0.68944
128.73168,0.66333
128.49061,0.63769
128.24954,0.61172
128.00847,0.58613
127.76740,0.56197
127.52632,0.54036
127.28525,0.52179
127.04418,0.50463
126.80311,0.48647
126.56204,0.46782
126.32097,0.45168
126.07990,0.43916
125.83883,0.42800
125.59776,0.41605
125.35669,0.40383
125.11562,0.39290
124.87455,0.38330
124.63348,0.37436
124.39241,0.36658
124.15134,0.36066
123.91027,0.35553
123.66920,0.34960
123.42812,0.34328
123.18705,0.33816
122.94598,0.33491
122.70491,0.33352
122.46384,0.33430
122.22277,0.33737
121.98170,0.34173
121.74063,0.34605
121.49956,0.34981
121.25849,0.35330
121.01742,0.35700
120.77635,0.36129
120.53528,0.36675
120.29421,0.37450
120.05314,0.38577
119.81207,0.40075
119.57100,0.41836
119.32993,0.43815
119.08885,0.46091
118.84778,0.48622
118.60671,0.51113
118.36564,0.53384
118.12457,0.55622
117.88350,0.57980
117.64243,0.60210
117.40136,0.61949
117.16029,0.63142
116.91922,0.64001
116.67815,0.64654
116.43708,0.64909
116.19601,0.64443
115.95494,0.63229
115.71387,0.61614
115.47280,0.60000
115.23173,0.58576
114.99066,0.57244
114.74958,0.55812
114.50851,0.54362
114.26744,0.53266
114.02637,0.52715
113.78530,0.52516
113.54423,0.52444
113.30316,0.52459
113.06209,0.52503
112.82102,0.52485
112.57995,0.52581
112.33888,0.53169
112.09781,0.54340
111.85674,0.55774
111.61567,0.57059
111.37460,0.57887
111.13353,0.58129
110.89246,0.58037
110.65139,0.58063
110.41031,0.58247
110.16924,0.58177
109.92817,0.57603
109.68710,0.56631
109.44603,0.55392
109.20496,0.53896
108.96389,0.52134
108.72282,0.50129
108.48175,0.48020
108.24068,0.46015
107.99961,0.44196
107.75854,0.42458
107.51747,0.40688
107.27640,0.38908
107.03533,0.37284
106.79426,0.35943
106.55319,0.34786
106.31212,0.33623
106.07104,0.32448
105.82997,0.31378
105.58890,0.30438
105.34783,0.29590
105.10676,0.28841
104.86569,0.28192
104.62462,0.27576
104.38355,0.26922
104.14248,0.26251
103.90141,0.25679
103.66034,0.25282
103.41927,0.24988
103.17820,0.24653
102.93713,0.24223
102.69606,0.23751
102.45499,0.23305
102.21392,0.22906
101.97285,0.22494
101.73177,0.21969
101.49070,0.21337
101.24963,0.20767
101.00856,0.20390
100.76749,0.20126
100.52642,0.19818
100.28535,0.19493
100.04428,0.19315
99.80321,0.19327
99.56214,0.19377
99.32107,0.19273
99.08000,0.18949
98.83893,0.18508
98.59786,0.18151
98.35679,0.18060
98.11572,0.18295
97.87465,0.18750
97.63358,0.19187
97.39250,0.19423
97.15143,0.19510
96.91036,0.19673
96.66929,0.20068
96.42822,0.20673
96.18715,0.21402
95.94608,0.22218
95.70501,0.23079
95.46394,0.23880
95.22287,0.24528
94.98180,0.25066
94.74073,0.25588
94.49966,0.26066
94.25859,0.26369
94.01752,0.26433
93.77645,0.26343
93.53538,0.26231
93.29431,0.26156
93.05323,0.26079
92.81216,0.25983
92.57109,0.25940
92.33002,0.26039
92.08895,0.26300
91.84788,0.26690
91.60681,0.27191
91.36574,0.27856
91.12467,0.28830
90.88360,0.30280
90.64253,0.32314
90.40146,0.34994
90.16039,0.38343
89.91932,0.42233
89.67825,0.46299
89.43718,0.50070
89.19611,0.53188
88.95504,0.55470
88.71396,0.56697
88.47289,0.56530
88.23182,0.54883
87.99075,0.52210
87.74968,0.49114
87.50861,0.45825
87.26754,0.42302
87.02647,0.38662
86.78540,0.35265
86.54433,0.32427
86.30326,0.30188
86.06219,0.28326
85.82112,0.26528
85.58005,0.24599
85.33898,0.22606
85.09791,0.20850
84.85684,0.19607
84.61577,0.18836
84.37469,0.18209
84.13362,0.17457
83.89255,0.16612
83.65148,0.15871
83.41041,0.15307
83.16934,0.14822
82.92827,0.14347
82.68720,0.13913
82.44613,0.13534
82.20506,0.13187
81.96399,0.12894
81.72292,0.12684
81.48185,0.12510
81.24078,0.12332
80.99971,0.12207
80.75864,0.12188
80.51757,0.12177
80.27650,0.12010
80.03542,0.11665
79.79435,0.11314
79.55328,0.11132
79.31221,0.11087
79.07114,0.11024
78.83007,0.10879
78.58900,0.10730
78.34793,0.10676
78.10686,0.10738
77.86579,0.10815
77.62472,0.10773
77.38365,0.10560
77.14258,0.10225
76.90151,0.09850
76.66044,0.09544
76.41937,0.09416
76.17830,0.09462
75.93723,0.09542
75.69615,0.09550
75.45508,0.09542
75.21401,0.09602
74.97294,0.09673
74.73187,0.09640
74.49080,0.09512
74.24973,0.09423
74.00866,0.09468
73.76759,0.09611
73.52652,0.09738
73.28545,0.09728
73.04438,0.09549
72.80331,0.09329
72.56224,0.09255
72.32117,0.09369
72.08010,0.09557
71.83903,0.09717
71.59796,0.09866
71.35688,0.10073
71.11581,0.10370
70.87474,0.10771
70.63367,0.11343
70.39260,0.12186
70.15153,0.13321
69.91046,0.14639
69.66939,0.15954
69.42832,0.17059
69.18725,0.17736
68.94618,0.17800
68.70511,0.17209
68.46404,0.16120
68.22297,0.14798
67.98190,0.13458
67.74083,0.12211
67.49976,0.11146
67.25869,0.10373
67.01761,0.09914
66.77654,0.09596
66.53547,0.09202
66.29440,0.08723
66.05333,0.08364
65.81226,0.08269
65.57119,0.08378
65.33012,0.08586
65.08905,0.08866
64.84798,0.09200
64.60691,0.09559
64.36584,0.10000
64.12477,0.10560
63.88370,0.11007
63.64263,0.10980
63.40156,0.10442
63.16049,0.09761
62.91942,0.09332
62.67834,0.09269
62.43727,0.09384
62.19620,0.09383
61.95513,0.09121
61.71406,0.08652
61.47299,0.08081
61.23192,0.07464
60.99085,0.06887
60.74978,0.06478
60.50871,0.06301
60.26764,0.06296
60.02657,0.06344
59.78550,0.06376
59.54443,0.06417
59.30336,0.06549
59.06229,0.06807
58.82122,0.07043
58.58015,0.06987
58.33907,0.06564
58.09800,0.06086
57.85693,0.05943
57.61586,0.06170
57.37479,0.06470
57.13372,0.06587
56.89265,0.06492
56.65158,0.06279
56.41051,0.06049
56.16944,0.05882
55.92837,0.05802
55.68730,0.05753
55.44623,0.05658
55.20516,0.05506
54.96409,0.05380
54.72302,0.05392
54.48195,0.05580
54.24088,0.05868
53.99980,0.06125
53.75873,0.06263
53.51766,0.06279
53.27659,0.06249
53.03552,0.06287
52.79445,0.06449
52.55338,0.06601
52.31231,0.06479
52.07124,0.06007
51.83017,0.05454
51.58910,0.05144
51.34803,0.05110
51.10696,0.05155
50.86589,0.05094
50.62482,0.04866
50.38375,0.04560
50.14268,0.04376
49.90161,0.04448
49.66053,0.04739
49.41946,0.05129
49.17839,0.05436
48.93732,0.05440
48.69625,0.05124
48.45518,0.04682
48.21411,0.04146
47.97304,0.03332
47.73197,0.02349
47.49090,0.01623
47.24983,0.01235
47.00876,0.00980
46.76769,0.01048
46.52662,0.01769
46.28555,0.02854
46.04448,0.03685
45.80341,0.04076
45.56234,0.04074
45.32126,0.03573
45.08019,0.02674
44.83912,0.01968
44.59805,0.01898
44.35698,0.02230
44.11591,0.02589
43.87484,0.02942
43.63377,0.03298
43.39270,0.03381
43.15163,0.02930
42.91056,0.02035
42.66949,0.00909
42.42842,-0.00240
42.18735,-0.01063
41.94628,-0.01297
41.70521,-0.01168
41.46414,-0.01122
41.22307,-0.01244
40.98199,-0.01269
40.74092,-0.00947
40.49985,-0.00230
40.25878,0.00668
40.01771,0.01366
39.77664,0.01575
39.53557,0.01397
39.29450,0.01274
39.05343,0.01548
38.81236,0.02074
38.57129,0.02436
38.33022,0.02542
38.08915,0.02632
37.84808,0.02731
37.60701,0.02656
37.36594,0.02393
37.12487,0.01805
36.88380,0.00595
36.64272,-0.00606
36.40165,-0.00412
36.16058,0.01253
35.91951,0.02520
35.67844,0.02118
35.43737,0.01250
35.19630,0.01661
34.95523,0.03186
34.71416,0.04229
34.47309,0.03470
34.23202,0.00461
33.99095,-0.04076
33.74988,-0.07389
33.50881,-0.06261
33.26774,-0.00996
33.02667,0.05239
32.78560,0.10596
32.54453,0.14500
32.30345,0.15515
32.06238,0.12687
31.82131,0.07453
31.58024,0.02124
31.33917,-0.01777
31.09810,-0.03043
30.85703,-0.01297
30.61596,0.01270
30.37489,0.01815
30.13382,0.00606
29.89275,0.00825
29.65168,0.04827
29.41061,0.10987
29.16954,0.15007
28.92847,0.14529
28.68740,0.10639
28.44633,0.05906
28.20526,0.01682
27.96418,-0.02972
27.72311,-0.08843
27.48204,-0.13127
27.24097,-0.10407
26.99990,-0.01054
26.75883,0.08990
26.51776,0.16169
26.27669,0.19553
26.03562,0.18843
25.79455,0.15076
25.55348,0.11231
25.31241,0.10404
25.07134,0.12926
24.83027,0.15918
24.58920,0.17099
24.34813,0.17248
24.10706,0.18330
23.86599,0.21131
23.62491,0.25513
23.38384,0.31194
23.14277,0.36566
22.90170,0.39652
22.66063,0.40195
22.41956,0.39971
22.17849,0.39782
21.93742,0.37981
21.69635,0.34925
21.45528,0.33654
21.21421,0.35674
20.97314,0.37716
20.73207,0.36372
20.49100,0.33411
20.24993,0.30400
20.00886,0.27510
19.76779,0.31833
19.52672,0.42768
19.28564,0.53794
19.04457,0.57710
18.80350,0.53117
18.56243,0.51464
18.32136,0.57270
18.08029,0.70105
17.83922,0.87499
17.59815,0.96289
17.35708,0.91256
17.11601,0.86286
16.87494,0.93302
16.63387,0.98921
16.39280,1.04985
16.15173,1.18575
15.91066,1.18956
15.66959,1.05122
15.42852,0.87420
15.18745,0.83808
14.94637,0.86346
14.70530,0.80253
14.46423,0.74379
14.22316,0.74008
13.98209,0.79810
13.74102,0.80754
13.49995,0.74265
13.25888,0.90147
13.01781,1.21954
12.77674,1.26022
12.53567,1.19424
12.29460,1.20818
12.05353,1.20722
11.81246,1.15318
11.57139,1.09497
11.33032,1.05495
11.08925,0.98921
10.84818,0.76378
10.60710,0.80820
10.36603,0.88919
10.12496,0.82027
9.88389,0.75726
9.64282,0.83383
9.40175,0.93497
9.16068,0.90474
8.91961,0.83479
8.67854,0.98271
8.43747,1.09449
8.19640,1.03634
7.95533,1.24287
7.71426,1.61341
7.47319,1.70576
7.23212,1.50857
6.99105,1.27410
6.74998,1.14116
6.50891,1.16594
6.26783,1.27806
6.02676,1.43090
5.78569,1.44073
5.54462,1.19772
5.30355,0.94880
5.06248,0.87619
4.82141,1.12043
4.58034,1.33707
4.33927,1.38378
4.09820,1.37411
3.85713,1.38394
3.61606,1.28623
3.37499,1.24224
3.13392,1.25426
2.89285,1.24274
2.65178,1.09506
2.41071,0.86034
2.16964,0.73387
1.92856,0.73563
1.68749,0.83534
1.44642,0.95392
1.20535,0.87571
0.96428,0.92767
0.72321,1.11399
0.48214,1.19451
0.24107,0.95642
-0.00000,0.21933
