399.69498,1.55854
399.45391,1.53684
399.21284,1.53378
398.97177,1.53969
398.73070,1.54967
398.48963,1.56888
398.24856,1.59905
398.00749,1.62856
397.76642,1.63642
397.52535,1.61425
397.28428,1.57830
397.04321,1.54896
396.80214,1.53226
396.56107,1.52323
396.32000,1.51657
396.07892,1.51431
395.83785,1.52313
395.59678,1.54466
395.35571,1.57189
395.11464,1.59091
394.87357,1.59107
394.63250,1.57273
394.39143,1.54768
394.15036,1.53337
393.90929,1.53989
393.66822,1.56166
393.42715,1.58283
393.18608,1.59222
392.94501,1.59029
392.70394,1.58394
392.46287,1.57716
392.22180,1.56828
391.98073,1.55626
391.73965,1.54325
391.49858,1.53169
391.25751,1.52408
391.01644,1.52481
390.77537,1.53641
390.53430,1.55044
390.29323,1.54860
390.05216,1.52453
389.81109,1.49626
389.57002,1.48454
389.32895,1.49425
389.08788,1.51474
388.84681,1.52792
388.60574,1.52128
388.36467,1.49962
388.12360,1.48115
387.88253,1.47919
387.64146,1.49061
387.40038,1.50262
387.15931,1.51013
386.91824,1.51986
386.67717,1.53230
386.43610,1.53877
386.19503,1.53947
385.95396,1.53019
385.71289,1.50761
385.47182,1.48279
385.23075,1.45493
384.98968,1.42411
384.74861,1.40707
384.50754,1.41809
384.26647,1.44819
384.02540,1.46706
383.78433,1.45518
383.54326,1.42307
383.30219,1.38753
383.06111,1.35371
382.82004,1.32070
382.57897,1.29297
382.33790,1.28206
382.09683,1.29455
381.85576,1.32152
381.61469,1.34525
381.37362,1.35024
381.13255,1.32619
380.89148,1.28403
380.65041,1.25323
380.40934,1.24818
380.16827,1.26084
379.92720,1.27803
379.68613,1.29817
379.44506,1.32694
379.20399,1.36060
378.96292,1.38405
378.72184,1.38672
378.48077,1.37470
378.23970,1.36566
377.99863,1.37379
377.75756,1.39339
377.51649,1.40960
377.27542,1.42132
377.03435,1.43446
376.79328,1.44510
376.55221,1.43921
376.31114,1.41530
376.07007,1.39478
375.82900,1.39520
375.58793,1.40791
375.34686,1.41508
375.10579,1.41838
374.86472,1.43374
374.62365,1.46165
374.38257,1.48355
374.14150,1.49055
373.90043,1.48958
373.65936,1.48661
373.41829,1.48351
373.17722,1.48153
372.93615,1.47930
372.69508,1.47443
372.45401,1.47024
372.21294,1.47121
371.97187,1.46862
371.73080,1.44596
371.48973,1.40618
371.24866,1.37380
371.00759,1.36395
370.76652,1.36957
370.52545,1.37549
370.28437,1.37584
370.04330,1.37495
369.80223,1.37540
369.56116,1.37316
369.32009,1.36435
369.07902,1.35183
368.83795,1.34197
368.59688,1.33872
368.35581,1.34189
368.11474,1.34704
367.87367,1.34697
367.63260,1.33902
367.39153,1.32966
367.15046,1.32578
366.90939,1.32504
366.66832,1.32073
366.42725,1.31216
366.18618,1.30451
365.94510,1.30043
365.70403,1.29750
365.46296,1.29465
365.22189,1.29488
364.98082,1.29964
364.73975,1.30524
364.49868,1.30524
364.25761,1.29641
364.01654,1.28262
363.77547,1.27286
363.53440,1.27282
363.29333,1.27712
363.05226,1.27447
362.81119,1.26047
362.57012,1.24262
362.32905,1.23403
362.08798,1.24287
361.84691,1.26422
361.60583,1.28085
361.36476,1.28011
361.12369,1.26991
360.88262,1.26690
360.64155,1.27607
360.40048,1.29122
360.15941,1.30516
359.91834,1.31200
359.67727,1.30775
359.43620,1.29447
359.19513,1.27923
358.95406,1.26790
358.71299,1.26180
358.47192,1.25862
358.23085,1.25605
357.98978,1.25709
357.74871,1.26847
357.50764,1.28958
357.26656,1.30655
357.02549,1.30480
356.78442,1.28726
356.54335,1.27013
356.30228,1.26293
356.06121,1.25967
355.82014,1.24965
355.57907,1.23416
355.33800,1.22597
355.09693,1.23148
354.85586,1.24267
354.61479,1.24891
354.37372,1.24913
354.13265,1.24872
353.89158,1.25102
353.65051,1.25617
353.40944,1.26446
353.16837,1.27622
352.92729,1.28925
352.68622,1.29747
352.44515,1.29440
352.20408,1.28086
351.96301,1.26427
351.72194,1.24951
351.48087,1.23650
351.23980,1.22773
350.99873,1.23021
350.75766,1.24532
350.51659,1.26176
350.27552,1.26594
350.03445,1.25988
349.79338,1.25876
349.55231,1.27134
349.31124,1.29020
349.07017,1.30149
348.82910,1.30187
348.58802,1.30094
348.34695,1.30604
348.10588,1.31201
347.86481,1.31013
347.62374,1.30167
347.38267,1.29452
347.14160,1.29093
346.90053,1.28718
346.65946,1.28041
346.41839,1.27175
346.17732,1.26657
345.93625,1.27073
345.69518,1.28351
345.45411,1.29680
345.21304,1.30544
344.97197,1.31241
344.73090,1.32016
344.48983,1.32747
344.24875,1.33639
344.00768,1.35441
343.76661,1.38172
343.52554,1.40072
343.28447,1.39473
343.04340,1.37280
342.80233,1.35681
342.56126,1.35469
342.32019,1.35833
342.07912,1.36015
341.83805,1.36310
341.59698,1.37311
341.35591,1.38544
341.11484,1.38723
340.87377,1.37909
340.63270,1.37951
340.39163,1.40206
340.15056,1.44016
339.90948,1.47378
339.66841,1.49079
339.42734,1.49457
339.18627,1.48888
338.94520,1.47118
338.70413,1.44257
338.46306,1.41741
338.22199,1.41188
337.98092,1.42668
337.73985,1.44701
337.49878,1.45448
337.25771,1.44197
337.01664,1.42323
336.77557,1.42071
336.53450,1.43922
336.29343,1.45690
336.05236,1.45092
335.81129,1.42646
335.57021,1.40425
335.32914,1.39803
335.08807,1.40627
334.84700,1.41855
334.60593,1.43268
334.36486,1.45143
334.12379,1.46303
333.88272,1.45055
333.64165,1.42169
333.40058,1.40014
333.15951,1.39482
332.91844,1.39563
332.67737,1.39250
332.43630,1.38821
332.19523,1.39011
331.95416,1.39903
331.71309,1.40980
331.47202,1.41311
331.23094,1.40167
330.98987,1.37873
330.74880,1.35658
330.50773,1.34374
330.26666,1.33804
330.02559,1.33539
329.78452,1.33361
329.54345,1.32805
329.30238,1.31698
329.06131,1.30976
328.82024,1.31923
328.57917,1.34453
328.33810,1.36608
328.09703,1.36610
327.85596,1.35129
327.61489,1.33882
327.37382,1.33225
327.13275,1.32696
326.89167,1.32393
326.65060,1.32624
326.40953,1.33123
326.16846,1.33519
325.92739,1.34072
325.68632,1.34792
325.44525,1.34954
325.20418,1.34504
324.96311,1.34058
324.72204,1.33555
324.48097,1.32450
324.23990,1.31365
323.99883,1.31504
323.75776,1.32819
323.51669,1.34283
323.27562,1.35440
323.03455,1.36484
322.79348,1.37136
322.55240,1.37433
322.31133,1.38378
322.07026,1.40084
321.82919,1.41317
321.58812,1.41631
321.34705,1.41522
321.10598,1.40521
320.86491,1.38059
320.62384,1.35438
320.38277,1.34143
320.14170,1.34077
319.90063,1.34523
319.65956,1.35463
319.41849,1.37238
319.17742,1.39478
318.93635,1.41087
318.69528,1.41101
318.45421,1.39408
318.21313,1.37264
317.97206,1.36497
317.73099,1.37530
317.48992,1.38466
317.24885,1.37174
317.00778,1.34268
316.76671,1.32370
316.52564,1.32700
316.28457,1.33994
316.04350,1.34395
315.80243,1.34034
315.56136,1.34671
315.32029,1.37040
315.07922,1.39629
314.83815,1.40607
314.59708,1.40018
314.35601,1.38992
314.11494,1.38624
313.87386,1.39223
313.63279,1.40076
313.39172,1.40304
313.15065,1.39824
312.90958,1.39416
312.66851,1.39981
312.42744,1.40953
312.18637,1.40710
311.94530,1.39928
311.70423,1.41104
311.46316,1.44574
311.22209,1.47478
310.98102,1.47347
310.73995,1.45264
310.49888,1.43365
310.25781,1.42486
310.01674,1.42882
309.77567,1.44340
309.53459,1.45827
309.29352,1.46192
309.05245,1.45021
308.81138,1.43218
308.57031,1.42332
308.32924,1.42756
308.08817,1.43338
307.84710,1.43533
307.60603,1.44113
307.36496,1.45019
307.12389,1.44923
306.88282,1.43405
306.64175,1.41971
306.40068,1.42183
306.15961,1.44001
305.91854,1.46142
305.67747,1.47497
305.43640,1.48155
305.19532,1.48452
304.95425,1.47715
304.71318,1.45413
304.47211,1.42770
304.23104,1.41583
303.98997,1.42205
303.74890,1.43427
303.50783,1.44015
303.26676,1.43894
303.02569,1.43307
302.78462,1.41881
302.54355,1.39540
302.30248,1.37303
302.06141,1.36438
301.82034,1.37281
301.57927,1.38746
301.33820,1.38940
301.09713,1.37025
300.85605,1.34367
300.61498,1.32765
300.37391,1.32674
300.13284,1.33152
299.89177,1.33036
299.65070,1.32293
299.40963,1.31757
299.16856,1.31946
298.92749,1.32479
298.68642,1.32511
298.44535,1.31721
298.20428,1.30703
297.96321,1.30310
297.72214,1.30677
297.48107,1.30850
297.24000,1.29781
296.99893,1.27633
296.75786,1.25416
296.51678,1.23838
296.27571,1.23077
296.03464,1.22990
295.79357,1.23134
295.55250,1.22997
295.31143,1.22488
295.07036,1.22030
294.82929,1.21996
294.58822,1.22076
294.34715,1.21555
294.10608,1.20393
293.86501,1.19479
293.62394,1.19591
293.38287,1.20605
293.14180,1.21733
292.90073,1.22107
292.65966,1.21456
292.41859,1.20490
292.17751,1.20179
291.93644,1.20589
291.69537,1.20692
291.45430,1.19707
291.21323,1.18148
290.97216,1.16930
290.73109,1.16176
290.49002,1.15479
290.24895,1.14904
290.00788,1.15052
289.76681,1.16051
289.52574,1.17092
289.28467,1.17395
289.04360,1.17195
288.80253,1.17112
288.56146,1.17118
288.32039,1.16768
288.07932,1.15908
287.83824,1.14759
287.59717,1.13714
287.35610,1.13126
287.11503,1.13145
286.87396,1.13667
286.63289,1.14414
286.39182,1.15040
286.15075,1.15286
285.90968,1.15122
285.66861,1.14617
285.42754,1.13894
285.18647,1.13295
284.94540,1.13097
284.70433,1.13101
284.46326,1.13091
284.22219,1.13317
283.98112,1.13868
283.74005,1.14116
283.49897,1.13533
283.25790,1.12628
283.01683,1.12285
282.77576,1.12620
282.53469,1.13066
282.29362,1.13261
282.05255,1.13354
281.81148,1.13563
281.57041,1.13936
281.32934,1.14484
281.08827,1.15085
280.84720,1.15377
280.60613,1.15254
280.36506,1.15119
280.12399,1.15277
279.88292,1.15474
279.64185,1.15242
279.40078,1.14575
279.15970,1.14013
278.91863,1.13996
278.67756,1.14320
278.43649,1.14376
278.19542,1.13926
277.95435,1.13373
277.71328,1.13230
277.47221,1.13572
277.23114,1.14022
276.99007,1.14225
276.74900,1.14209
276.50793,1.14200
276.26686,1.14411
276.02579,1.15008
275.78472,1.15929
275.54365,1.16693
275.30258,1.16739
275.06151,1.16110
274.82043,1.15481
274.57936,1.15382
274.33829,1.15641
274.09722,1.15751
273.85615,1.15678
273.61508,1.15925
273.37401,1.16751
273.13294,1.17821
272.89187,1.18712
272.65080,1.19320
272.40973,1.19622
272.16866,1.19561
271.92759,1.19213
271.68652,1.18793
271.44545,1.18570
271.20438,1.18682
270.96331,1.18908
270.72224,1.18862
270.48116,1.18557
270.24009,1.18453
269.99902,1.18807
269.75795,1.19374
269.51688,1.19864
269.27581,1.20318
269.03474,1.20937
268.79367,1.21747
268.55260,1.22579
268.31153,1.23378
268.07046,1.24333
267.82939,1.25542
267.58832,1.26681
267.34725,1.27256
267.10618,1.27165
266.86511,1.26877
266.62404,1.26966
266.38297,1.27581
266.14189,1.28481
265.90082,1.29582
265.65975,1.31310
265.41868,1.34073
265.17761,1.37268
264.93654,1.39238
264.69547,1.38868
264.45440,1.37057
264.21333,1.35755
263.97226,1.36020
263.73119,1.37562
263.49012,1.39599
263.24905,1.41706
263.00798,1.43881
262.76691,1.46088
262.52584,1.48022
262.28477,1.49433
262.04370,1.50431
261.80262,1.51305
261.56155,1.52444
261.32048,1.54433
261.07941,1.57813
260.83834,1.62807
260.59727,1.68726
260.35620,1.74262
260.11513,1.79358
259.87406,1.84337
259.63299,1.88142
259.39192,1.89889
259.15085,1.90334
258.90978,1.90683
258.66871,1.91517
258.42764,1.91653
258.18657,1.89659
257.94550,1.87681
257.70443,1.88156
257.46335,1.90860
257.22228,1.93650
256.98121,1.93945
256.74014,1.90953
256.49907,1.86765
256.25800,1.84802
256.01693,1.85677
255.77586,1.86565
255.53479,1.85935
255.29372,1.83964
255.05265,1.80340
254.81158,1.75446
254.57051,1.70661
254.32944,1.66675
254.08837,1.63675
253.84730,1.62558
253.60623,1.64209
253.36516,1.67648
253.12408,1.70135
252.88301,1.70058
252.64194,1.68587
252.40087,1.67293
252.15980,1.66328
251.91873,1.65556
251.67766,1.65692
251.43659,1.67010
251.19552,1.67764
250.95445,1.65784
250.71338,1.61854
250.47231,1.58975
250.23124,1.58997
249.99017,1.60981
249.74910,1.62440
249.50803,1.62461
249.26696,1.62156
249.02589,1.62160
248.78481,1.61873
248.54374,1.60955
248.30267,1.59831
248.06160,1.58817
247.82053,1.57927
247.57946,1.57406
247.33839,1.57513
247.09732,1.57973
246.85625,1.58351
246.61518,1.58740
246.37411,1.59445
246.13304,1.60137
245.89197,1.60284
245.65090,1.60313
245.40983,1.61228
245.16876,1.63729
244.92769,1.67539
244.68661,1.71548
244.44554,1.75270
244.20447,1.78945
243.96340,1.82463
243.72233,1.85707
243.48126,1.90308
243.24019,1.98305
242.99912,2.08681
242.75805,2.13298
242.51698,2.02438
242.27591,1.91048
242.03484,1.80073
241.79377,1.69276
241.55270,1.59458
241.31163,1.51643
241.07056,1.45812
240.82949,1.40598
240.58842,1.34785
240.34734,1.28828
240.10627,1.23904
239.86520,1.20171
239.62413,1.16778
239.38306,1.12995
239.14199,1.09091
238.90092,1.05871
238.65985,1.03665
238.41878,1.02005
238.17771,1.00157
237.93664,0.98045
237.69557,0.96264
237.45450,0.95133
237.21343,0.94277
236.97236,0.93197
236.73129,0.91902
236.49022,0.90731
236.24915,0.89734
236.00807,0.88589
235.76700,0.87193
235.52593,0.85977
235.28486,0.85398
235.04379,0.85345
234.80272,0.85319
234.56165,0.85035
234.32058,0.84575
234.07951,0.84098
233.83844,0.83670
233.59737,0.83315
233.35630,0.83061
233.11523,0.82850
232.87416,0.82562
232.63309,0.82174
232.39202,0.81790
232.15095,0.81538
231.90988,0.81427
231.66880,0.81335
231.42773,0.81181
231.18666,0.81073
230.94559,0.81103
230.70452,0.81102
230.46345,0.80887
230.22238,0.80611
229.98131,0.80532
229.74024,0.80619
229.49917,0.80680
229.25810,0.80652
229.01703,0.80513
228.77596,0.80216
228.53489,0.79866
228.29382,0.79710
228.05275,0.79841
227.81168,0.80103
227.57061,0.80338
227.32953,0.80584
227.08846,0.80911
226.84739,0.81214
226.60632,0.81306
226.36525,0.81166
226.12418,0.80934
225.88311,0.80675
225.64204,0.80337
225.40097,0.79988
225.15990,0.79861
224.91883,0.79975
224.67776,0.80064
224.43669,0.80079
224.19562,0.80381
223.95455,0.81154
223.71348,0.82000
223.47241,0.82426
223.23134,0.82525
222.99026,0.82773
222.74919,0.83376
222.50812,0.84228
222.26705,0.85297
222.02598,0.86507
221.78491,0.87460
221.54384,0.87898
221.30277,0.88184
221.06170,0.88776
220.82063,0.89588
220.57956,0.90369
220.33849,0.91180
220.09742,0.92121
219.85635,0.93093
219.61528,0.93990
219.37421,0.94855
219.13314,0.95880
218.89207,0.97312
218.65099,0.99186
218.40992,1.01176
218.16885,1.02848
217.92778,1.03978
217.68671,1.04641
217.44564,1.05208
217.20457,1.06082
216.96350,1.07340
216.72243,1.08892
216.48136,1.10979
216.24029,1.13901
215.99922,1.17178
215.75815,1.19608
215.51708,1.20633
215.27601,1.20843
215.03494,1.20916
214.79387,1.21217
214.55280,1.22215
214.31172,1.24407
214.07065,1.27704
213.82958,1.31096
213.58851,1.33314
213.34744,1.33919
213.10637,1.33472
212.86530,1.32811
212.62423,1.32484
212.38316,1.32734
212.14209,1.33511
211.90102,1.34511
211.65995,1.35483
211.41888,1.36360
211.17781,1.37141
210.93674,1.37987
210.69567,1.39353
210.45460,1.41621
210.21353,1.44195
209.97245,1.45371
209.73138,1.44124
209.49031,1.41297
209.24924,1.38397
209.00817,1.36456
208.76710,1.35875
208.52603,1.36262
208.28496,1.36657
208.04389,1.36603
207.80282,1.36383
207.56175,1.36064
207.32068,1.35189
207.07961,1.33504
206.83854,1.31283
206.59747,1.29104
206.35640,1.27540
206.11533,1.26662
205.87426,1.25917
205.63318,1.24775
205.39211,1.23196
205.15104,1.21348
204.90997,1.19390
204.66890,1.17545
204.42783,1.15954
204.18676,1.14603
203.94569,1.13566
203.70462,1.12841
203.46355,1.11888
203.22248,1.10131
202.98141,1.07822
202.74034,1.05615
202.49927,1.03698
202.25820,1.01895
202.01713,1.00168
201.77606,0.98492
201.53499,0.96608
201.29391,0.94418
201.05284,0.92315
200.81177,0.90668
200.57070,0.89319
200.32963,0.87977
200.08856,0.86686
199.84749,0.85552
199.60642,0.84400
199.36535,0.83020
199.12428,0.81503
198.88321,0.80097
198.64214,0.78972
198.40107,0.78211
198.16000,0.77721
197.91893,0.77054
197.67786,0.75651
197.43679,0.73573
197.19572,0.71628
196.95464,0.70626
196.71357,0.70650
196.47250,0.70912
196.23143,0.70452
195.99036,0.69214
195.74929,0.68011
195.50822,0.67437
195.26715,0.67349
195.02608,0.67208
194.78501,0.66677
194.54394,0.65922
194.30287,0.65301
194.06180,0.64866
193.82073,0.64296
193.57966,0.63324
193.33859,0.62136
193.09752,0.61214
192.85645,0.60768
192.61537,0.60554
192.37430,0.60266
192.13323,0.59934
191.89216,0.59749
191.65109,0.59610
191.41002,0.59142
191.16895,0.58295
190.92788,0.57556
190.68681,0.57361
190.44574,0.57546
190.20467,0.57581
189.96360,0.57281
189.72253,0.56971
189.48146,0.56917
189.24039,0.56990
188.99932,0.56966
188.75825,0.56878
188.51718,0.56821
188.27610,0.56702
188.03503,0.56439
187.79396,0.56175
187.55289,0.56075
187.31182,0.56095
187.07075,0.56081
186.82968,0.55991
186.58861,0.55910
186.34754,0.55863
186.10647,0.55750
185.86540,0.55511
185.62433,0.55283
185.38326,0.55290
185.14219,0.55566
184.90112,0.55876
184.66005,0.55987
184.41898,0.55994
184.17791,0.56126
183.93683,0.56310
183.69576,0.56308
183.45469,0.56221
183.21362,0.56356
182.97255,0.56693
182.73148,0.56938
182.49041,0.57049
182.24934,0.57261
182.00827,0.57615
181.76720,0.57906
181.52613,0.58091
181.28506,0.58329
181.04399,0.58618
180.80292,0.58788
180.56185,0.58861
180.32078,0.59038
180.07971,0.59394
179.83864,0.59910
179.59756,0.60653
179.35649,0.61605
179.11542,0.62534
178.87435,0.63273
178.63328,0.63896
178.39221,0.64550
178.15114,0.65344
177.91007,0.66333
177.66900,0.67475
177.42793,0.68725
177.18686,0.70084
176.94579,0.71461
176.70472,0.72751
176.46365,0.74083
176.22258,0.75696
175.98151,0.77637
175.74044,0.79849
175.49937,0.82335
175.25829,0.84974
175.01722,0.87414
174.77615,0.89405
174.53508,0.91054
174.29401,0.92670
174.05294,0.94534
173.81187,0.96736
173.57080,0.99130
173.32973,1.01542
173.08866,1.03886
172.84759,1.05979
172.60652,1.07531
172.36545,1.08563
172.12438,1.09492
171.88331,1.10622
171.64224,1.11649
171.40117,1.11722
171.16010,1.10243
170.91902,1.07817
170.67795,1.05731
170.43688,1.04397
170.19581,1.03176
169.95474,1.01767
169.71367,1.00696
169.47260,1.00330
169.23153,1.00418
168.99046,1.00569
168.74939,1.00531
168.50832,1.00223
168.26725,0.99875
168.02618,0.99802
167.78511,0.99919
167.54404,0.99921
167.30297,0.99789
167.06190,0.99691
166.82083,0.99601
166.57975,0.99460
166.33868,0.99514
166.09761,1.00101
165.85654,1.01233
165.61547,1.02533
165.37440,1.03493
165.13333,1.03894
164.89226,1.03965
164.65119,1.04086
164.41012,1.04512
164.16905,1.05455
163.92798,1.07265
163.68691,1.10162
163.44584,1.13658
163.20477,1.16642
162.96370,1.18395
162.72263,1.19216
162.48156,1.19651
162.24048,1.19652
161.99941,1.18914
161.75834,1.17731
161.51727,1.17131
161.27620,1.18205
161.03513,1.21075
160.79406,1.24115
160.55299,1.25117
160.31192,1.23903
160.07085,1.21982
159.82978,1.20212
159.58871,1.18542
159.34764,1.17213
159.10657,1.16795
158.86550,1.17193
158.62443,1.17579
158.38336,1.17355
158.14229,1.16547
157.90121,1.15307
157.66014,1.13788
157.41907,1.12377
157.17800,1.11586
156.93693,1.11654
156.69586,1.12162
156.45479,1.12248
156.21372,1.11491
155.97265,1.10217
155.73158,1.08805
155.49051,1.07319
155.24944,1.05813
155.00837,1.04536
154.76730,1.03720
154.52623,1.03083
154.28516,1.01868
154.04409,0.99721
153.80302,0.97098
153.56194,0.94560
153.32087,0.92239
153.07980,0.90062
152.83873,0.87964
152.59766,0.85805
152.35659,0.83441
152.11552,0.80971
151.87445,0.78709
151.63338,0.76878
151.39231,0.75433
151.15124,0.74177
150.91017,0.72929
150.66910,0.71536
150.42803,0.69888
150.18696,0.68034
149.94589,0.66200
149.70482,0.64602
149.46375,0.63329
149.22267,0.62334
148.98160,0.61434
148.74053,0.60387
148.49946,0.59143
148.25839,0.57996
148.01732,0.57340
147.77625,0.57311
147.53518,0.57624
147.29411,0.57745
147.05304,0.57405
146.81197,0.56879
146.57090,0.56657
146.32983,0.56983
146.08876,0.57679
145.84769,0.58348
145.60662,0.58789
145.36555,0.59116
145.12448,0.59495
144.88340,0.59958
144.64233,0.60461
144.40126,0.60980
144.16019,0.61522
143.91912,0.62016
143.67805,0.62250
143.43698,0.62069
143.19591,0.61581
142.95484,0.60970
142.71377,0.60220
142.47270,0.59223
142.23163,0.58051
141.99056,0.56913
141.74949,0.55971
141.50842,0.55259
141.26735,0.54649
141.02628,0.53963
140.78521,0.53204
140.54413,0.52585
140.30306,0.52276
140.06199,0.52264
139.82092,0.52520
139.57985,0.53083
139.33878,0.53889
139.09771,0.54722
138.85664,0.55483
138.61557,0.56270
138.37450,0.57102
138.13343,0.57864
137.89236,0.58662
137.65129,0.59797
137.41022,0.61303
137.16915,0.62958
136.92808,0.64788
136.68701,0.67132
136.44594,0.70067
136.20486,0.73167
135.96379,0.76021
135.72272,0.78717
135.48165,0.81575
135.24058,0.84785
134.99951,0.88534
134.75844,0.92934
134.51737,0.97565
134.27630,1.01602
134.03523,1.04686
133.79416,1.07260
133.55309,1.09904
133.31202,1.12792
133.07095,1.15704
132.82988,1.18365
132.58881,1.20760
132.34774,1.22905
132.10667,1.24571
131.86559,1.25440
131.62452,1.25127
131.38345,1.23265
131.14238,1.20183
130.90131,1.16821
130.66024,1.13695
130.41917,1.10638
130.17810,1.07382
129.93703,1.03721
129.69596,0.99479
129.45489,0.94836
129.21382,0.90278
128.97275,0.86054
128.73168,0.82085
128.49061,0.78331
128.24954,0.74861
128.00847,0.71671
127.76740,0.68710
127.52632,0.65958
127.28525,0.63372
127.04418,0.60901
126.80311,0.58582
126.56204,0.56505
126.32097,0.54702
126.07990,0.53169
125.83883,0.51878
125.59776,0.50722
125.35669,0.49575
125.11562,0.48419
124.87455,0.47305
124.63348,0.46266
124.39241,0.45336
124.15134,0.44549
123.91027,0.43873
123.66920,0.43247
123.42812,0.42703
123.18705,0.42342
122.94598,0.42195
122.70491,0.42227
122.46384,0.42423
122.22277,0.42771
121.98170,0.43140
121.74063,0.43346
121.49956,0.43431
121.25849,0.43730
121.01742,0.44496
120.77635,0.45559
120.53528,0.46529
120.29421,0.47293
120.05314,0.48135
119.81207,0.49425
119.57100,0.51369
119.32993,0.53931
119.08885,0.56811
118.84778,0.59682
118.60671,0.62560
118.36564,0.65730
118.12457,0.69227
117.88350,0.72649
117.64243,0.75585
117.40136,0.78004
117.16029,0.80039
116.91922,0.81522
116.67815,0.82037
116.43708,0.81589
116.19601,0.80814
115.95494,0.80167
115.71387,0.79440
115.47280,0.78349
115.23173,0.77073
114.99066,0.75872
114.74958,0.74598
114.50851,0.72943
114.26744,0.70939
114.02637,0.68934
113.78530,0.67180
113.54423,0.65697
113.30316,0.64526
113.06209,0.63908
112.82102,0.64058
112.57995,0.64901
112.33888,0.66259
112.09781,0.68193
111.85674,0.70853
111.61567,0.73988
111.37460,0.76816
111.13353,0.78542
110.89246,0.78942
110.65139,0.78342
110.41031,0.77124
110.16924,0.75503
109.92817,0.73821
109.68710,0.72568
109.44603,0.71790
109.20496,0.70963
108.96389,0.69566
108.72282,0.67409
108.48175,0.64468
108.24068,0.60899
107.99961,0.57162
107.75854,0.53818
107.51747,0.51254
107.27640,0.49597
107.03533,0.48660
106.79426,0.47960
106.55319,0.46944
106.31212,0.45358
106.07104,0.43360
105.82997,0.41314
105.58890,0.39578
105.34783,0.38373
105.10676,0.37701
104.86569,0.37366
104.62462,0.37057
104.38355,0.36454
104.14248,0.35386
103.90141,0.33953
103.66034,0.32494
103.41927,0.31422
103.17820,0.30943
102.93713,0.30850
102.69606,0.30684
102.45499,0.30135
102.21392,0.29289
101.97285,0.28485
101.73177,0.27952
101.49070,0.27628
101.24963,0.27370
101.00856,0.27261
100.76749,0.27484
100.52642,0.27833
100.28535,0.27686
100.04428,0.26750
99.80321,0.25526
99.56214,0.24806
99.32107,0.24991
99.08000,0.25836
98.83893,0.26526
98.59786,0.26208
98.35679,0.24967
98.11572,0.23885
97.87465,0.23917
97.63358,0.25003
97.39250,0.26069
97.15143,0.26113
96.91036,0.25543
96.66929,0.25546
96.42822,0.26549
96.18715,0.27903
95.94608,0.28815
95.70501,0.29376
95.46394,0.30196
95.22287,0.31351
94.98180,0.32289
94.74073,0.32675
94.49966,0.32887
94.25859,0.33405
94.01752,0.33983
93.77645,0.33908
93.53538,0.33297
93.29431,0.33169
93.05323,0.33863
92.81216,0.34465
92.57109,0.34282
92.33002,0.34031
92.08895,0.34547
91.84788,0.35412
91.60681,0.35800
91.36574,0.36053
91.12467,0.37154
90.88360,0.39204
90.64253,0.41654
90.40146,0.44695
90.16039,0.48908
89.91932,0.54017
89.67825,0.59355
89.43718,0.64835
89.19611,0.69946
88.95504,0.73517
88.71396,0.75473
88.47289,0.76110
88.23182,0.74549
87.99075,0.70428
87.74968,0.65019
87.50861,0.59623
87.26754,0.54737
87.02647,0.50400
86.78540,0.46442
86.54433,0.42792
86.30326,0.39580
86.06219,0.36763
85.82112,0.34122
85.58005,0.31707
85.33898,0.29725
85.09791,0.28081
84.85684,0.26534
84.61577,0.25109
84.37469,0.23978
84.13362,0.23105
83.89255,0.22288
83.65148,0.21422
83.41041,0.20573
83.16934,0.19804
82.92827,0.19091
82.68720,0.18445
82.44613,0.18002
82.20506,0.17903
81.96399,0.18072
81.72292,0.18213
81.48185,0.18115
81.24078,0.17851
80.99971,0.17591
80.75864,0.17398
80.51757,0.17295
80.27650,0.17307
80.03542,0.17325
79.79435,0.17175
79.55328,0.16844
79.31221,0.16470
79.07114,0.16163
78.83007,0.15999
78.58900,0.16027
78.34793,0.16144
78.10686,0.16137
77.86579,0.15940
77.62472,0.15692
77.38365,0.15473
77.14258,0.15199
76.90151,0.14829
76.66044,0.14506
76.41937,0.14385
76.17830,0.14443
75.93723,0.14520
75.69615,0.14504
75.45508,0.14411
75.21401,0.14301
74.97294,0.14198
74.73187,0.14110
74.49080,0.14062
74.24973,0.14054
74.00866,0.14059
73.76759,0.14086
73.52652,0.14178
73.28545,0.14318
73.04438,0.14387
72.80331,0.14310
72.56224,0.14227
72.32117,0.14448
72.08010,0.15194
71.83903,0.16343
71.59796,0.17417
71.35688,0.17890
71.11581,0.17564
70.87474,0.16751
70.63367,0.16101
70.39260,0.16282
70.15153,0.17689
69.91046,0.20266
69.66939,0.23531
69.42832,0.26719
69.18725,0.28946
68.94618,0.29532
68.70511,0.28400
68.46404,0.26121
68.22297,0.23454
67.98190,0.20874
67.74083,0.18530
67.49976,0.16506
67.25869,0.14941
67.01761,0.13853
66.77654,0.13064
66.53547,0.12473
66.29440,0.12182
66.05333,0.12225
65.81226,0.12428
65.57119,0.12689
65.33012,0.13165
65.08905,0.14070
64.84798,0.15399
64.60691,0.16919
64.36584,0.18336
64.12477,0.19403
63.88370,0.19928
63.64263,0.19849
63.40156,0.19321
63.16049,0.18605
62.91942,0.17870
62.67834,0.17166
62.43727,0.16502
62.19620,0.15843
61.95513,0.15159
61.71406,0.14524
61.47299,0.14079
61.23192,0.13832
60.99085,0.13648
60.74978,0.13481
60.50871,0.13442
60.26764,0.13606
60.02657,0.13898
59.78550,0.14144
59.54443,0.14106
59.30336,0.13570
59.06229,0.12616
58.82122,0.11675
58.58015,0.11095
58.33907,0.10783
58.09800,0.10525
57.85693,0.10486
57.61586,0.11080
57.37479,0.12439
57.13372,0.14366
56.89265,0.16705
56.65158,0.19232
56.41051,0.21134
56.16944,0.21269
55.92837,0.19393
55.68730,0.16388
55.44623,0.13305
55.20516,0.10826
54.96409,0.09284
54.72302,0.08858
54.48195,0.09660
54.24088,0.11756
53.99980,0.14963
53.75873,0.18045
53.51766,0.18593
53.27659,0.16098
53.03552,0.12910
52.79445,0.10835
52.55338,0.10277
52.31231,0.11098
52.07124,0.13112
51.83017,0.16027
51.58910,0.18772
51.34803,0.19098
51.10696,0.16005
50.86589,0.11588
50.62482,0.08324
50.38375,0.07680
50.14268,0.10639
49.90161,0.16901
49.66053,0.20678
49.41946,0.15528
49.17839,0.08935
48.93732,0.06588
48.69625,0.09732
48.45518,0.16928
48.21411,0.20051
47.97304,0.13923
47.73197,0.08533
47.49090,0.08390
47.24983,0.11644
47.00876,0.13330
46.76769,0.11639
46.52662,0.10841
46.28555,0.12252
46.04448,0.12175
45.80341,0.09814
45.56234,0.09606
45.32126,0.12562
45.08019,0.14407
44.83912,0.12991
44.59805,0.12193
44.35698,0.13325
44.11591,0.14056
43.87484,0.13974
43.63377,0.14280
43.39270,0.14298
43.15163,0.13357
42.91056,0.12342
42.66949,0.11901
42.42842,0.11868
42.18735,0.11886
41.94628,0.11610
41.70521,0.11372
41.46414,0.11913
41.22307,0.12863
40.98199,0.13127
40.74092,0.12720
40.49985,0.12466
40.25878,0.12464
40.01771,0.12493
39.77664,0.12980
39.53557,0.14182
39.29450,0.15466
39.05343,0.16283
38.81236,0.17051
38.57129,0.18100
38.33022,0.18970
38.08915,0.19465
37.84808,0.20148
37.60701,0.21021
37.36594,0.21493
37.12487,0.21757
36.88380,0.22305
36.64272,0.22669
36.40165,0.21890
36.16058,0.19796
35.91951,0.17597
35.67844,0.17084
35.43737,0.18446
35.19630,0.19854
34.95523,0.20072
34.71416,0.19806
34.47309,0.19895
34.23202,0.20206
33.99095,0.20481
33.74988,0.20636
33.50881,0.20344
33.26774,0.19239
33.02667,0.17304
32.78560,0.15241
32.54453,0.14129
32.30345,0.14453
32.06238,0.15627
31.82131,0.16300
31.58024,0.14950
31.33917,0.11289
31.09810,0.07122
30.85703,0.05061
30.61596,0.06192
30.37489,0.08661
30.13382,0.09560
29.89275,0.07767
29.65168,0.04267
29.41061,0.00616
29.16954,-0.02262
28.92847,-0.04584
28.68740,-0.07376
28.44633,-0.11240
28.20526,-0.15784
27.96418,-0.18634
27.72311,-0.16415
27.48204,-0.10503
27.24097,-0.05592
26.99990,-0.04037
26.75883,-0.05533
26.51776,-0.09148
26.27669,-0.13772
26.03562,-0.17764
25.79455,-0.19848
25.55348,-0.20193
25.31241,-0.19839
25.07134,-0.19132
24.83027,-0.17718
24.58920,-0.16361
24.34813,-0.17279
24.10706,-0.23043
23.86599,-0.33541
23.62491,-0.41697
23.38384,-0.40817
23.14277,-0.35093
22.90170,-0.30347
22.66063,-0.28465
22.41956,-0.29334
22.17849,-0.33691
21.93742,-0.40327
21.69635,-0.43193
21.45528,-0.40106
21.21421,-0.34641
20.97314,-0.30500
20.73207,-0.29972
20.49100,-0.32990
20.24993,-0.38030
20.00886,-0.42804
19.76779,-0.45308
19.52672,-0.44438
19.28564,-0.41442
19.04457,-0.40338
18.80350,-0.42754
18.56243,-0.45533
18.32136,-0.46080
18.08029,-0.44892
17.83922,-0.40183
17.59815,-0.34723
17.35708,-0.32511
17.11601,-0.33633
16.87494,-0.34727
16.63387,-0.33945
16.39280,-0.34538
16.15173,-0.39917
15.91066,-0.48937
15.66959,-0.54393
15.42852,-0.49873
15.18745,-0.43896
14.94637,-0.42612
14.70530,-0.44378
14.46423,-0.44069
14.22316,-0.41422
13.98209,-0.38144
13.74102,-0.34526
13.49995,-0.31652
13.25888,-0.30144
13.01781,-0.30425
12.77674,-0.32380
12.53567,-0.34827
12.29460,-0.36344
12.05353,-0.37087
11.81246,-0.37563
11.57139,-0.37666
11.33032,-0.37828
11.08925,-0.37176
10.84818,-0.35387
10.60710,-0.34775
10.36603,-0.36880
10.12496,-0.40127
9.88389,-0.40739
9.64282,-0.38059
9.40175,-0.35668
9.16068,-0.36131
8.91961,-0.38984
8.67854,-0.40100
8.43747,-0.37867
8.19640,-0.37032
7.95533,-0.38126
7.71426,-0.41890
7.47319,-0.44742
7.23212,-0.44604
6.99105,-0.43597
6.74998,-0.41016
6.50891,-0.38304
6.26783,-0.34946
6.02676,-0.32660
5.78569,-0.32890
5.54462,-0.34321
5.30355,-0.35807
5.06248,-0.36742
4.82141,-0.35951
4.58034,-0.33459
4.33927,-0.31325
4.09820,-0.31164
3.85713,-0.32594
3.61606,-0.33964
3.37499,-0.33687
3.13392,-0.32318
2.89285,-0.32285
2.65178,-0.33810
2.41071,-0.36189
2.16964,-0.39050
1.92856,-0.40840
1.68749,-0.41429
1.44642,-0.41067
1.20535,-0.37860
0.96428,-0.34901
0.72321,-0.34746
0.48214,-0.37667
0.24107,-0.36768
-0.00000,-0.03717
