399.69498,1.40372
399.45391,1.39645
399.21284,1.38976
398.97177,1.39146
398.73070,1.40050
398.48963,1.40737
398.24856,1.40884
398.00749,1.41209
397.76642,1.42183
397.52535,1.43096
397.28428,1.42961
397.04321,1.41979
396.80214,1.41120
396.56107,1.40858
396.32000,1.40958
396.07892,1.41133
395.83785,1.41563
395.59678,1.42486
395.35571,1.43526
395.11464,1.43883
394.87357,1.43232
394.63250,1.41996
394.39143,1.40684
394.15036,1.39503
393.90929,1.38546
393.66822,1.37876
393.42715,1.37428
393.18608,1.37196
392.94501,1.37407
392.70394,1.38078
392.46287,1.38601
392.22180,1.38305
391.98073,1.37319
391.73965,1.36288
391.49858,1.35648
391.25751,1.35631
391.01644,1.36301
390.77537,1.37317
390.53430,1.38119
390.29323,1.38604
390.05216,1.39262
389.81109,1.40146
389.57002,1.40451
389.32895,1.39650
389.08788,1.38154
388.84681,1.36644
388.60574,1.35493
388.36467,1.34736
388.12360,1.34297
387.88253,1.34197
387.64146,1.34485
387.40038,1.34971
387.15931,1.35068
386.91824,1.34258
386.67717,1.32781
386.43610,1.31309
386.19503,1.30085
385.95396,1.29032
385.71289,1.28347
385.47182,1.28351
385.23075,1.28876
384.98968,1.29142
384.74861,1.28416
384.50754,1.26681
384.26647,1.24619
384.02540,1.22937
383.78433,1.21670
383.54326,1.20486
383.30219,1.19437
383.06111,1.18923
382.82004,1.18983
382.57897,1.19147
382.33790,1.19059
382.09683,1.18757
381.85576,1.18355
381.61469,1.17924
381.37362,1.17461
381.13255,1.16863
380.89148,1.16251
380.65041,1.15970
380.40934,1.16066
380.16827,1.16212
379.92720,1.16040
379.68613,1.15472
379.44506,1.14943
379.20399,1.14993
378.96292,1.15542
378.72184,1.16228
378.48077,1.17297
378.23970,1.19112
377.99863,1.20975
377.75756,1.21708
377.51649,1.21204
377.27542,1.20372
377.03435,1.20080
376.79328,1.20487
376.55221,1.21249
376.31114,1.22176
376.07007,1.23316
375.82900,1.24402
375.58793,1.24952
375.34686,1.25133
375.10579,1.25627
374.86472,1.26585
374.62365,1.27463
374.38257,1.27847
374.14150,1.27975
373.90043,1.28242
373.65936,1.28787
373.41829,1.29638
373.17722,1.30547
372.93615,1.30811
372.69508,1.30003
372.45401,1.28761
372.21294,1.28113
371.97187,1.28167
371.73080,1.28019
371.48973,1.27112
371.24866,1.26032
371.00759,1.25602
370.76652,1.25938
370.52545,1.26589
370.28437,1.27022
370.04330,1.26816
369.80223,1.25904
369.56116,1.24874
369.32009,1.24474
369.07902,1.24710
368.83795,1.24848
368.59688,1.24492
368.35581,1.24175
368.11474,1.24484
367.87367,1.25069
367.63260,1.25045
367.39153,1.24213
367.15046,1.23230
366.90939,1.22662
366.66832,1.22520
366.42725,1.22517
366.18618,1.22387
365.94510,1.22186
365.70403,1.22261
365.46296,1.22692
365.22189,1.23027
364.98082,1.22846
364.73975,1.22347
364.49868,1.21980
364.25761,1.21724
364.01654,1.21176
363.77547,1.20313
363.53440,1.19593
363.29333,1.19198
363.05226,1.18797
362.81119,1.18251
362.57012,1.17881
362.32905,1.17807
362.08798,1.17648
361.84691,1.17169
361.60583,1.16703
361.36476,1.16622
361.12369,1.16785
360.88262,1.16831
360.64155,1.16725
360.40048,1.16581
360.15941,1.16241
359.91834,1.15583
359.67727,1.14954
359.43620,1.14850
359.19513,1.15406
358.95406,1.16284
358.71299,1.16814
358.47192,1.16518
358.23085,1.15660
357.98978,1.14878
357.74871,1.14375
357.50764,1.14009
357.26656,1.13856
357.02549,1.14071
356.78442,1.14447
356.54335,1.14602
356.30228,1.14432
356.06121,1.14071
355.82014,1.13603
355.57907,1.13031
355.33800,1.12527
355.09693,1.12467
354.85586,1.12943
354.61479,1.13456
354.37372,1.13507
354.13265,1.13233
353.89158,1.13019
353.65051,1.12831
353.40944,1.12361
353.16837,1.11690
352.92729,1.11389
352.68622,1.11905
352.44515,1.13015
352.20408,1.13961
351.96301,1.14118
351.72194,1.13531
351.48087,1.12802
351.23980,1.12405
350.99873,1.12240
350.75766,1.12030
350.51659,1.11931
350.27552,1.12345
350.03445,1.13251
349.79338,1.14142
349.55231,1.14582
349.31124,1.14570
349.07017,1.14445
348.82910,1.14577
348.58802,1.14983
348.34695,1.15159
348.10588,1.14618
347.86481,1.13599
347.62374,1.12890
347.38267,1.12950
347.14160,1.13442
346.90053,1.13636
346.65946,1.13256
346.41839,1.12804
346.17732,1.12923
345.93625,1.13653
345.69518,1.14449
345.45411,1.14805
345.21304,1.14706
344.97197,1.14481
344.73090,1.14446
344.48983,1.14739
344.24875,1.15348
344.00768,1.16157
343.76661,1.16959
343.52554,1.17562
343.28447,1.17960
343.04340,1.18237
342.80233,1.18389
342.56126,1.18501
342.32019,1.18892
342.07912,1.19667
341.83805,1.20355
341.59698,1.20487
341.35591,1.20302
341.11484,1.20417
340.87377,1.21096
340.63270,1.22092
340.39163,1.22919
340.15056,1.23274
339.90948,1.23310
339.66841,1.23258
339.42734,1.22979
339.18627,1.22364
338.94520,1.21899
338.70413,1.22210
338.46306,1.23303
338.22199,1.24565
337.98092,1.25453
337.73985,1.25918
337.49878,1.26097
337.25771,1.25988
337.01664,1.25640
336.77557,1.25340
336.53450,1.25354
336.29343,1.25676
336.05236,1.25965
335.81129,1.25832
335.57021,1.25400
335.32914,1.25284
335.08807,1.25610
334.84700,1.25580
334.60593,1.24716
334.36486,1.23717
334.12379,1.23229
333.88272,1.22939
333.64165,1.22435
333.40058,1.22028
333.15951,1.22059
332.91844,1.22111
332.67737,1.21549
332.43630,1.20500
332.19523,1.19676
331.95416,1.19333
331.71309,1.18947
331.47202,1.18125
331.23094,1.17314
330.98987,1.17092
330.74880,1.17355
330.50773,1.17625
330.26666,1.17521
330.02559,1.16793
329.78452,1.15576
329.54345,1.14576
329.30238,1.14489
329.06131,1.15207
328.82024,1.15934
328.57917,1.16090
328.33810,1.15809
328.09703,1.15513
327.85596,1.15328
327.61489,1.15093
327.37382,1.14621
327.13275,1.13846
326.89167,1.12974
326.65060,1.12459
326.40953,1.12622
326.16846,1.13367
325.92739,1.14264
325.68632,1.14832
325.44525,1.14795
325.20418,1.14360
324.96311,1.14220
324.72204,1.14922
324.48097,1.16196
324.23990,1.17018
323.99883,1.16722
323.75776,1.15860
323.51669,1.15388
323.27562,1.15426
323.03455,1.15365
322.79348,1.14862
322.55240,1.14174
322.31133,1.13763
322.07026,1.13927
321.82919,1.14612
321.58812,1.15292
321.34705,1.15539
321.10598,1.15683
320.86491,1.16367
320.62384,1.17668
320.38277,1.19125
320.14170,1.20125
319.90063,1.19918
319.65956,1.18339
319.41849,1.16481
319.17742,1.15548
318.93635,1.15512
318.69528,1.15634
318.45421,1.15850
318.21313,1.16599
317.97206,1.17640
317.73099,1.18300
317.48992,1.18411
317.24885,1.18122
317.00778,1.17603
316.76671,1.17229
316.52564,1.17375
316.28457,1.17995
316.04350,1.18684
315.80243,1.18957
315.56136,1.18403
315.32029,1.17243
315.07922,1.16621
314.83815,1.17527
314.59708,1.19679
314.35601,1.21809
314.11494,1.22837
313.87386,1.22726
313.63279,1.22209
313.39172,1.21961
313.15065,1.22082
312.90958,1.22126
312.66851,1.21769
312.42744,1.21147
312.18637,1.20610
311.94530,1.20513
311.70423,1.20887
311.46316,1.21238
311.22209,1.21217
310.98102,1.21215
310.73995,1.21670
310.49888,1.22332
310.25781,1.22648
310.01674,1.22513
309.77567,1.22317
309.53459,1.22554
309.29352,1.23415
309.05245,1.24487
308.81138,1.25102
308.57031,1.25148
308.32924,1.25223
308.08817,1.25754
307.84710,1.26316
307.60603,1.26313
307.36496,1.25914
307.12389,1.25789
306.88282,1.26194
306.64175,1.26493
306.40068,1.25871
306.15961,1.24612
305.91854,1.23916
305.67747,1.24381
305.43640,1.25212
305.19532,1.25150
304.95425,1.24028
304.71318,1.22705
304.47211,1.21805
304.23104,1.21397
303.98997,1.21416
303.74890,1.21708
303.50783,1.22037
303.26676,1.22468
303.02569,1.23277
302.78462,1.24244
302.54355,1.24664
302.30248,1.24221
302.06141,1.23247
301.82034,1.22173
301.57927,1.21270
301.33820,1.20639
301.09713,1.20241
300.85605,1.20073
300.61498,1.20151
300.37391,1.20284
300.13284,1.20136
299.89177,1.19592
299.65070,1.18838
299.40963,1.18093
299.16856,1.17481
298.92749,1.17087
298.68642,1.17037
298.44535,1.17416
298.20428,1.18039
297.96321,1.18467
297.72214,1.18418
297.48107,1.18070
297.24000,1.17794
296.99893,1.17753
296.75786,1.17846
296.51678,1.17864
296.27571,1.17684
296.03464,1.17352
295.79357,1.16935
295.55250,1.16445
295.31143,1.15917
295.07036,1.15374
294.82929,1.14789
294.58822,1.14196
294.34715,1.13739
294.10608,1.13562
293.86501,1.13676
293.62394,1.13850
293.38287,1.13699
293.14180,1.13118
292.90073,1.12492
292.65966,1.12200
292.41859,1.12125
292.17751,1.11972
291.93644,1.11784
291.69537,1.11676
291.45430,1.11514
291.21323,1.11191
290.97216,1.10770
290.73109,1.10287
290.49002,1.09755
290.24895,1.09338
290.00788,1.09166
289.76681,1.09109
289.52574,1.08987
289.28467,1.08845
289.04360,1.08804
288.80253,1.08794
288.56146,1.08638
288.32039,1.08390
288.07932,1.08382
287.83824,1.08760
287.59717,1.09145
287.35610,1.09037
287.11503,1.08515
286.87396,1.08063
286.63289,1.07862
286.39182,1.07764
286.15075,1.07759
285.90968,1.07949
285.66861,1.08157
285.42754,1.08024
285.18647,1.07522
284.94540,1.06996
284.70433,1.06684
284.46326,1.06439
284.22219,1.05975
283.98112,1.05305
283.74005,1.04811
283.49897,1.04829
283.25790,1.05251
283.01683,1.05662
282.77576,1.05816
282.53469,1.05771
282.29362,1.05635
282.05255,1.05440
281.81148,1.05253
281.57041,1.05198
281.32934,1.05362
281.08827,1.05731
280.84720,1.06178
280.60613,1.06439
280.36506,1.06247
280.12399,1.05644
279.88292,1.05045
279.64185,1.04778
279.40078,1.04735
279.15970,1.04692
278.91863,1.04700
278.67756,1.04905
278.43649,1.05223
278.19542,1.05430
277.95435,1.05400
277.71328,1.05123
277.47221,1.04688
277.23114,1.04279
276.99007,1.04031
276.74900,1.03945
276.50793,1.04026
276.26686,1.04323
276.02579,1.04761
275.78472,1.05109
275.54365,1.05194
275.30258,1.05056
275.06151,1.04908
274.82043,1.04950
274.57936,1.05208
274.33829,1.05567
274.09722,1.05906
273.85615,1.06175
273.61508,1.06344
273.37401,1.06360
273.13294,1.06248
272.89187,1.06152
272.65080,1.06150
272.40973,1.06144
272.16866,1.06073
271.92759,1.06074
271.68652,1.06313
271.44545,1.06760
271.20438,1.07195
270.96331,1.07372
270.72224,1.07228
270.48116,1.06963
270.24009,1.06863
269.99902,1.07059
269.75795,1.07472
269.51688,1.07915
269.27581,1.08226
269.03474,1.08415
268.79367,1.08668
268.55260,1.09121
268.31153,1.09708
268.07046,1.10312
267.82939,1.10897
267.58832,1.11448
267.34725,1.11951
267.10618,1.12410
266.86511,1.12772
266.62404,1.12982
266.38297,1.13192
266.14189,1.13702
265.90082,1.14569
265.65975,1.15478
265.41868,1.16178
265.17761,1.16779
264.93654,1.17466
264.69547,1.18220
264.45440,1.18919
264.21333,1.19542
263.97226,1.20169
263.73119,1.20876
263.49012,1.21668
263.24905,1.22502
263.00798,1.23360
262.76691,1.24310
262.52584,1.25373
262.28477,1.26532
262.04370,1.27898
261.80262,1.29558
261.56155,1.31362
261.32048,1.33067
261.07941,1.34596
260.83834,1.35934
260.59727,1.37014
260.35620,1.37956
260.11513,1.39102
259.87406,1.40650
259.63299,1.42492
259.39192,1.44435
259.15085,1.46359
258.90978,1.48206
258.66871,1.50011
258.42764,1.51937
258.18657,1.54105
257.94550,1.56554
257.70443,1.59461
257.46335,1.62854
257.22228,1.65876
256.98121,1.67550
256.74014,1.68257
256.49907,1.68797
256.25800,1.69279
256.01693,1.69527
255.77586,1.69567
255.53479,1.69583
255.29372,1.69642
255.05265,1.69208
254.81158,1.67311
254.57051,1.64076
254.32944,1.61141
254.08837,1.59858
253.84730,1.60044
253.60623,1.60470
253.36516,1.59990
253.12408,1.58371
252.88301,1.56284
252.64194,1.54373
252.40087,1.52765
252.15980,1.51478
251.91873,1.50632
251.67766,1.50185
251.43659,1.49927
251.19552,1.49805
250.95445,1.50019
250.71338,1.50674
250.47231,1.51441
250.23124,1.51693
249.99017,1.51039
249.74910,1.49751
249.50803,1.48634
249.26696,1.48375
249.02589,1.48880
248.78481,1.49275
248.54374,1.48834
248.30267,1.47875
248.06160,1.47305
247.82053,1.47453
247.57946,1.47882
247.33839,1.48342
247.09732,1.49254
246.85625,1.50950
246.61518,1.53088
246.37411,1.55143
246.13304,1.56975
245.89197,1.58509
245.65090,1.59423
245.40983,1.59944
245.16876,1.61256
244.92769,1.64066
244.68661,1.67312
244.44554,1.69616
244.20447,1.71560
243.96340,1.74478
243.72233,1.78237
243.48126,1.82217
243.24019,1.86505
242.99912,1.89333
242.75805,1.86666
242.51698,1.79497
242.27591,1.71113
242.03484,1.62753
241.79377,1.55516
241.55270,1.50058
241.31163,1.46250
241.07056,1.43759
240.82949,1.42017
240.58842,1.39917
240.34734,1.36666
240.10627,1.32697
239.86520,1.28930
239.62413,1.25692
239.38306,1.22821
239.14199,1.20276
238.90092,1.18126
238.65985,1.16203
238.41878,1.14241
238.17771,1.12222
237.93664,1.10327
237.69557,1.08668
237.45450,1.07199
237.21343,1.05837
236.97236,1.04573
236.73129,1.03453
236.49022,1.02488
236.24915,1.01617
236.00807,1.00725
235.76700,0.99718
235.52593,0.98609
235.28486,0.97535
235.04379,0.96634
234.80272,0.95909
234.56165,0.95247
234.32058,0.94573
234.07951,0.93910
233.83844,0.93317
233.59737,0.92783
233.35630,0.92208
233.11523,0.91498
232.87416,0.90713
232.63309,0.90019
232.39202,0.89511
232.15095,0.89189
231.90988,0.89061
231.66880,0.89076
231.42773,0.89000
231.18666,0.88538
230.94559,0.87611
230.70452,0.86475
230.46345,0.85558
230.22238,0.85096
229.98131,0.84976
229.74024,0.84949
229.49917,0.84864
229.25810,0.84613
229.01703,0.84094
228.77596,0.83405
228.53489,0.82865
228.29382,0.82686
228.05275,0.82755
227.81168,0.82807
227.57061,0.82742
227.32953,0.82645
227.08846,0.82554
226.84739,0.82401
226.60632,0.82097
226.36525,0.81623
226.12418,0.81085
225.88311,0.80703
225.64204,0.80585
225.40097,0.80604
225.15990,0.80618
224.91883,0.80629
224.67776,0.80656
224.43669,0.80686
224.19562,0.80780
223.95455,0.80990
223.71348,0.81193
223.47241,0.81180
223.23134,0.80907
222.99026,0.80569
222.74919,0.80464
222.50812,0.80742
222.26705,0.81281
222.02598,0.81819
221.78491,0.82163
221.54384,0.82294
221.30277,0.82385
221.06170,0.82665
220.82063,0.83181
220.57956,0.83759
220.33849,0.84276
220.09742,0.84812
219.85635,0.85462
219.61528,0.86213
219.37421,0.87085
219.13314,0.88132
218.89207,0.89225
218.65099,0.90120
218.40992,0.90819
218.16885,0.91604
217.92778,0.92689
217.68671,0.94055
217.44564,0.95539
217.20457,0.96850
216.96350,0.97670
216.72243,0.98012
216.48136,0.98357
216.24029,0.99278
215.99922,1.00908
215.75815,1.02713
215.51708,1.03936
215.27601,1.04448
215.03494,1.04876
214.79387,1.05796
214.55280,1.07186
214.31172,1.08698
214.07065,1.10021
213.82958,1.10949
213.58851,1.11438
213.34744,1.11697
213.10637,1.12129
212.86530,1.13002
212.62423,1.14125
212.38316,1.15052
212.14209,1.15634
211.90102,1.16085
211.65995,1.16633
211.41888,1.17313
211.17781,1.17986
210.93674,1.18448
210.69567,1.18600
210.45460,1.18525
210.21353,1.18353
209.97245,1.18038
209.73138,1.17442
209.49031,1.16666
209.24924,1.16164
209.00817,1.16309
208.76710,1.16863
208.52603,1.17226
208.28496,1.17240
208.04389,1.17132
207.80282,1.16705
207.56175,1.15595
207.32068,1.14212
207.07961,1.13434
206.83854,1.13357
206.59747,1.13108
206.35640,1.12010
206.11533,1.10420
205.87426,1.09181
205.63318,1.08721
205.39211,1.08745
205.15104,1.08545
204.90997,1.07705
204.66890,1.06477
204.42783,1.05349
204.18676,1.04416
203.94569,1.03399
203.70462,1.02167
203.46355,1.00940
203.22248,1.00002
202.98141,0.99340
202.74034,0.98510
202.49927,0.97084
202.25820,0.95300
202.01713,0.93822
201.77606,0.92932
201.53499,0.92329
201.29391,0.91540
201.05284,0.90360
200.81177,0.88948
200.57070,0.87633
200.32963,0.86586
200.08856,0.85665
199.84749,0.84664
199.60642,0.83619
199.36535,0.82693
199.12428,0.81861
198.88321,0.80940
198.64214,0.79865
198.40107,0.78748
198.16000,0.77684
197.91893,0.76641
197.67786,0.75565
197.43679,0.74532
197.19572,0.73689
196.95464,0.73051
196.71357,0.72449
196.47250,0.71723
196.23143,0.70903
195.99036,0.70160
195.74929,0.69583
195.50822,0.69047
195.26715,0.68348
195.02608,0.67494
194.78501,0.66716
194.54394,0.66143
194.30287,0.65639
194.06180,0.65063
193.82073,0.64499
193.57966,0.64050
193.33859,0.63583
193.09752,0.62900
192.85645,0.62069
192.61537,0.61355
192.37430,0.60850
192.13323,0.60401
191.89216,0.59932
191.65109,0.59604
191.41002,0.59527
191.16895,0.59508
190.92788,0.59253
190.68681,0.58749
190.44574,0.58237
190.20467,0.57867
189.96360,0.57543
189.72253,0.57137
189.48146,0.56687
189.24039,0.56301
188.99932,0.56013
188.75825,0.55797
188.51718,0.55650
188.27610,0.55563
188.03503,0.55464
187.79396,0.55311
187.55289,0.55155
187.31182,0.55039
187.07075,0.54927
186.82968,0.54804
186.58861,0.54707
186.34754,0.54605
186.10647,0.54449
185.86540,0.54307
185.62433,0.54256
185.38326,0.54194
185.14219,0.54001
184.90112,0.53785
184.66005,0.53739
184.41898,0.53875
184.17791,0.54063
183.93683,0.54241
183.69576,0.54419
183.45469,0.54551
183.21362,0.54590
182.97255,0.54597
182.73148,0.54625
182.49041,0.54596
182.24934,0.54462
182.00827,0.54349
181.76720,0.54383
181.52613,0.54524
181.28506,0.54688
181.04399,0.54826
180.80292,0.54894
180.56185,0.54901
180.32078,0.54924
180.07971,0.54987
179.83864,0.55105
179.59756,0.55375
179.35649,0.55847
179.11542,0.56405
178.87435,0.56938
178.63328,0.57488
178.39221,0.58117
178.15114,0.58815
177.91007,0.59566
177.66900,0.60360
177.42793,0.61169
177.18686,0.62019
176.94579,0.63024
176.70472,0.64226
176.46365,0.65506
176.22258,0.66741
175.98151,0.67996
175.74044,0.69425
175.49937,0.71044
175.25829,0.72728
175.01722,0.74387
174.77615,0.76056
174.53508,0.77764
174.29401,0.79425
174.05294,0.80946
173.81187,0.82354
173.57080,0.83693
173.32973,0.84927
173.08866,0.86098
172.84759,0.87346
172.60652,0.88624
172.36545,0.89601
172.12438,0.90013
171.88331,0.89940
171.64224,0.89693
171.40117,0.89569
171.16010,0.89657
170.91902,0.89763
170.67795,0.89614
170.43688,0.89082
170.19581,0.88208
169.95474,0.87199
169.71367,0.86315
169.47260,0.85632
169.23153,0.85088
168.99046,0.84752
168.74939,0.84735
168.50832,0.84833
168.26725,0.84599
168.02618,0.83865
167.78511,0.82956
167.54404,0.82355
167.30297,0.82319
167.06190,0.82757
166.82083,0.83311
166.57975,0.83598
166.33868,0.83534
166.09761,0.83413
165.85654,0.83602
165.61547,0.84193
165.37440,0.84975
165.13333,0.85688
164.89226,0.86277
164.65119,0.86924
164.41012,0.87794
164.16905,0.88842
163.92798,0.89924
163.68691,0.90987
163.44584,0.92064
163.20477,0.93118
162.96370,0.94038
162.72263,0.94807
162.48156,0.95592
162.24048,0.96506
161.99941,0.97333
161.75834,0.97808
161.51727,0.98137
161.27620,0.98730
161.03513,0.99531
160.79406,1.00028
160.55299,0.99869
160.31192,0.99209
160.07085,0.98482
159.82978,0.98009
159.58871,0.97778
159.34764,0.97558
159.10657,0.97177
158.86550,0.96670
158.62443,0.96205
158.38336,0.95881
158.14229,0.95570
157.90121,0.95094
157.66014,0.94508
157.41907,0.93990
157.17800,0.93534
156.93693,0.93058
156.69586,0.92663
156.45479,0.92481
156.21372,0.92419
155.97265,0.92230
155.73158,0.91782
155.49051,0.91150
155.24944,0.90469
155.00837,0.89795
154.76730,0.89084
154.52623,0.88211
154.28516,0.87138
154.04409,0.86037
153.80302,0.85071
153.56194,0.84131
153.32087,0.82925
153.07980,0.81358
152.83873,0.79689
152.59766,0.78255
152.35659,0.77135
152.11552,0.76152
151.87445,0.75048
151.63338,0.73680
151.39231,0.72122
151.15124,0.70625
150.91017,0.69390
150.66910,0.68385
150.42803,0.67422
150.18696,0.66389
149.94589,0.65322
149.70482,0.64259
149.46375,0.63165
149.22267,0.62031
148.98160,0.60950
148.74053,0.60024
148.49946,0.59247
148.25839,0.58521
148.01732,0.57792
147.77625,0.57134
147.53518,0.56655
147.29411,0.56353
147.05304,0.56106
146.81197,0.55832
146.57090,0.55591
146.32983,0.55485
146.08876,0.55510
145.84769,0.55590
145.60662,0.55738
145.36555,0.56075
145.12448,0.56639
144.88340,0.57261
144.64233,0.57767
144.40126,0.58217
144.16019,0.58722
143.91912,0.59135
143.67805,0.59188
143.43698,0.58890
143.19591,0.58475
142.95484,0.58014
142.71377,0.57360
142.47270,0.56476
142.23163,0.55530
141.99056,0.54639
141.74949,0.53734
141.50842,0.52760
141.26735,0.51827
141.02628,0.51079
140.78521,0.50550
140.54413,0.50216
140.30306,0.50056
140.06199,0.50012
139.82092,0.50001
139.57985,0.50016
139.33878,0.50135
139.09771,0.50422
138.85664,0.50875
138.61557,0.51450
138.37450,0.52085
138.13343,0.52736
137.89236,0.53444
137.65129,0.54310
137.41022,0.55346
137.16915,0.56474
136.92808,0.57740
136.68701,0.59332
136.44594,0.61289
136.20486,0.63412
135.96379,0.65510
135.72272,0.67545
135.48165,0.69580
135.24058,0.71785
134.99951,0.74391
134.75844,0.77415
134.51737,0.80526
134.27630,0.83338
134.03523,0.85755
133.79416,0.87957
133.55309,0.90161
133.31202,0.92463
133.07095,0.94755
132.82988,0.96762
132.58881,0.98311
132.34774,0.99496
132.10667,1.00370
131.86559,1.00702
131.62452,1.00359
131.38345,0.99591
131.14238,0.98606
130.90131,0.97295
130.66024,0.95585
130.41917,0.93626
130.17810,0.91543
129.93703,0.89383
129.69596,0.87261
129.45489,0.85255
129.21382,0.83216
128.97275,0.80911
128.73168,0.78313
128.49061,0.75630
128.24954,0.73094
128.00847,0.70818
127.76740,0.68807
127.52632,0.66993
127.28525,0.65264
127.04418,0.63528
126.80311,0.61776
126.56204,0.60060
126.32097,0.58427
126.07990,0.56891
125.83883,0.55483
125.59776,0.54286
125.35669,0.53334
125.11562,0.52490
124.87455,0.51577
124.63348,0.50611
124.39241,0.49730
124.15134,0.48973
123.91027,0.48271
123.66920,0.47570
123.42812,0.46844
123.18705,0.46099
122.94598,0.45395
122.70491,0.44807
122.46384,0.44399
122.22277,0.44211
121.98170,0.44215
121.74063,0.44304
121.49956,0.44433
121.25849,0.44681
121.01742,0.45115
120.77635,0.45686
120.53528,0.46335
120.29421,0.47076
120.05314,0.47952
119.81207,0.48979
119.57100,0.50204
119.32993,0.51750
119.08885,0.53759
118.84778,0.56279
118.60671,0.59189
118.36564,0.62195
118.12457,0.64939
117.88350,0.67214
117.64243,0.69118
117.40136,0.70845
117.16029,0.72430
116.91922,0.73851
116.67815,0.75111
116.43708,0.75973
116.19601,0.75995
115.95494,0.75129
115.71387,0.73863
115.47280,0.72596
115.23173,0.71343
114.99066,0.70114
114.74958,0.69132
114.50851,0.68533
114.26744,0.68119
114.02637,0.67588
113.78530,0.66880
113.54423,0.66258
113.30316,0.66131
113.06209,0.66750
112.82102,0.67929
112.57995,0.69110
112.33888,0.69795
112.09781,0.69896
111.85674,0.69756
111.61567,0.69930
111.37460,0.70833
111.13353,0.72379
110.89246,0.73919
110.65139,0.74738
110.41031,0.74633
110.16924,0.73956
109.92817,0.73254
109.68710,0.72887
109.44603,0.72751
109.20496,0.72223
108.96389,0.70701
108.72282,0.68337
108.48175,0.65806
108.24068,0.63577
107.99961,0.61696
107.75854,0.59954
107.51747,0.58109
107.27640,0.56117
107.03533,0.54172
106.79426,0.52526
106.55319,0.51293
106.31212,0.50348
106.07104,0.49367
105.82997,0.48014
105.58890,0.46272
105.34783,0.44554
105.10676,0.43397
104.86569,0.42955
104.62462,0.42738
104.38355,0.42013
104.14248,0.40626
103.90141,0.39161
103.66034,0.38205
103.41927,0.37779
103.17820,0.37433
102.93713,0.36774
102.69606,0.35860
102.45499,0.35047
102.21392,0.34571
101.97285,0.34315
101.73177,0.33887
101.49070,0.33072
101.24963,0.32162
101.00856,0.31640
100.76749,0.31554
100.52642,0.31448
100.28535,0.30960
100.04428,0.30244
99.80321,0.29673
99.56214,0.29382
99.32107,0.29183
99.08000,0.28804
98.83893,0.28240
98.59786,0.27779
98.35679,0.27593
98.11572,0.27474
97.87465,0.27198
97.63358,0.26948
97.39250,0.27025
97.15143,0.27340
96.91036,0.27566
96.66929,0.27684
96.42822,0.28024
96.18715,0.28716
95.94608,0.29449
95.70501,0.29982
95.46394,0.30571
95.22287,0.31481
94.98180,0.32402
94.74073,0.32853
94.49966,0.32964
94.25859,0.33191
94.01752,0.33485
93.77645,0.33436
93.53538,0.33082
93.29431,0.32919
93.05323,0.33131
92.81216,0.33395
92.57109,0.33493
92.33002,0.33534
92.08895,0.33537
91.84788,0.33447
91.60681,0.33501
91.36574,0.33992
91.12467,0.34879
90.88360,0.36095
90.64253,0.37846
90.40146,0.40240
90.16039,0.43194
89.91932,0.46806
89.67825,0.51111
89.43718,0.55589
89.19611,0.59689
88.95504,0.63400
88.71396,0.66563
88.47289,0.68470
88.23182,0.68561
87.99075,0.66817
87.74968,0.63648
87.50861,0.59804
87.26754,0.56008
87.02647,0.52569
86.78540,0.49509
86.54433,0.46811
86.30326,0.44466
86.06219,0.42402
85.82112,0.40466
85.58005,0.38519
85.33898,0.36587
85.09791,0.34826
84.85684,0.33306
84.61577,0.31933
84.37469,0.30630
84.13362,0.29452
83.89255,0.28492
83.65148,0.27790
83.41041,0.27338
83.16934,0.27047
82.92827,0.26705
82.68720,0.26143
82.44613,0.25428
82.20506,0.24765
81.96399,0.24280
81.72292,0.23990
81.48185,0.23836
81.24078,0.23702
80.99971,0.23474
80.75864,0.23128
80.51757,0.22723
80.27650,0.22355
80.03542,0.22094
79.79435,0.21918
79.55328,0.21762
79.31221,0.21598
79.07114,0.21421
78.83007,0.21188
78.58900,0.20907
78.34793,0.20672
78.10686,0.20526
77.86579,0.20361
77.62472,0.20056
77.38365,0.19633
77.14258,0.19238
76.90151,0.19008
76.66044,0.18971
76.41937,0.19032
76.17830,0.19031
75.93723,0.18853
75.69615,0.18515
75.45508,0.18130
75.21401,0.17808
74.97294,0.17630
74.73187,0.17638
74.49080,0.17792
74.24973,0.17972
74.00866,0.18095
73.76759,0.18190
73.52652,0.18323
73.28545,0.18486
73.04438,0.18610
72.80331,0.18644
72.56224,0.18593
72.32117,0.18509
72.08010,0.18456
71.83903,0.18456
71.59796,0.18451
71.35688,0.18415
71.11581,0.18465
70.87474,0.18773
70.63367,0.19396
70.39260,0.20304
70.15153,0.21531
69.91046,0.23156
69.66939,0.25114
69.42832,0.27055
69.18725,0.28444
68.94618,0.28874
68.70511,0.28313
68.46404,0.26997
68.22297,0.25213
67.98190,0.23297
67.74083,0.21619
67.49976,0.20410
67.25869,0.19626
67.01761,0.19031
66.77654,0.18389
66.53547,0.17598
66.29440,0.16711
66.05333,0.15849
65.81226,0.15139
65.57119,0.14710
65.33012,0.14683
65.08905,0.15078
64.84798,0.15778
64.60691,0.16637
64.36584,0.17593
64.12477,0.18622
63.88370,0.19637
63.64263,0.20471
63.40156,0.20952
63.16049,0.21026
62.91942,0.20851
62.67834,0.20674
62.43727,0.20501
62.19620,0.20025
61.95513,0.19004
61.71406,0.17586
61.47299,0.16107
61.23192,0.14789
60.99085,0.13787
60.74978,0.13352
60.50871,0.13740
60.26764,0.14973
60.02657,0.16726
59.78550,0.18379
59.54443,0.19224
59.30336,0.18887
59.06229,0.17628
58.82122,0.16094
58.58015,0.14918
58.33907,0.14580
58.09800,0.15328
57.85693,0.16935
57.61586,0.18507
57.37479,0.18851
57.13372,0.17575
56.89265,0.15558
56.65158,0.13984
56.41051,0.13479
56.16944,0.13995
55.92837,0.14937
55.68730,0.15509
55.44623,0.15283
55.20516,0.14537
54.96409,0.13967
54.72302,0.14206
54.48195,0.15475
54.24088,0.17248
53.99980,0.18247
53.75873,0.17620
53.51766,0.16184
53.27659,0.15424
53.03552,0.16152
52.79445,0.18097
52.55338,0.19711
52.31231,0.19400
52.07124,0.17780
51.83017,0.16721
51.58910,0.17150
51.34803,0.18414
51.10696,0.18704
50.86589,0.17285
50.62482,0.15778
50.38375,0.15963
50.14268,0.18076
49.90161,0.20261
49.66053,0.20046
49.41946,0.18202
49.17839,0.17526
48.93732,0.18661
48.69625,0.19345
48.45518,0.18146
48.21411,0.17189
47.97304,0.18303
47.73197,0.20084
47.49090,0.19522
47.24983,0.17287
47.00876,0.16340
46.76769,0.16754
46.52662,0.16332
46.28555,0.15265
46.04448,0.15442
45.80341,0.16403
45.56234,0.16374
45.32126,0.15870
45.08019,0.16186
44.83912,0.16792
44.59805,0.16881
44.35698,0.16708
44.11591,0.16343
43.87484,0.15935
43.63377,0.16337
43.39270,0.17492
43.15163,0.18098
42.91056,0.17695
42.66949,0.17099
42.42842,0.16883
42.18735,0.17039
41.94628,0.17235
41.70521,0.17011
41.46414,0.16416
41.22307,0.16105
40.98199,0.16565
40.74092,0.17701
40.49985,0.18981
40.25878,0.19773
40.01771,0.19911
39.77664,0.19861
39.53557,0.20167
39.29450,0.21016
39.05343,0.22184
38.81236,0.23223
38.57129,0.23879
38.33022,0.24312
38.08915,0.24781
37.84808,0.25183
37.60701,0.25016
37.36594,0.23880
37.12487,0.22107
36.88380,0.20553
36.64272,0.19706
36.40165,0.19377
36.16058,0.19038
35.91951,0.18334
35.67844,0.17626
35.43737,0.17551
35.19630,0.17851
34.95523,0.17583
34.71416,0.16431
34.47309,0.14665
34.23202,0.12483
33.99095,0.10336
33.74988,0.09172
33.50881,0.09545
33.26774,0.10657
33.02667,0.10958
32.78560,0.09866
32.54453,0.08386
32.30345,0.07479
32.06238,0.06844
31.82131,0.05702
31.58024,0.03883
31.33917,0.01883
31.09810,0.00260
30.85703,-0.00890
30.61596,-0.01974
30.37489,-0.03432
30.13382,-0.05057
29.89275,-0.06005
29.65168,-0.05979
29.41061,-0.05998
29.16954,-0.07025
28.92847,-0.08546
28.68740,-0.09741
28.44633,-0.10796
28.20526,-0.12047
27.96418,-0.13111
27.72311,-0.13630
27.48204,-0.13935
27.24097,-0.14518
26.99990,-0.15425
26.75883,-0.16258
26.51776,-0.16783
26.27669,-0.17227
26.03562,-0.17749
25.79455,-0.18375
25.55348,-0.19309
25.31241,-0.20624
25.07134,-0.22045
24.83027,-0.23521
24.58920,-0.25231
24.34813,-0.26792
24.10706,-0.27508
23.86599,-0.27613
23.62491,-0.28315
23.38384,-0.30081
23.14277,-0.31711
22.90170,-0.31805
22.66063,-0.30519
22.41956,-0.29142
22.17849,-0.28859
21.93742,-0.30114
21.69635,-0.32282
21.45528,-0.34149
21.21421,-0.35128
20.97314,-0.35280
20.73207,-0.34857
20.49100,-0.34659
20.24993,-0.35418
20.00886,-0.36499
19.76779,-0.36843
19.52672,-0.36891
19.28564,-0.37784
19.04457,-0.39609
18.80350,-0.41681
18.56243,-0.43492
18.32136,-0.44341
18.08029,-0.43352
17.83922,-0.41004
17.59815,-0.39111
17.35708,-0.38891
17.11601,-0.39610
16.87494,-0.39728
16.63387,-0.39187
16.39280,-0.39026
16.15173,-0.39695
15.91066,-0.40573
15.66959,-0.40439
15.42852,-0.38949
15.18745,-0.37855
14.94637,-0.38713
14.70530,-0.40539
14.46423,-0.41274
14.22316,-0.40624
13.98209,-0.39836
13.74102,-0.39828
13.49995,-0.40737
13.25888,-0.42229
13.01781,-0.43893
12.77674,-0.45484
12.53567,-0.46462
12.29460,-0.45995
12.05353,-0.44306
11.81246,-0.42138
11.57139,-0.40012
11.33032,-0.39130
11.08925,-0.40308
10.84818,-0.42690
10.60710,-0.44579
10.36603,-0.44916
10.12496,-0.43808
9.88389,-0.42468
9.64282,-0.42196
9.40175,-0.43191
9.16068,-0.44488
8.91961,-0.44923
8.67854,-0.44042
8.43747,-0.42593
8.19640,-0.41732
7.95533,-0.41765
7.71426,-0.42763
7.47319,-0.44875
7.23212,-0.47319
6.99105,-0.48559
6.74998,-0.48189
6.50891,-0.46868
6.26783,-0.45459
6.02676,-0.44854
5.78569,-0.44856
5.54462,-0.44438
5.30355,-0.43546
5.06248,-0.43106
4.82141,-0.43708
4.58034,-0.44843
4.33927,-0.44894
4.09820,-0.42854
3.85713,-0.40294
3.61606,-0.39367
3.37499,-0.40072
3.13392,-0.41477
2.89285,-0.43083
2.65178,-0.44174
2.41071,-0.44206
2.16964,-0.43583
1.92856,-0.42680
1.68749,-0.41854
1.44642,-0.41521
1.20535,-0.41266
0.96428,-0.40695
0.72321,-0.42261
0.48214,-0.52127
0.24107,-0.61835
-0.00000,-0.17288
