399.69498,1.44872
399.45391,1.44423
399.21284,1.43997
398.97177,1.44023
398.73070,1.44049
398.48963,1.43495
398.24856,1.42603
398.00749,1.42070
397.76642,1.42114
397.52535,1.42419
397.28428,1.42829
397.04321,1.43354
396.80214,1.43498
396.56107,1.42708
396.32000,1.41711
396.07892,1.42050
395.83785,1.44083
395.59678,1.46240
395.35571,1.46767
395.11464,1.45892
394.87357,1.45098
394.63250,1.44901
394.39143,1.44676
394.15036,1.44229
393.90929,1.44233
393.66822,1.44917
393.42715,1.45414
393.18608,1.45107
392.94501,1.44849
392.70394,1.45781
392.46287,1.47314
392.22180,1.47467
391.98073,1.45756
391.73965,1.43714
391.49858,1.42588
391.25751,1.42318
391.01644,1.42172
390.77537,1.41753
390.53430,1.41446
390.29323,1.41946
390.05216,1.43287
389.81109,1.44624
389.57002,1.45212
389.32895,1.44922
389.08788,1.43679
388.84681,1.41604
388.60574,1.39739
388.36467,1.39332
388.12360,1.40311
387.88253,1.41225
387.64146,1.40994
387.40038,1.40250
387.15931,1.40137
386.91824,1.40535
386.67717,1.40667
386.43610,1.40466
386.19503,1.40013
385.95396,1.39379
385.71289,1.38802
385.47182,1.38419
385.23075,1.38265
384.98968,1.37999
384.74861,1.36826
384.50754,1.34319
384.26647,1.31259
384.02540,1.29012
383.78433,1.28150
383.54326,1.28033
383.30219,1.27584
383.06111,1.26729
382.82004,1.26366
382.57897,1.26622
382.33790,1.26865
382.09683,1.27032
381.85576,1.27549
381.61469,1.28412
381.37362,1.28912
381.13255,1.28574
380.89148,1.27918
380.65041,1.27378
380.40934,1.26961
380.16827,1.26541
379.92720,1.25812
379.68613,1.24654
379.44506,1.23455
379.20399,1.22985
378.96292,1.23812
378.72184,1.25426
378.48077,1.26486
378.23970,1.26459
377.99863,1.26316
377.75756,1.27055
377.51649,1.28338
377.27542,1.28995
377.03435,1.28694
376.79328,1.28479
376.55221,1.29588
376.31114,1.31922
376.07007,1.34030
375.82900,1.35130
375.58793,1.36121
375.34686,1.37784
375.10579,1.39199
374.86472,1.39133
374.62365,1.38011
374.38257,1.36825
374.14150,1.35633
373.90043,1.34504
373.65936,1.34080
373.41829,1.34373
373.17722,1.34468
372.93615,1.33674
372.69508,1.32294
372.45401,1.31161
372.21294,1.30659
371.97187,1.30387
371.73080,1.29815
371.48973,1.29122
371.24866,1.28705
371.00759,1.28101
370.76652,1.26718
370.52545,1.24989
370.28437,1.23765
370.04330,1.23307
369.80223,1.23142
369.56116,1.22539
369.32009,1.21137
369.07902,1.19241
368.83795,1.17537
368.59688,1.16587
368.35581,1.16557
368.11474,1.17131
367.87367,1.17723
367.63260,1.17972
367.39153,1.17877
367.15046,1.17514
366.90939,1.16968
366.66832,1.16374
366.42725,1.15828
366.18618,1.15331
365.94510,1.14886
365.70403,1.14494
365.46296,1.14092
365.22189,1.13734
364.98082,1.13683
364.73975,1.14040
364.49868,1.14409
364.25761,1.14206
364.01654,1.13269
363.77547,1.12065
363.53440,1.11219
363.29333,1.10919
363.05226,1.10910
362.81119,1.10902
362.57012,1.10796
362.32905,1.10656
362.08798,1.10625
361.84691,1.10807
361.60583,1.11111
361.36476,1.11320
361.12369,1.11297
360.88262,1.11045
360.64155,1.10638
360.40048,1.10247
360.15941,1.10040
359.91834,1.09910
359.67727,1.09589
359.43620,1.09098
359.19513,1.08773
358.95406,1.08788
358.71299,1.08959
358.47192,1.09083
358.23085,1.09238
357.98978,1.09550
357.74871,1.09883
357.50764,1.09933
357.26656,1.09478
357.02549,1.08598
356.78442,1.07809
356.54335,1.07719
356.30228,1.08345
356.06121,1.08983
355.82014,1.08955
355.57907,1.08363
355.33800,1.07890
355.09693,1.07903
354.85586,1.08016
354.61479,1.07711
354.37372,1.07159
354.13265,1.07007
353.89158,1.07530
353.65051,1.08376
353.40944,1.09046
353.16837,1.09350
352.92729,1.09376
352.68622,1.09170
352.44515,1.08701
352.20408,1.08243
351.96301,1.08362
351.72194,1.09214
351.48087,1.10202
351.23980,1.10576
350.99873,1.10252
350.75766,1.09866
350.51659,1.10014
350.27552,1.10633
350.03445,1.11209
349.79338,1.11489
349.55231,1.11719
349.31124,1.12078
349.07017,1.12305
348.82910,1.12076
348.58802,1.11494
348.34695,1.11050
348.10588,1.11071
347.86481,1.11368
347.62374,1.11562
347.38267,1.11633
347.14160,1.11851
346.90053,1.12324
346.65946,1.12906
346.41839,1.13451
346.17732,1.13979
345.93625,1.14579
345.69518,1.15192
345.45411,1.15632
345.21304,1.15882
344.97197,1.16254
344.73090,1.17105
344.48983,1.18404
344.24875,1.19657
344.00768,1.20359
343.76661,1.20509
343.52554,1.20500
343.28447,1.20665
343.04340,1.21091
342.80233,1.21613
342.56126,1.21896
342.32019,1.21801
342.07912,1.21613
341.83805,1.21754
341.59698,1.22322
341.35591,1.23033
341.11484,1.23745
340.87377,1.24746
340.63270,1.26241
340.39163,1.27871
340.15056,1.29243
339.90948,1.30411
339.66841,1.31278
339.42734,1.31308
339.18627,1.30318
338.94520,1.29107
338.70413,1.28798
338.46306,1.29717
338.22199,1.31226
337.98092,1.32570
337.73985,1.33626
337.49878,1.34547
337.25771,1.35077
337.01664,1.34965
336.77557,1.34821
336.53450,1.35620
336.29343,1.37300
336.05236,1.38379
335.81129,1.37527
335.57021,1.35486
335.32914,1.34105
335.08807,1.34004
334.84700,1.34297
334.60593,1.34015
334.36486,1.33094
334.12379,1.31984
333.88272,1.31063
333.64165,1.30606
333.40058,1.30696
333.15951,1.30991
332.91844,1.30797
332.67737,1.29632
332.43630,1.27991
332.19523,1.26836
331.95416,1.26413
331.71309,1.26296
331.47202,1.26295
331.23094,1.26382
330.98987,1.25952
330.74880,1.24361
330.50773,1.22187
330.26666,1.20831
330.02559,1.20890
329.78452,1.21566
329.54345,1.21793
329.30238,1.21497
329.06131,1.21344
328.82024,1.21604
328.57917,1.21776
328.33810,1.21344
328.09703,1.20510
327.85596,1.19841
327.61489,1.19570
327.37382,1.19661
327.13275,1.20172
326.89167,1.21087
326.65060,1.22090
326.40953,1.22856
326.16846,1.23240
325.92739,1.23119
325.68632,1.22604
325.44525,1.22317
325.20418,1.22788
324.96311,1.23712
324.72204,1.24323
324.48097,1.24271
324.23990,1.23748
323.99883,1.23022
323.75776,1.22434
323.51669,1.22493
323.27562,1.23275
323.03455,1.24215
322.79348,1.24947
322.55240,1.25700
322.31133,1.26303
322.07026,1.26005
321.82919,1.24908
321.58812,1.24115
321.34705,1.24356
321.10598,1.25433
320.86491,1.26607
320.62384,1.27255
320.38277,1.27397
320.14170,1.27445
319.90063,1.27529
319.65956,1.27372
319.41849,1.26751
319.17742,1.25530
318.93635,1.23999
318.69528,1.23081
318.45421,1.23393
318.21313,1.24613
317.97206,1.25956
317.73099,1.26962
317.48992,1.27470
317.24885,1.27260
317.00778,1.26171
316.76671,1.24585
316.52564,1.23477
316.28457,1.23638
316.04350,1.24956
315.80243,1.26529
315.56136,1.27614
315.32029,1.28465
315.07922,1.29493
314.83815,1.30139
314.59708,1.29756
314.35601,1.29003
314.11494,1.29079
313.87386,1.30087
313.63279,1.31018
313.39172,1.30893
313.15065,1.29809
312.90958,1.28890
312.66851,1.29086
312.42744,1.30189
312.18637,1.31448
311.94530,1.32536
311.70423,1.33262
311.46316,1.33209
311.22209,1.32354
310.98102,1.31540
310.73995,1.31699
310.49888,1.32667
310.25781,1.33484
310.01674,1.33837
309.77567,1.34314
309.53459,1.35300
309.29352,1.36223
309.05245,1.36090
308.81138,1.34782
308.57031,1.33229
308.32924,1.32586
308.08817,1.33562
307.84710,1.36000
307.60603,1.38848
307.36496,1.40617
307.12389,1.40420
306.88282,1.38828
306.64175,1.37128
306.40068,1.36070
306.15961,1.35737
305.91854,1.36064
305.67747,1.36790
305.43640,1.37088
305.19532,1.36255
304.95425,1.34815
304.71318,1.33844
304.47211,1.33787
304.23104,1.34147
303.98997,1.33908
303.74890,1.32614
303.50783,1.30874
303.26676,1.29677
303.02569,1.29431
302.78462,1.29789
302.54355,1.30112
302.30248,1.29845
302.06141,1.28812
301.82034,1.27352
301.57927,1.26267
301.33820,1.26097
301.09713,1.26274
300.85605,1.25668
300.61498,1.24058
300.37391,1.22225
300.13284,1.20765
299.89177,1.19688
299.65070,1.18935
299.40963,1.18548
299.16856,1.18423
298.92749,1.18340
298.68642,1.18094
298.44535,1.17581
298.20428,1.16889
297.96321,1.16174
297.72214,1.15368
297.48107,1.14339
297.24000,1.13328
296.99893,1.12820
296.75786,1.12970
296.51678,1.13314
296.27571,1.13216
296.03464,1.12554
295.79357,1.11794
295.55250,1.11443
295.31143,1.11485
295.07036,1.11508
294.82929,1.11298
294.58822,1.10966
294.34715,1.10577
294.10608,1.10006
293.86501,1.09252
293.62394,1.08567
293.38287,1.08141
293.14180,1.07987
292.90073,1.07975
292.65966,1.07760
292.41859,1.07022
292.17751,1.06008
291.93644,1.05383
291.69537,1.05402
291.45430,1.05629
291.21323,1.05486
290.97216,1.04812
290.73109,1.03918
290.49002,1.03297
290.24895,1.03166
290.00788,1.03277
289.76681,1.03276
289.52574,1.03108
289.28467,1.02897
289.04360,1.02648
288.80253,1.02332
288.56146,1.02121
288.32039,1.02245
288.07932,1.02605
287.83824,1.02792
287.59717,1.02608
287.35610,1.02328
287.11503,1.02236
286.87396,1.02199
286.63289,1.01959
286.39182,1.01574
286.15075,1.01257
285.90968,1.01001
285.66861,1.00677
285.42754,1.00321
285.18647,1.00109
284.94540,1.00133
284.70433,1.00323
284.46326,1.00516
284.22219,1.00581
283.98112,1.00565
283.74005,1.00662
283.49897,1.00885
283.25790,1.00959
283.01683,1.00764
282.77576,1.00541
282.53469,1.00476
282.29362,1.00440
282.05255,1.00289
281.81148,1.00119
281.57041,1.00115
281.32934,1.00345
281.08827,1.00697
280.84720,1.00974
280.60613,1.01055
280.36506,1.00950
280.12399,1.00733
279.88292,1.00539
279.64185,1.00517
279.40078,1.00654
279.15970,1.00736
278.91863,1.00579
278.67756,1.00271
278.43649,1.00102
278.19542,1.00228
277.95435,1.00498
277.71328,1.00658
277.47221,1.00642
277.23114,1.00564
276.99007,1.00595
276.74900,1.00857
276.50793,1.01280
276.26686,1.01604
276.02579,1.01718
275.78472,1.01825
275.54365,1.02100
275.30258,1.02399
275.06151,1.02481
274.82043,1.02353
274.57936,1.02290
274.33829,1.02557
274.09722,1.03127
273.85615,1.03686
273.61508,1.03918
273.37401,1.03785
273.13294,1.03548
272.89187,1.03522
272.65080,1.03769
272.40973,1.04039
272.16866,1.04093
271.92759,1.04000
271.68652,1.04023
271.44545,1.04353
271.20438,1.05001
270.96331,1.05789
270.72224,1.06409
270.48116,1.06682
270.24009,1.06784
269.99902,1.07041
269.75795,1.07504
269.51688,1.07949
269.27581,1.08241
269.03474,1.08526
268.79367,1.09032
268.55260,1.09817
268.31153,1.10683
268.07046,1.11326
267.82939,1.11620
267.58832,1.11778
267.34725,1.12084
267.10618,1.12596
266.86511,1.13259
266.62404,1.14126
266.38297,1.15163
266.14189,1.16088
265.90082,1.16741
265.65975,1.17455
265.41868,1.18676
265.17761,1.20307
264.93654,1.21776
264.69547,1.22749
264.45440,1.23383
264.21333,1.23988
263.97226,1.24790
263.73119,1.25943
263.49012,1.27435
263.24905,1.29016
263.00798,1.30459
262.76691,1.31878
262.52584,1.33516
262.28477,1.35299
262.04370,1.36870
261.80262,1.38071
261.56155,1.39259
261.32048,1.41134
261.07941,1.44263
260.83834,1.48371
260.59727,1.52016
260.35620,1.53962
260.11513,1.55088
259.87406,1.57545
259.63299,1.62240
259.39192,1.67754
259.15085,1.71621
258.90978,1.72891
258.66871,1.72521
258.42764,1.72242
258.18657,1.73859
257.94550,1.77253
257.70443,1.79222
257.46335,1.77457
257.22228,1.74364
256.98121,1.72545
256.74014,1.72084
256.49907,1.71882
256.25800,1.71355
256.01693,1.70769
255.77586,1.70318
255.53479,1.69793
255.29372,1.69095
255.05265,1.68161
254.81158,1.66835
254.57051,1.65073
254.32944,1.62799
254.08837,1.60239
253.84730,1.58210
253.60623,1.57318
253.36516,1.57020
253.12408,1.56350
252.88301,1.55282
252.64194,1.54373
252.40087,1.53695
252.15980,1.53008
251.91873,1.52411
251.67766,1.52311
251.43659,1.52830
251.19552,1.53283
250.95445,1.52615
250.71338,1.50755
250.47231,1.48862
250.23124,1.47957
249.99017,1.48043
249.74910,1.48464
249.50803,1.48416
249.26696,1.47451
249.02589,1.46037
248.78481,1.45100
248.54374,1.44991
248.30267,1.45452
248.06160,1.46421
247.82053,1.47980
247.57946,1.49478
247.33839,1.50058
247.09732,1.50077
246.85625,1.50476
246.61518,1.51316
246.37411,1.52069
246.13304,1.52611
245.89197,1.53078
245.65090,1.53526
245.40983,1.54316
245.16876,1.55857
244.92769,1.57920
244.68661,1.60106
244.44554,1.62765
244.20447,1.66687
243.96340,1.72136
243.72233,1.78288
243.48126,1.83496
243.24019,1.87254
242.99912,1.91630
242.75805,1.97228
242.51698,1.96031
242.27591,1.85425
242.03484,1.72178
241.79377,1.59592
241.55270,1.49479
241.31163,1.42152
241.07056,1.36477
240.82949,1.30956
240.58842,1.25246
240.34734,1.20168
240.10627,1.16228
239.86520,1.12935
239.62413,1.09557
239.38306,1.05979
239.14199,1.02590
238.90092,0.99658
238.65985,0.97124
238.41878,0.94823
238.17771,0.92720
237.93664,0.90895
237.69557,0.89354
237.45450,0.87963
237.21343,0.86649
236.97236,0.85509
236.73129,0.84550
236.49022,0.83558
236.24915,0.82449
236.00807,0.81459
235.76700,0.80782
235.52593,0.80288
235.28486,0.79734
235.04379,0.79024
234.80272,0.78204
234.56165,0.77368
234.32058,0.76621
234.07951,0.76033
233.83844,0.75601
233.59737,0.75276
233.35630,0.75028
233.11523,0.74876
232.87416,0.74847
232.63309,0.74886
232.39202,0.74906
232.15095,0.74887
231.90988,0.74828
231.66880,0.74684
231.42773,0.74427
231.18666,0.74105
230.94559,0.73797
230.70452,0.73555
230.46345,0.73395
230.22238,0.73296
229.98131,0.73280
229.74024,0.73430
229.49917,0.73748
229.25810,0.74069
229.01703,0.74207
228.77596,0.74113
228.53489,0.73829
228.29382,0.73439
228.05275,0.73083
227.81168,0.72814
227.57061,0.72505
227.32953,0.72140
227.08846,0.72018
226.84739,0.72358
226.60632,0.72906
226.36525,0.73197
226.12418,0.73133
225.88311,0.73022
225.64204,0.73066
225.40097,0.73112
225.15990,0.72969
224.91883,0.72795
224.67776,0.72967
224.43669,0.73573
224.19562,0.74294
223.95455,0.74834
223.71348,0.75221
223.47241,0.75593
223.23134,0.75960
222.99026,0.76289
222.74919,0.76574
222.50812,0.76831
222.26705,0.77179
222.02598,0.77811
221.78491,0.78727
221.54384,0.79656
221.30277,0.80405
221.06170,0.81088
220.82063,0.81882
220.57956,0.82767
220.33849,0.83652
220.09742,0.84592
219.85635,0.85750
219.61528,0.87128
219.37421,0.88446
219.13314,0.89452
218.89207,0.90279
218.65099,0.91263
218.40992,0.92480
218.16885,0.93710
217.92778,0.94818
217.68671,0.95989
217.44564,0.97547
217.20457,0.99503
216.96350,1.01326
216.72243,1.02438
216.48136,1.02994
216.24029,1.03790
215.99922,1.05359
215.75815,1.07488
215.51708,1.09645
215.27601,1.11651
215.03494,1.13671
214.79387,1.15632
214.55280,1.17164
214.31172,1.18226
214.07065,1.19231
213.82958,1.20522
213.58851,1.22147
213.34744,1.23993
213.10637,1.25798
212.86530,1.27290
212.62423,1.28414
212.38316,1.29240
212.14209,1.29933
211.90102,1.30788
211.65995,1.31820
211.41888,1.32549
211.17781,1.32514
210.93674,1.31845
210.69567,1.30994
210.45460,1.30358
210.21353,1.30347
209.97245,1.31108
209.73138,1.32005
209.49031,1.32067
209.24924,1.31146
209.00817,1.30097
208.76710,1.29719
208.52603,1.30008
208.28496,1.30561
208.04389,1.31055
207.80282,1.30949
207.56175,1.29637
207.32068,1.27206
207.07961,1.24518
206.83854,1.22519
206.59747,1.21603
206.35640,1.21382
206.11533,1.20977
205.87426,1.19805
205.63318,1.18027
205.39211,1.16056
205.15104,1.14121
204.90997,1.12343
204.66890,1.10729
204.42783,1.09126
204.18676,1.07524
203.94569,1.06132
203.70462,1.04956
203.46355,1.03751
203.22248,1.02401
202.98141,1.00894
202.74034,0.99032
202.49927,0.96749
202.25820,0.94471
202.01713,0.92654
201.77606,0.91267
201.53499,0.89962
201.29391,0.88482
201.05284,0.86854
200.81177,0.85332
200.57070,0.84145
200.32963,0.83198
200.08856,0.82113
199.84749,0.80678
199.60642,0.79106
199.36535,0.77763
199.12428,0.76774
198.88321,0.75927
198.64214,0.74879
198.40107,0.73511
198.16000,0.72059
197.91893,0.70839
197.67786,0.69911
197.43679,0.69086
197.19572,0.68190
196.95464,0.67211
196.71357,0.66216
196.47250,0.65245
196.23143,0.64346
195.99036,0.63575
195.74929,0.62912
195.50822,0.62274
195.26715,0.61633
195.02608,0.61077
194.78501,0.60691
194.54394,0.60365
194.30287,0.59829
194.06180,0.58985
193.82073,0.58146
193.57966,0.57709
193.33859,0.57670
193.09752,0.57638
192.85645,0.57320
192.61537,0.56802
192.37430,0.56309
192.13323,0.55893
191.89216,0.55447
191.65109,0.54928
191.41002,0.54468
191.16895,0.54178
190.92788,0.53957
190.68681,0.53623
190.44574,0.53215
190.20467,0.52938
189.96360,0.52841
189.72253,0.52765
189.48146,0.52607
189.24039,0.52435
188.99932,0.52281
188.75825,0.52061
188.51718,0.51768
188.27610,0.51555
188.03503,0.51495
187.79396,0.51428
187.55289,0.51210
187.31182,0.50964
187.07075,0.50916
186.82968,0.51097
186.58861,0.51346
186.34754,0.51531
186.10647,0.51619
185.86540,0.51613
185.62433,0.51558
185.38326,0.51585
185.14219,0.51779
184.90112,0.52053
184.66005,0.52266
184.41898,0.52411
184.17791,0.52566
183.93683,0.52743
183.69576,0.52903
183.45469,0.53063
183.21362,0.53290
182.97255,0.53551
182.73148,0.53697
182.49041,0.53650
182.24934,0.53504
182.00827,0.53374
181.76720,0.53312
181.52613,0.53393
181.28506,0.53686
181.04399,0.54131
180.80292,0.54581
180.56185,0.54955
180.32078,0.55254
180.07971,0.55521
179.83864,0.55847
179.59756,0.56283
179.35649,0.56771
179.11542,0.57257
178.87435,0.57812
178.63328,0.58529
178.39221,0.59414
178.15114,0.60446
177.91007,0.61615
177.66900,0.62861
177.42793,0.64121
177.18686,0.65450
176.94579,0.66926
176.70472,0.68525
176.46365,0.70258
176.22258,0.72279
175.98151,0.74583
175.74044,0.76832
175.49937,0.78746
175.25829,0.80440
175.01722,0.82217
174.77615,0.84220
174.53508,0.86427
174.29401,0.88849
174.05294,0.91550
173.81187,0.94390
173.57080,0.96995
173.32973,0.99117
173.08866,1.00781
172.84759,1.02017
172.60652,1.02804
172.36545,1.03225
172.12438,1.03361
171.88331,1.03210
171.64224,1.02815
171.40117,1.02367
171.16010,1.02158
170.91902,1.02349
170.67795,1.02708
170.43688,1.02732
170.19581,1.02152
169.95474,1.01179
169.71367,1.00123
169.47260,0.99044
169.23153,0.97869
168.99046,0.96688
168.74939,0.95772
168.50832,0.95296
168.26725,0.95234
168.02618,0.95444
167.78511,0.95644
167.54404,0.95476
167.30297,0.94935
167.06190,0.94435
166.82083,0.94205
166.57975,0.94106
166.33868,0.94148
166.09761,0.94625
165.85654,0.95668
165.61547,0.97079
165.37440,0.98542
165.13333,0.99768
164.89226,1.00630
164.65119,1.01314
164.41012,1.02226
164.16905,1.03638
163.92798,1.05445
163.68691,1.07315
163.44584,1.09078
163.20477,1.10789
162.96370,1.12380
162.72263,1.13557
162.48156,1.14232
162.24048,1.14763
161.99941,1.15589
161.75834,1.16816
161.51727,1.18132
161.27620,1.19026
161.03513,1.19204
160.79406,1.18749
160.55299,1.17963
160.31192,1.17202
160.07085,1.16711
159.82978,1.16430
159.58871,1.15975
159.34764,1.14970
159.10657,1.13406
158.86550,1.11688
158.62443,1.10352
158.38336,1.09758
158.14229,1.09920
157.90121,1.10396
157.66014,1.10397
157.41907,1.09383
157.17800,1.07704
156.93693,1.06226
156.69586,1.05398
156.45479,1.05054
156.21372,1.04829
155.97265,1.04433
155.73158,1.03666
155.49051,1.02425
155.24944,1.00828
155.00837,0.99267
154.76730,0.98122
154.52623,0.97350
154.28516,0.96478
154.04409,0.95084
153.80302,0.93175
153.56194,0.91038
153.32087,0.88900
153.07980,0.86864
152.83873,0.84973
152.59766,0.83152
152.35659,0.81212
152.11552,0.79044
151.87445,0.76769
151.63338,0.74630
151.39231,0.72734
151.15124,0.70939
150.91017,0.69044
150.66910,0.67049
150.42803,0.65195
150.18696,0.63703
149.94589,0.62513
149.70482,0.61376
149.46375,0.60139
149.22267,0.58872
148.98160,0.57762
148.74053,0.56933
148.49946,0.56346
148.25839,0.55862
148.01732,0.55386
147.77625,0.54947
147.53518,0.54643
147.29411,0.54525
147.05304,0.54531
146.81197,0.54535
146.57090,0.54497
146.32983,0.54537
146.08876,0.54816
145.84769,0.55349
145.60662,0.55972
145.36555,0.56483
145.12448,0.56837
144.88340,0.57213
144.64233,0.57839
144.40126,0.58696
144.16019,0.59442
143.91912,0.59762
143.67805,0.59698
143.43698,0.59454
143.19591,0.59056
142.95484,0.58421
142.71377,0.57592
142.47270,0.56696
142.23163,0.55748
141.99056,0.54683
141.74949,0.53554
141.50842,0.52549
141.26735,0.51776
141.02628,0.51152
140.78521,0.50598
140.54413,0.50215
140.30306,0.50140
140.06199,0.50321
139.82092,0.50589
139.57985,0.50900
139.33878,0.51339
139.09771,0.51925
138.85664,0.52580
138.61557,0.53308
138.37450,0.54199
138.13343,0.55276
137.89236,0.56496
137.65129,0.57894
137.41022,0.59525
137.16915,0.61311
136.92808,0.63176
136.68701,0.65229
136.44594,0.67614
136.20486,0.70296
135.96379,0.73164
135.72272,0.76207
135.48165,0.79420
135.24058,0.82723
134.99951,0.86089
134.75844,0.89560
134.51737,0.93107
134.27630,0.96674
134.03523,1.00246
133.79416,1.03752
133.55309,1.07108
133.31202,1.10366
133.07095,1.13559
132.82988,1.16589
132.58881,1.19468
132.34774,1.22261
132.10667,1.24482
131.86559,1.25334
131.62452,1.24671
131.38345,1.22887
131.14238,1.20154
130.90131,1.16547
130.66024,1.12396
130.41917,1.08089
130.17810,1.03835
129.93703,0.99733
129.69596,0.95787
129.45489,0.91855
129.21382,0.87815
128.97275,0.83786
128.73168,0.79991
128.49061,0.76446
128.24954,0.72987
128.00847,0.69608
127.76740,0.66539
127.52632,0.63946
127.28525,0.61710
127.04418,0.59538
126.80311,0.57252
126.56204,0.54970
126.32097,0.52962
126.07990,0.51374
125.83883,0.50147
125.59776,0.49113
125.35669,0.48113
125.11562,0.47074
124.87455,0.46015
124.63348,0.44993
124.39241,0.44076
124.15134,0.43338
123.91027,0.42790
123.66920,0.42338
123.42812,0.41892
123.18705,0.41471
122.94598,0.41139
122.70491,0.40918
122.46384,0.40808
122.22277,0.40801
121.98170,0.40867
121.74063,0.40982
121.49956,0.41220
121.25849,0.41713
121.01742,0.42487
120.77635,0.43437
120.53528,0.44525
120.29421,0.45823
120.05314,0.47328
119.81207,0.48961
119.57100,0.50790
119.32993,0.53002
119.08885,0.55640
118.84778,0.58561
118.60671,0.61597
118.36564,0.64624
118.12457,0.67590
117.88350,0.70546
117.64243,0.73510
117.40136,0.76247
117.16029,0.78363
116.91922,0.79633
116.67815,0.80138
116.43708,0.80078
116.19601,0.79560
115.95494,0.78575
115.71387,0.77089
115.47280,0.75144
115.23173,0.72910
114.99066,0.70628
114.74958,0.68537
114.50851,0.66841
114.26744,0.65654
114.02637,0.64993
113.78530,0.64855
113.54423,0.65239
113.30316,0.66064
113.06209,0.67147
112.82102,0.68273
112.57995,0.69226
112.33888,0.69838
112.09781,0.70113
111.85674,0.70250
111.61567,0.70558
111.37460,0.71319
111.13353,0.72568
110.89246,0.73954
110.65139,0.74953
110.41031,0.75235
110.16924,0.74724
109.92817,0.73433
109.68710,0.71489
109.44603,0.69203
109.20496,0.66892
108.96389,0.64744
108.72282,0.62844
108.48175,0.61098
108.24068,0.59167
107.99961,0.56762
107.75854,0.54012
107.51747,0.51387
107.27640,0.49283
107.03533,0.47778
106.79426,0.46685
106.55319,0.45676
106.31212,0.44458
106.07104,0.42959
105.82997,0.41331
105.58890,0.39756
105.34783,0.38366
105.10676,0.37288
104.86569,0.36558
104.62462,0.35988
104.38355,0.35284
104.14248,0.34346
103.90141,0.33354
103.66034,0.32550
103.41927,0.32032
103.17820,0.31702
102.93713,0.31337
102.69606,0.30770
102.45499,0.30027
102.21392,0.29298
101.97285,0.28782
101.73177,0.28539
101.49070,0.28407
101.24963,0.28106
101.00856,0.27520
100.76749,0.26806
100.52642,0.26199
100.28535,0.25812
100.04428,0.25626
99.80321,0.25540
99.56214,0.25401
99.32107,0.25098
99.08000,0.24716
98.83893,0.24501
98.59786,0.24586
98.35679,0.24800
98.11572,0.24856
97.87465,0.24760
97.63358,0.24843
97.39250,0.25328
97.15143,0.25984
96.91036,0.26303
96.66929,0.26173
96.42822,0.26158
96.18715,0.26828
95.94608,0.28034
95.70501,0.29116
95.46394,0.29859
95.22287,0.30689
94.98180,0.31774
94.74073,0.32603
94.49966,0.32680
94.25859,0.32298
94.01752,0.32147
93.77645,0.32416
93.53538,0.32751
93.29431,0.32954
93.05323,0.33212
92.81216,0.33622
92.57109,0.34027
92.33002,0.34363
92.08895,0.34659
91.84788,0.34796
91.60681,0.34815
91.36574,0.35245
91.12467,0.36547
90.88360,0.38503
90.64253,0.40700
90.40146,0.43365
90.16039,0.47005
89.91932,0.51580
89.67825,0.56744
89.43718,0.62332
89.19611,0.67757
88.95504,0.71884
88.71396,0.74259
88.47289,0.74943
88.23182,0.73337
87.99075,0.69236
87.74968,0.63821
87.50861,0.58335
87.26754,0.53230
87.02647,0.48628
86.78540,0.44579
86.54433,0.41078
86.30326,0.38186
86.06219,0.35878
85.82112,0.33859
85.58005,0.31799
85.33898,0.29636
85.09791,0.27551
84.85684,0.25788
84.61577,0.24454
84.37469,0.23430
84.13362,0.22515
83.89255,0.21601
83.65148,0.20694
83.41041,0.19905
83.16934,0.19377
82.92827,0.19080
82.68720,0.18851
82.44613,0.18658
82.20506,0.18578
81.96399,0.18525
81.72292,0.18316
81.48185,0.17967
81.24078,0.17695
80.99971,0.17634
80.75864,0.17676
80.51757,0.17627
80.27650,0.17451
80.03542,0.17289
79.79435,0.17238
79.55328,0.17238
79.31221,0.17202
79.07114,0.17124
78.83007,0.17028
78.58900,0.16900
78.34793,0.16693
78.10686,0.16383
77.86579,0.16005
77.62472,0.15642
77.38365,0.15368
77.14258,0.15217
76.90151,0.15163
76.66044,0.15127
76.41937,0.15076
76.17830,0.15058
75.93723,0.15076
75.69615,0.14998
75.45508,0.14711
75.21401,0.14324
74.97294,0.14080
74.73187,0.14130
74.49080,0.14424
74.24973,0.14772
74.00866,0.15008
73.76759,0.15128
73.52652,0.15216
73.28545,0.15253
73.04438,0.15164
72.80331,0.15031
72.56224,0.15069
72.32117,0.15361
72.08010,0.15764
71.83903,0.16081
71.59796,0.16200
71.35688,0.16125
71.11581,0.15992
70.87474,0.16077
70.63367,0.16639
70.39260,0.17752
70.15153,0.19323
69.91046,0.21206
69.66939,0.23212
69.42832,0.25014
69.18725,0.26195
68.94618,0.26430
68.70511,0.25651
68.46404,0.24046
68.22297,0.21998
67.98190,0.20005
67.74083,0.18483
67.49976,0.17532
67.25869,0.16947
67.01761,0.16472
66.77654,0.15999
66.53547,0.15513
66.29440,0.15008
66.05333,0.14510
65.81226,0.14131
65.57119,0.14020
65.33012,0.14306
65.08905,0.15006
64.84798,0.15961
64.60691,0.16906
64.36584,0.17638
64.12477,0.18045
63.88370,0.18044
63.64263,0.17645
63.40156,0.17038
63.16049,0.16428
62.91942,0.15850
62.67834,0.15261
62.43727,0.14705
62.19620,0.14281
61.95513,0.14029
61.71406,0.13929
61.47299,0.13965
61.23192,0.14131
60.99085,0.14399
60.74978,0.14714
60.50871,0.15045
60.26764,0.15415
60.02657,0.15835
59.78550,0.16191
59.54443,0.16237
59.30336,0.15764
59.06229,0.14785
58.82122,0.13532
58.58015,0.12338
58.33907,0.11561
58.09800,0.11527
57.85693,0.12365
57.61586,0.13856
57.37479,0.15493
57.13372,0.16722
56.89265,0.17144
56.65158,0.16581
56.41051,0.15144
56.16944,0.13308
55.92837,0.11723
55.68730,0.10913
55.44623,0.11112
55.20516,0.12279
54.96409,0.14147
54.72302,0.16157
54.48195,0.17394
54.24088,0.17057
53.99980,0.15393
53.75873,0.13635
53.51766,0.12965
53.27659,0.13897
53.03552,0.16237
52.79445,0.18868
52.55338,0.19689
52.31231,0.17717
52.07124,0.14643
51.83017,0.12467
51.58910,0.12128
51.34803,0.13574
51.10696,0.15611
50.86589,0.16317
50.62482,0.15028
50.38375,0.13124
50.14268,0.12223
49.90161,0.13185
49.66053,0.15770
49.41946,0.17668
49.17839,0.16218
48.93732,0.13339
48.69625,0.12751
48.45518,0.15364
48.21411,0.18205
47.97304,0.16916
47.73197,0.13445
47.49090,0.12418
47.24983,0.14419
47.00876,0.15896
46.76769,0.14062
46.52662,0.11803
46.28555,0.11692
46.04448,0.12660
45.80341,0.13102
45.56234,0.13668
45.32126,0.14724
45.08019,0.14817
44.83912,0.13985
44.59805,0.14112
44.35698,0.15255
44.11591,0.15849
43.87484,0.16099
43.63377,0.16847
43.39270,0.17192
43.15163,0.16472
42.91056,0.15810
42.66949,0.15964
42.42842,0.16554
42.18735,0.17041
41.94628,0.16948
41.70521,0.16180
41.46414,0.15471
41.22307,0.15490
40.98199,0.16075
40.74092,0.16595
40.49985,0.16582
40.25878,0.16263
40.01771,0.16346
39.77664,0.17003
39.53557,0.17728
39.29450,0.18210
39.05343,0.18390
38.81236,0.18278
38.57129,0.18330
38.33022,0.18935
38.08915,0.19690
37.84808,0.20258
37.60701,0.21183
37.36594,0.22685
37.12487,0.23661
36.88380,0.23091
36.64272,0.21640
36.40165,0.20553
36.16058,0.20114
35.91951,0.19898
35.67844,0.19796
35.43737,0.20045
35.19630,0.20547
34.95523,0.20927
34.71416,0.20883
34.47309,0.20101
34.23202,0.18596
33.99095,0.17093
33.74988,0.16273
33.50881,0.15936
33.26774,0.15313
33.02667,0.13970
32.78560,0.12155
32.54453,0.10649
32.30345,0.10135
32.06238,0.10645
31.82131,0.11663
31.58024,0.12469
31.33917,0.12597
31.09810,0.11864
30.85703,0.09682
30.61596,0.05903
30.37489,0.02241
30.13382,0.00274
29.89275,0.00214
29.65168,0.01168
29.41061,0.01640
29.16954,0.00456
28.92847,-0.02283
28.68740,-0.05236
28.44633,-0.07265
28.20526,-0.08518
27.96418,-0.09689
27.72311,-0.10865
27.48204,-0.11610
27.24097,-0.11723
26.99990,-0.11647
26.75883,-0.12081
26.51776,-0.13239
26.27669,-0.14906
26.03562,-0.16758
25.79455,-0.18196
25.55348,-0.18615
25.31241,-0.18301
25.07134,-0.18344
24.83027,-0.19558
24.58920,-0.21468
24.34813,-0.23091
24.10706,-0.24398
23.86599,-0.25615
23.62491,-0.26754
23.38384,-0.28228
23.14277,-0.30155
22.90170,-0.31656
22.66063,-0.32073
22.41956,-0.31918
22.17849,-0.32420
21.93742,-0.34517
21.69635,-0.37537
21.45528,-0.39344
21.21421,-0.38978
20.97314,-0.37783
20.73207,-0.37027
20.49100,-0.36596
20.24993,-0.36004
20.00886,-0.35071
19.76779,-0.34021
19.52672,-0.33255
19.28564,-0.32963
19.04457,-0.33550
18.80350,-0.35592
18.56243,-0.38735
18.32136,-0.42228
18.08029,-0.46644
17.83922,-0.52775
17.59815,-0.57968
17.35708,-0.57758
17.11601,-0.52761
16.87494,-0.46866
16.63387,-0.42584
16.39280,-0.40648
16.15173,-0.40881
15.91066,-0.43054
15.66959,-0.46387
15.42852,-0.49557
15.18745,-0.51896
14.94637,-0.52910
14.70530,-0.52438
14.46423,-0.52803
14.22316,-0.55445
13.98209,-0.57883
13.74102,-0.55877
13.49995,-0.51897
13.25888,-0.50930
13.01781,-0.53716
12.77674,-0.56777
12.53567,-0.55549
12.29460,-0.52114
12.05353,-0.51654
11.81246,-0.53835
11.57139,-0.54795
11.33032,-0.53285
11.08925,-0.50499
10.84818,-0.48151
10.60710,-0.47867
10.36603,-0.49540
10.12496,-0.52164
9.88389,-0.55644
9.64282,-0.59324
9.40175,-0.61311
9.16068,-0.61445
8.91961,-0.59847
8.67854,-0.53957
8.43747,-0.50874
8.19640,-0.51128
7.95533,-0.52506
7.71426,-0.53487
7.47319,-0.54597
7.23212,-0.54024
6.99105,-0.51822
6.74998,-0.50628
6.50891,-0.49366
6.26783,-0.46610
6.02676,-0.43657
5.78569,-0.42595
5.54462,-0.43925
5.30355,-0.47056
5.06248,-0.50813
4.82141,-0.53357
4.58034,-0.53415
4.33927,-0.51911
4.09820,-0.50370
3.85713,-0.50145
3.61606,-0.51670
3.37499,-0.53703
3.13392,-0.53843
2.89285,-0.51422
2.65178,-0.51389
2.41071,-0.54286
2.16964,-0.57149
1.92856,-0.54037
1.68749,-0.50821
1.44642,-0.50949
1.20535,-0.53658
0.96428,-0.56117
0.72321,-0.56424
0.48214,-0.58373
0.24107,-0.56963
-0.00000,-0.13616
