399.69498,1.51632
399.45391,1.51861
399.21284,1.51635
398.97177,1.51165
398.73070,1.50483
398.48963,1.49771
398.24856,1.49417
398.00749,1.49432
397.76642,1.49428
397.52535,1.49170
397.28428,1.48833
397.04321,1.48529
396.80214,1.48066
396.56107,1.47505
396.32000,1.47189
396.07892,1.47056
395.83785,1.46904
395.59678,1.47023
395.35571,1.47677
395.11464,1.48467
394.87357,1.48965
394.63250,1.49371
394.39143,1.49778
394.15036,1.49654
393.90929,1.48758
393.66822,1.47751
393.42715,1.47445
393.18608,1.47757
392.94501,1.48020
392.70394,1.48025
392.46287,1.47926
392.22180,1.47724
391.98073,1.47709
391.73965,1.48389
391.49858,1.49415
391.25751,1.49641
391.01644,1.48607
390.77537,1.46970
390.53430,1.45599
390.29323,1.44973
390.05216,1.44897
389.81109,1.44864
389.57002,1.44770
389.32895,1.44828
389.08788,1.45176
388.84681,1.45786
388.60574,1.46125
388.36467,1.45836
388.12360,1.45597
387.88253,1.46065
387.64146,1.46704
387.40038,1.46236
387.15931,1.44246
386.91824,1.41628
386.67717,1.39282
386.43610,1.37424
386.19503,1.36106
385.95396,1.35595
385.71289,1.35998
385.47182,1.36560
385.23075,1.35927
384.98968,1.33972
384.74861,1.32176
384.50754,1.31628
384.26647,1.31731
384.02540,1.31242
383.78433,1.30009
383.54326,1.28876
383.30219,1.28474
383.06111,1.28709
382.82004,1.29039
382.57897,1.28967
382.33790,1.28403
382.09683,1.27686
381.85576,1.27139
381.61469,1.26570
381.37362,1.25478
381.13255,1.23816
380.89148,1.22256
380.65041,1.21348
380.40934,1.20892
380.16827,1.20557
379.92720,1.20520
379.68613,1.21132
379.44506,1.22270
379.20399,1.23474
378.96292,1.24466
378.72184,1.25222
378.48077,1.25734
378.23970,1.25989
377.99863,1.26326
377.75756,1.27318
377.51649,1.28979
377.27542,1.30374
377.03435,1.30474
376.79328,1.29484
376.55221,1.28755
376.31114,1.29252
376.07007,1.30788
375.82900,1.32768
375.58793,1.34766
375.34686,1.36272
375.10579,1.36817
374.86472,1.36368
374.62365,1.35724
374.38257,1.35648
374.14150,1.35890
373.90043,1.35902
373.65936,1.35518
373.41829,1.34929
373.17722,1.34257
372.93615,1.33307
372.69508,1.32086
372.45401,1.31129
372.21294,1.30771
371.97187,1.30587
371.73080,1.30045
371.48973,1.29200
371.24866,1.28411
371.00759,1.27806
370.76652,1.27302
370.52545,1.26882
370.28437,1.26583
370.04330,1.26352
369.80223,1.26057
369.56116,1.25680
369.32009,1.25351
369.07902,1.25046
368.83795,1.24492
368.59688,1.23571
368.35581,1.22543
368.11474,1.21766
367.87367,1.21348
367.63260,1.21087
367.39153,1.20811
367.15046,1.20619
366.90939,1.20640
366.66832,1.20796
366.42725,1.20907
366.18618,1.20782
365.94510,1.20207
365.70403,1.19173
365.46296,1.18097
365.22189,1.17427
364.98082,1.17203
364.73975,1.17234
364.49868,1.17378
364.25761,1.17590
364.01654,1.17864
363.77547,1.18066
363.53440,1.17850
363.29333,1.17088
363.05226,1.16285
362.81119,1.16070
362.57012,1.16400
362.32905,1.16678
362.08798,1.16584
361.84691,1.16390
361.60583,1.16418
361.36476,1.16674
361.12369,1.16934
360.88262,1.16988
360.64155,1.16876
360.40048,1.16850
360.15941,1.17033
359.91834,1.17218
359.67727,1.17130
359.43620,1.16811
359.19513,1.16542
358.95406,1.16454
358.71299,1.16375
358.47192,1.16020
358.23085,1.15263
357.98978,1.14340
357.74871,1.13805
357.50764,1.14129
357.26656,1.15157
357.02549,1.16093
356.78442,1.16236
356.54335,1.15668
356.30228,1.14993
356.06121,1.14681
355.82014,1.14836
355.57907,1.15234
355.33800,1.15495
355.09693,1.15419
354.85586,1.15144
354.61479,1.14890
354.37372,1.14679
354.13265,1.14484
353.89158,1.14492
353.65051,1.14960
353.40944,1.15741
353.16837,1.16334
352.92729,1.16521
352.68622,1.16549
352.44515,1.16580
352.20408,1.16456
351.96301,1.16155
351.72194,1.15988
351.48087,1.16111
351.23980,1.16268
350.99873,1.16241
350.75766,1.16292
350.51659,1.16814
350.27552,1.17628
350.03445,1.18018
349.79338,1.17655
349.55231,1.17065
349.31124,1.16936
349.07017,1.17470
348.82910,1.18524
348.58802,1.19795
348.34695,1.20688
348.10588,1.20737
347.86481,1.20272
347.62374,1.19951
347.38267,1.19750
347.14160,1.19269
346.90053,1.18694
346.65946,1.18581
346.41839,1.19053
346.17732,1.19787
345.93625,1.20510
345.69518,1.21090
345.45411,1.21343
345.21304,1.21222
344.97197,1.21088
344.73090,1.21399
344.48983,1.22151
344.24875,1.22737
344.00768,1.22575
343.76661,1.22007
343.52554,1.22070
343.28447,1.23247
343.04340,1.25001
342.80233,1.26542
342.56126,1.27645
342.32019,1.28416
342.07912,1.28761
341.83805,1.28511
341.59698,1.27782
341.35591,1.26977
341.11484,1.26565
340.87377,1.26860
340.63270,1.27843
340.39163,1.29187
340.15056,1.30469
339.90948,1.31328
339.66841,1.31661
339.42734,1.31726
339.18627,1.32053
338.94520,1.32834
338.70413,1.33640
338.46306,1.34215
338.22199,1.34828
337.98092,1.35451
337.73985,1.35498
337.49878,1.34833
337.25771,1.34143
337.01664,1.33918
336.77557,1.33916
336.53450,1.33895
336.29343,1.34094
336.05236,1.34785
335.81129,1.35616
335.57021,1.35746
335.32914,1.35002
335.08807,1.34071
334.84700,1.33289
334.60593,1.32454
334.36486,1.31682
334.12379,1.31354
333.88272,1.31427
333.64165,1.31497
333.40058,1.31301
333.15951,1.30958
332.91844,1.30871
332.67737,1.30923
332.43630,1.30115
332.19523,1.28044
331.95416,1.25963
331.71309,1.25336
331.47202,1.26340
331.23094,1.27982
330.98987,1.28992
330.74880,1.28802
330.50773,1.27958
330.26666,1.27222
330.02559,1.26593
329.78452,1.25759
329.54345,1.24843
329.30238,1.23990
329.06131,1.22966
328.82024,1.21825
328.57917,1.21187
328.33810,1.21458
328.09703,1.22329
327.85596,1.23072
327.61489,1.23032
327.37382,1.22015
327.13275,1.20696
326.89167,1.20201
326.65060,1.20918
326.40953,1.21971
326.16846,1.22345
325.92739,1.22292
325.68632,1.22656
325.44525,1.23433
325.20418,1.23703
324.96311,1.22988
324.72204,1.22223
324.48097,1.22576
324.23990,1.23838
323.99883,1.24690
323.75776,1.24445
323.51669,1.23888
323.27562,1.24106
323.03455,1.25335
322.79348,1.27115
322.55240,1.28675
322.31133,1.29077
322.07026,1.28029
321.82919,1.26488
321.58812,1.25374
321.34705,1.24670
321.10598,1.24228
320.86491,1.24521
320.62384,1.25809
320.38277,1.27050
320.14170,1.26767
319.90063,1.25010
319.65956,1.23388
319.41849,1.23200
319.17742,1.24507
318.93635,1.26347
318.69528,1.27543
318.45421,1.27797
318.21313,1.27742
317.97206,1.27713
317.73099,1.27274
317.48992,1.26364
317.24885,1.25775
317.00778,1.25856
316.76671,1.26137
316.52564,1.26475
316.28457,1.27025
316.04350,1.27204
315.80243,1.26537
315.56136,1.25980
315.32029,1.26495
315.07922,1.27302
314.83815,1.27033
314.59708,1.26178
314.35601,1.26450
314.11494,1.28001
313.87386,1.29216
313.63279,1.29088
313.39172,1.28394
313.15065,1.28381
312.90958,1.29337
312.66851,1.30592
312.42744,1.31260
312.18637,1.31192
311.94530,1.31214
311.70423,1.31842
311.46316,1.32547
311.22209,1.32801
310.98102,1.32798
310.73995,1.32801
310.49888,1.32826
310.25781,1.32935
310.01674,1.33265
309.77567,1.34058
309.53459,1.35726
309.29352,1.38186
309.05245,1.40119
308.81138,1.40041
308.57031,1.38386
308.32924,1.36842
308.08817,1.36261
307.84710,1.36392
307.60603,1.36695
307.36496,1.37129
307.12389,1.38025
306.88282,1.39323
306.64175,1.40460
306.40068,1.40776
306.15961,1.39985
305.91854,1.38565
305.67747,1.37300
305.43640,1.36509
305.19532,1.35993
304.95425,1.35556
304.71318,1.35225
304.47211,1.34796
304.23104,1.33746
303.98997,1.32033
303.74890,1.30447
303.50783,1.29706
303.26676,1.29644
303.02569,1.29655
302.78462,1.29454
302.54355,1.29006
302.30248,1.28227
302.06141,1.27260
301.82034,1.26517
301.57927,1.26263
301.33820,1.26470
301.09713,1.26807
300.85605,1.26622
300.61498,1.25545
300.37391,1.24121
300.13284,1.23177
299.89177,1.22886
299.65070,1.22835
299.40963,1.22660
299.16856,1.22276
298.92749,1.21623
298.68642,1.20777
298.44535,1.20166
298.20428,1.20043
297.96321,1.19925
297.72214,1.19160
297.48107,1.17933
297.24000,1.17053
296.99893,1.16912
296.75786,1.17081
296.51678,1.16866
296.27571,1.16092
296.03464,1.15195
295.79357,1.14734
295.55250,1.14909
295.31143,1.15410
295.07036,1.15701
294.82929,1.15498
294.58822,1.14968
294.34715,1.14443
294.10608,1.14009
293.86501,1.13442
293.62394,1.12587
293.38287,1.11759
293.14180,1.11477
292.90073,1.11747
292.65966,1.11992
292.41859,1.11831
292.17751,1.11464
291.93644,1.11103
291.69537,1.10658
291.45430,1.10177
291.21323,1.10001
290.97216,1.10200
290.73109,1.10374
290.49002,1.10235
290.24895,1.09991
290.00788,1.09873
289.76681,1.09769
289.52574,1.09520
289.28467,1.09163
289.04360,1.08724
288.80253,1.08142
288.56146,1.07526
288.32039,1.07175
288.07932,1.07213
287.83824,1.07395
287.59717,1.07372
287.35610,1.07053
287.11503,1.06603
286.87396,1.06254
286.63289,1.06200
286.39182,1.06452
286.15075,1.06695
285.90968,1.06545
285.66861,1.06043
285.42754,1.05638
285.18647,1.05671
284.94540,1.06061
284.70433,1.06465
284.46326,1.06635
284.22219,1.06600
283.98112,1.06562
283.74005,1.06615
283.49897,1.06614
283.25790,1.06393
283.01683,1.05994
282.77576,1.05588
282.53469,1.05260
282.29362,1.05013
282.05255,1.04941
281.81148,1.05185
281.57041,1.05681
281.32934,1.06160
281.08827,1.06438
280.84720,1.06480
280.60613,1.06225
280.36506,1.05728
280.12399,1.05338
279.88292,1.05311
279.64185,1.05407
279.40078,1.05246
279.15970,1.04925
278.91863,1.04888
278.67756,1.05287
278.43649,1.05768
278.19542,1.05899
277.95435,1.05633
277.71328,1.05257
277.47221,1.05020
277.23114,1.04961
276.99007,1.05035
276.74900,1.05263
276.50793,1.05658
276.26686,1.06149
276.02579,1.06694
275.78472,1.07370
275.54365,1.08209
275.30258,1.08996
275.06151,1.09357
274.82043,1.09099
274.57936,1.08440
274.33829,1.07886
274.09722,1.07796
273.85615,1.08110
273.61508,1.08578
273.37401,1.09113
273.13294,1.09686
272.89187,1.10042
272.65080,1.09926
272.40973,1.09547
272.16866,1.09432
271.92759,1.09821
271.68652,1.10476
271.44545,1.10984
271.20438,1.11100
270.96331,1.10937
270.72224,1.10879
270.48116,1.11228
270.24009,1.11928
269.99902,1.12694
269.75795,1.13360
269.51688,1.13896
269.27581,1.14210
269.03474,1.14249
268.79367,1.14286
268.55260,1.14692
268.31153,1.15435
268.07046,1.16143
267.82939,1.16652
267.58832,1.17147
267.34725,1.17802
267.10618,1.18571
266.86511,1.19302
266.62404,1.19908
266.38297,1.20394
266.14189,1.20788
265.90082,1.21093
265.65975,1.21401
265.41868,1.22003
265.17761,1.23114
264.93654,1.24573
264.69547,1.26044
264.45440,1.27421
264.21333,1.28910
263.97226,1.30788
263.73119,1.33092
263.49012,1.35570
263.24905,1.37819
263.00798,1.39490
262.76691,1.40566
262.52584,1.41379
262.28477,1.42396
262.04370,1.44055
261.80262,1.46558
261.56155,1.49548
261.32048,1.52073
261.07941,1.53421
260.83834,1.53758
260.59727,1.53891
260.35620,1.54835
260.11513,1.57179
259.87406,1.60756
259.63299,1.65082
259.39192,1.69797
259.15085,1.74572
258.90978,1.78949
258.66871,1.82052
258.42764,1.82714
258.18657,1.81005
257.94550,1.78430
257.70443,1.76454
257.46335,1.75700
257.22228,1.75486
256.98121,1.74219
256.74014,1.71440
256.49907,1.68557
256.25800,1.66849
256.01693,1.66171
255.77586,1.65696
255.53479,1.64939
255.29372,1.63693
255.05265,1.61614
254.81158,1.58724
254.57051,1.55958
254.32944,1.54288
254.08837,1.53670
253.84730,1.53334
253.60623,1.52899
253.36516,1.52678
253.12408,1.52852
252.88301,1.52991
252.64194,1.52674
252.40087,1.52149
252.15980,1.51853
251.91873,1.51731
251.67766,1.51316
251.43659,1.50443
251.19552,1.49593
250.95445,1.49364
250.71338,1.49865
250.47231,1.50642
250.23124,1.51344
249.99017,1.51949
249.74910,1.52254
249.50803,1.51964
249.26696,1.51387
249.02589,1.51271
248.78481,1.51594
248.54374,1.51370
248.30267,1.50059
248.06160,1.48392
247.82053,1.47376
247.57946,1.47326
247.33839,1.48097
247.09732,1.49260
246.85625,1.49964
246.61518,1.49798
246.37411,1.49679
246.13304,1.50698
245.89197,1.52564
245.65090,1.54077
245.40983,1.54646
245.16876,1.54726
244.92769,1.55320
244.68661,1.57534
244.44554,1.61903
244.20447,1.67617
243.96340,1.72972
243.72233,1.77307
243.48126,1.81674
243.24019,1.86698
242.99912,1.90806
242.75805,1.92699
242.51698,1.92639
242.27591,1.85503
242.03484,1.73943
241.79377,1.63623
241.55270,1.54571
241.31163,1.46505
241.07056,1.39315
240.82949,1.32748
240.58842,1.26845
240.34734,1.21920
240.10627,1.18013
239.86520,1.14725
239.62413,1.11621
239.38306,1.08561
239.14199,1.05629
238.90092,1.02917
238.65985,1.00380
238.41878,0.97908
238.17771,0.95544
237.93664,0.93504
237.69557,0.91866
237.45450,0.90437
237.21343,0.89027
236.97236,0.87715
236.73129,0.86693
236.49022,0.85922
236.24915,0.85104
236.00807,0.84032
235.76700,0.82883
235.52593,0.81982
235.28486,0.81409
235.04379,0.80978
234.80272,0.80484
234.56165,0.79844
234.32058,0.79100
234.07951,0.78439
233.83844,0.78102
233.59737,0.78109
233.35630,0.78179
233.11523,0.78027
232.87416,0.77665
232.63309,0.77299
232.39202,0.77055
232.15095,0.76944
231.90988,0.76967
231.66880,0.77114
231.42773,0.77317
231.18666,0.77474
230.94559,0.77514
230.70452,0.77396
230.46345,0.77111
230.22238,0.76741
229.98131,0.76435
229.74024,0.76274
229.49917,0.76137
229.25810,0.75844
229.01703,0.75433
228.77596,0.75120
228.53489,0.75001
228.29382,0.75022
228.05275,0.75175
227.81168,0.75456
227.57061,0.75732
227.32953,0.75877
227.08846,0.75899
226.84739,0.75842
226.60632,0.75720
226.36525,0.75577
226.12418,0.75514
225.88311,0.75638
225.64204,0.75959
225.40097,0.76314
225.15990,0.76501
224.91883,0.76515
224.67776,0.76538
224.43669,0.76700
224.19562,0.76951
223.95455,0.77210
223.71348,0.77549
223.47241,0.78077
223.23134,0.78698
222.99026,0.79206
222.74919,0.79597
222.50812,0.80066
222.26705,0.80734
222.02598,0.81516
221.78491,0.82232
221.54384,0.82778
221.30277,0.83235
221.06170,0.83751
220.82063,0.84332
220.57956,0.84883
220.33849,0.85431
220.09742,0.86127
219.85635,0.87094
219.61528,0.88357
219.37421,0.89825
219.13314,0.91322
218.89207,0.92757
218.65099,0.94194
218.40992,0.95667
218.16885,0.97100
217.92778,0.98413
217.68671,0.99589
217.44564,1.00666
217.20457,1.01760
216.96350,1.03009
216.72243,1.04496
216.48136,1.06259
216.24029,1.08239
215.99922,1.10159
215.75815,1.11681
215.51708,1.12763
215.27601,1.13757
215.03494,1.15068
214.79387,1.16840
214.55280,1.18975
214.31172,1.21130
214.07065,1.22954
213.82958,1.24518
213.58851,1.26020
213.34744,1.27152
213.10637,1.27487
212.86530,1.27395
212.62423,1.27759
212.38316,1.28948
212.14209,1.30683
211.90102,1.32572
211.65995,1.34248
211.41888,1.35333
211.17781,1.35709
210.93674,1.35674
210.69567,1.35588
210.45460,1.35452
210.21353,1.35052
209.97245,1.34466
209.73138,1.34056
209.49031,1.34000
209.24924,1.34144
209.00817,1.34143
208.76710,1.33620
208.52603,1.32579
208.28496,1.31565
208.04389,1.30984
207.80282,1.30634
207.56175,1.30050
207.32068,1.29031
207.07961,1.27664
206.83854,1.26036
206.59747,1.24163
206.35640,1.22236
206.11533,1.20640
205.87426,1.19518
205.63318,1.18558
205.39211,1.17265
205.15104,1.15353
204.90997,1.13011
204.66890,1.10804
204.42783,1.09227
204.18676,1.08435
203.94569,1.08129
203.70462,1.07569
203.46355,1.06080
203.22248,1.03749
202.98141,1.01263
202.74034,0.99168
202.49927,0.97544
202.25820,0.96152
202.01713,0.94645
201.77606,0.92802
201.53499,0.90726
201.29391,0.88749
201.05284,0.87131
200.81177,0.85908
200.57070,0.84888
200.32963,0.83746
200.08856,0.82295
199.84749,0.80719
199.60642,0.79402
199.36535,0.78518
199.12428,0.77829
198.88321,0.76905
198.64214,0.75572
198.40107,0.74088
198.16000,0.72817
197.91893,0.71877
197.67786,0.71115
197.43679,0.70314
197.19572,0.69397
196.95464,0.68418
196.71357,0.67436
196.47250,0.66505
196.23143,0.65682
195.99036,0.64931
195.74929,0.64149
195.50822,0.63313
195.26715,0.62514
195.02608,0.61879
194.78501,0.61455
194.54394,0.61124
194.30287,0.60678
194.06180,0.60055
193.82073,0.59402
193.57966,0.58869
193.33859,0.58450
193.09752,0.58042
192.85645,0.57595
192.61537,0.57164
192.37430,0.56843
192.13323,0.56639
191.89216,0.56431
191.65109,0.56077
191.41002,0.55597
191.16895,0.55182
190.92788,0.54957
190.68681,0.54774
190.44574,0.54420
190.20467,0.53954
189.96360,0.53603
189.72253,0.53411
189.48146,0.53235
189.24039,0.53006
188.99932,0.52807
188.75825,0.52722
188.51718,0.52757
188.27610,0.52842
188.03503,0.52836
187.79396,0.52637
187.55289,0.52346
187.31182,0.52190
187.07075,0.52236
186.82968,0.52321
186.58861,0.52339
186.34754,0.52400
186.10647,0.52595
185.86540,0.52772
185.62433,0.52738
185.38326,0.52573
185.14219,0.52504
184.90112,0.52549
184.66005,0.52535
184.41898,0.52459
184.17791,0.52510
183.93683,0.52731
183.69576,0.52989
183.45469,0.53228
183.21362,0.53471
182.97255,0.53675
182.73148,0.53831
182.49041,0.54056
182.24934,0.54415
182.00827,0.54797
181.76720,0.55062
181.52613,0.55171
181.28506,0.55143
181.04399,0.55033
180.80292,0.54973
180.56185,0.55103
180.32078,0.55447
180.07971,0.55935
179.83864,0.56508
179.59756,0.57099
179.35649,0.57613
179.11542,0.58090
178.87435,0.58714
178.63328,0.59533
178.39221,0.60378
178.15114,0.61193
177.91007,0.62152
177.66900,0.63363
177.42793,0.64756
177.18686,0.66249
176.94579,0.67805
176.70472,0.69353
176.46365,0.70855
176.22258,0.72415
175.98151,0.74199
175.74044,0.76268
175.49937,0.78549
175.25829,0.80927
175.01722,0.83324
174.77615,0.85678
174.53508,0.87966
174.29401,0.90248
174.05294,0.92589
173.81187,0.94949
173.57080,0.97238
173.32973,0.99382
173.08866,1.01233
172.84759,1.02666
172.60652,1.03845
172.36545,1.05035
172.12438,1.06078
171.88331,1.06430
171.64224,1.05835
171.40117,1.04675
171.16010,1.03619
170.91902,1.03094
170.67795,1.02994
170.43688,1.02787
170.19581,1.02099
169.95474,1.01152
169.71367,1.00375
169.47260,0.99834
169.23153,0.99267
168.99046,0.98411
168.74939,0.97225
168.50832,0.96019
168.26725,0.95252
168.02618,0.95016
167.78511,0.94955
167.54404,0.94819
167.30297,0.94727
167.06190,0.94768
166.82083,0.94847
166.57975,0.95007
166.33868,0.95429
166.09761,0.96062
165.85654,0.96606
165.61547,0.96924
165.37440,0.97250
165.13333,0.97931
164.89226,0.99080
164.65119,1.00568
164.41012,1.02283
164.16905,1.04232
163.92798,1.06327
163.68691,1.08325
163.44584,1.10125
163.20477,1.11857
162.96370,1.13530
162.72263,1.14826
162.48156,1.15481
162.24048,1.15736
161.99941,1.16174
161.75834,1.17125
161.51727,1.18352
161.27620,1.19267
161.03513,1.19410
160.79406,1.18728
160.55299,1.17544
160.31192,1.16352
160.07085,1.15471
159.82978,1.14805
159.58871,1.14192
159.34764,1.13811
159.10657,1.13729
158.86550,1.13432
158.62443,1.12519
158.38336,1.11435
158.14229,1.10798
157.90121,1.10533
157.66014,1.10165
157.41907,1.09503
157.17800,1.08716
156.93693,1.08010
156.69586,1.07386
156.45479,1.06623
156.21372,1.05561
155.97265,1.04307
155.73158,1.03076
155.49051,1.02036
155.24944,1.01226
155.00837,1.00453
154.76730,0.99357
154.52623,0.97729
154.28516,0.95750
154.04409,0.93817
153.80302,0.92179
153.56194,0.90697
153.32087,0.88985
153.07980,0.86793
152.83873,0.84239
152.59766,0.81672
152.35659,0.79383
152.11552,0.77464
151.87445,0.75820
151.63338,0.74230
151.39231,0.72482
151.15124,0.70571
150.91017,0.68699
150.66910,0.66999
150.42803,0.65410
150.18696,0.63854
149.94589,0.62347
149.70482,0.60919
149.46375,0.59603
149.22267,0.58477
148.98160,0.57593
148.74053,0.56896
148.49946,0.56266
148.25839,0.55629
148.01732,0.54997
147.77625,0.54432
147.53518,0.54007
147.29411,0.53755
147.05304,0.53623
146.81197,0.53535
146.57090,0.53523
146.32983,0.53734
146.08876,0.54249
145.84769,0.54937
145.60662,0.55550
145.36555,0.55942
145.12448,0.56188
144.88340,0.56532
144.64233,0.57183
144.40126,0.58066
144.16019,0.58849
143.91912,0.59275
143.67805,0.59362
143.43698,0.59210
143.19591,0.58800
142.95484,0.58083
142.71377,0.57137
142.47270,0.56108
142.23163,0.55069
141.99056,0.54035
141.74949,0.53072
141.50842,0.52275
141.26735,0.51662
141.02628,0.51144
140.78521,0.50613
140.54413,0.50072
140.30306,0.49690
140.06199,0.49634
139.82092,0.49848
139.57985,0.50103
139.33878,0.50324
139.09771,0.50713
138.85664,0.51480
138.61557,0.52590
138.37450,0.53848
138.13343,0.55105
137.89236,0.56330
137.65129,0.57594
137.41022,0.59033
137.16915,0.60777
136.92808,0.62854
136.68701,0.65141
136.44594,0.67445
136.20486,0.69690
135.96379,0.72011
135.72272,0.74655
135.48165,0.77832
135.24058,0.81568
134.99951,0.85617
134.75844,0.89654
134.51737,0.93578
134.27630,0.97403
134.03523,1.00994
133.79416,1.04318
133.55309,1.07620
133.31202,1.10966
133.07095,1.14100
132.82988,1.17055
132.58881,1.20050
132.34774,1.22639
132.10667,1.23885
131.86559,1.23483
131.62452,1.21962
131.38345,1.19887
131.14238,1.17401
130.90131,1.14433
130.66024,1.11099
130.41917,1.07667
130.17810,1.04042
129.93703,0.99874
129.69596,0.95258
129.45489,0.90669
129.21382,0.86367
128.97275,0.82296
128.73168,0.78443
128.49061,0.74957
128.24954,0.71915
128.00847,0.69171
127.76740,0.66552
127.52632,0.64023
127.28525,0.61633
127.04418,0.59406
126.80311,0.57337
126.56204,0.55392
126.32097,0.53510
126.07990,0.51681
125.83883,0.49980
125.59776,0.48493
125.35669,0.47216
125.11562,0.46039
124.87455,0.44866
124.63348,0.43748
124.39241,0.42822
124.15134,0.42136
123.91027,0.41609
123.66920,0.41164
123.42812,0.40795
123.18705,0.40525
122.94598,0.40364
122.70491,0.40309
122.46384,0.40366
122.22277,0.40539
121.98170,0.40790
121.74063,0.41066
121.49956,0.41380
121.25849,0.41793
121.01742,0.42331
120.77635,0.42997
120.53528,0.43844
120.29421,0.44978
120.05314,0.46474
119.81207,0.48318
119.57100,0.50389
119.32993,0.52552
119.08885,0.54796
118.84778,0.57291
118.60671,0.60231
118.36564,0.63600
118.12457,0.67140
117.88350,0.70589
117.64243,0.73843
117.40136,0.76769
117.16029,0.79077
116.91922,0.80498
116.67815,0.80941
116.43708,0.80472
116.19601,0.79301
115.95494,0.77732
115.71387,0.75963
115.47280,0.74025
115.23173,0.71962
114.99066,0.69945
114.74958,0.68181
114.50851,0.66793
114.26744,0.65866
114.02637,0.65476
113.78530,0.65579
113.54423,0.65954
113.30316,0.66379
113.06209,0.66770
112.82102,0.67126
112.57995,0.67453
112.33888,0.67742
112.09781,0.67992
111.85674,0.68354
111.61567,0.69120
111.37460,0.70412
111.13353,0.71951
110.89246,0.73304
110.65139,0.74237
110.41031,0.74702
110.16924,0.74638
109.92817,0.73895
109.68710,0.72317
109.44603,0.69967
109.20496,0.67171
108.96389,0.64350
108.72282,0.61810
108.48175,0.59575
108.24068,0.57475
107.99961,0.55421
107.75854,0.53460
107.51747,0.51580
107.27640,0.49660
107.03533,0.47653
106.79426,0.45671
106.55319,0.43842
106.31212,0.42203
106.07104,0.40787
105.82997,0.39676
105.58890,0.38857
105.34783,0.38134
105.10676,0.37280
104.86569,0.36214
104.62462,0.35008
104.38355,0.33856
104.14248,0.32996
103.90141,0.32521
103.66034,0.32268
103.41927,0.31939
103.17820,0.31313
102.93713,0.30376
102.69606,0.29318
102.45499,0.28430
102.21392,0.27957
101.97285,0.27900
101.73177,0.27937
101.49070,0.27658
101.24963,0.26973
101.00856,0.26204
100.76749,0.25724
100.52642,0.25617
100.28535,0.25651
100.04428,0.25517
99.80321,0.25129
99.56214,0.24670
99.32107,0.24345
99.08000,0.24206
98.83893,0.24194
98.59786,0.24187
98.35679,0.24020
98.11572,0.23639
97.87465,0.23308
97.63358,0.23421
97.39250,0.24049
97.15143,0.24804
96.91036,0.25252
96.66929,0.25408
96.42822,0.25671
96.18715,0.26348
95.94608,0.27339
95.70501,0.28238
95.46394,0.28830
95.22287,0.29403
94.98180,0.30361
94.74073,0.31615
94.49966,0.32543
94.25859,0.32709
94.01752,0.32490
93.77645,0.32558
93.53538,0.32908
93.29431,0.32911
93.05323,0.32456
92.81216,0.32294
92.57109,0.32846
92.33002,0.33510
92.08895,0.33574
91.84788,0.33375
91.60681,0.33642
91.36574,0.34421
91.12467,0.35397
90.88360,0.36772
90.64253,0.39105
90.40146,0.42510
90.16039,0.46693
89.91932,0.51517
89.67825,0.56850
89.43718,0.62257
89.19611,0.67335
88.95504,0.71610
88.71396,0.74147
88.47289,0.74374
88.23182,0.72549
87.99075,0.68878
87.74968,0.63709
87.50861,0.58091
87.26754,0.52937
87.02647,0.48409
86.78540,0.44445
86.54433,0.41112
86.30326,0.38346
86.06219,0.35881
85.82112,0.33499
85.58005,0.31187
85.33898,0.29061
85.09791,0.27196
84.85684,0.25538
84.61577,0.24051
84.37469,0.22815
84.13362,0.21855
83.89255,0.21035
83.65148,0.20242
83.41041,0.19513
83.16934,0.18895
82.92827,0.18369
82.68720,0.17941
82.44613,0.17654
82.20506,0.17501
81.96399,0.17420
81.72292,0.17326
81.48185,0.17129
81.24078,0.16817
80.99971,0.16486
80.75864,0.16226
80.51757,0.16044
80.27650,0.15955
80.03542,0.15987
79.79435,0.16080
79.55328,0.16104
79.31221,0.16011
79.07114,0.15868
78.83007,0.15762
78.58900,0.15738
78.34793,0.15746
78.10686,0.15646
77.86579,0.15363
77.62472,0.14970
77.38365,0.14584
77.14258,0.14276
76.90151,0.14103
76.66044,0.14095
76.41937,0.14174
76.17830,0.14218
75.93723,0.14177
75.69615,0.14101
75.45508,0.14073
75.21401,0.14141
74.97294,0.14265
74.73187,0.14377
74.49080,0.14470
74.24973,0.14635
74.00866,0.14975
73.76759,0.15454
73.52652,0.15808
73.28545,0.15723
73.04438,0.15192
72.80331,0.14566
72.56224,0.14216
72.32117,0.14267
72.08010,0.14644
71.83903,0.15195
71.59796,0.15719
71.35688,0.15983
71.11581,0.15872
70.87474,0.15579
70.63367,0.15519
70.39260,0.16011
70.15153,0.17115
69.91046,0.18732
69.66939,0.20704
69.42832,0.22735
69.18725,0.24270
68.94618,0.24747
68.70511,0.24054
68.46404,0.22572
68.22297,0.20769
67.98190,0.18931
67.74083,0.17191
67.49976,0.15652
67.25869,0.14450
67.01761,0.13677
66.77654,0.13268
66.53547,0.13056
66.29440,0.12964
66.05333,0.13040
65.81226,0.13336
65.57119,0.13864
65.33012,0.14614
65.08905,0.15549
64.84798,0.16608
64.60691,0.17737
64.36584,0.18871
64.12477,0.19848
63.88370,0.20400
63.64263,0.20328
63.40156,0.19640
63.16049,0.18481
62.91942,0.17010
62.67834,0.15457
62.43727,0.14131
62.19620,0.13276
61.95513,0.12891
61.71406,0.12744
61.47299,0.12575
61.23192,0.12281
60.99085,0.11924
60.74978,0.11639
60.50871,0.11593
60.26764,0.11933
60.02657,0.12665
59.78550,0.13593
59.54443,0.14415
59.30336,0.14886
59.06229,0.14939
58.82122,0.14655
58.58015,0.14156
58.33907,0.13559
58.09800,0.13009
57.85693,0.12599
57.61586,0.12270
57.37479,0.11874
57.13372,0.11410
56.89265,0.11109
56.65158,0.11252
56.41051,0.11945
56.16944,0.13121
55.92837,0.14611
55.68730,0.16078
55.44623,0.16966
55.20516,0.16779
54.96409,0.15507
54.72302,0.13729
54.48195,0.12230
54.24088,0.11558
53.99980,0.11872
53.75873,0.13095
53.51766,0.15060
53.27659,0.17348
53.03552,0.18946
52.79445,0.18618
52.55338,0.16447
52.31231,0.13942
52.07124,0.12498
51.83017,0.12802
51.58910,0.14772
51.34803,0.17292
51.10696,0.18193
50.86589,0.16144
50.62482,0.12816
50.38375,0.10684
50.14268,0.10960
49.90161,0.13636
49.66053,0.17014
49.41946,0.17644
49.17839,0.14815
48.93732,0.11862
48.69625,0.11330
48.45518,0.13675
48.21411,0.16783
47.97304,0.16599
47.73197,0.13256
47.49090,0.11078
47.24983,0.12237
47.00876,0.14723
46.76769,0.14193
46.52662,0.11487
46.28555,0.10804
46.04448,0.12680
45.80341,0.13750
45.56234,0.12226
45.32126,0.11139
45.08019,0.11992
44.83912,0.12778
44.59805,0.12240
44.35698,0.11950
44.11591,0.12666
43.87484,0.13554
43.63377,0.14422
43.39270,0.15458
43.15163,0.16327
42.91056,0.16955
42.66949,0.17392
42.42842,0.17288
42.18735,0.16736
41.94628,0.16223
41.70521,0.15614
41.46414,0.14822
41.22307,0.14523
40.98199,0.15147
40.74092,0.16270
40.49985,0.17172
40.25878,0.17586
40.01771,0.17773
39.77664,0.17941
39.53557,0.18005
39.29450,0.18041
39.05343,0.18388
38.81236,0.19047
38.57129,0.19678
38.33022,0.20206
38.08915,0.20941
37.84808,0.21921
37.60701,0.22593
37.36594,0.22412
37.12487,0.21463
36.88380,0.20303
36.64272,0.19643
36.40165,0.20036
36.16058,0.21231
35.91951,0.21975
35.67844,0.21023
35.43737,0.18314
35.19630,0.15014
34.95523,0.12847
34.71416,0.12789
34.47309,0.14062
34.23202,0.15000
33.99095,0.14826
33.74988,0.14037
33.50881,0.13439
33.26774,0.13510
33.02667,0.14088
32.78560,0.14625
32.54453,0.14880
32.30345,0.14680
32.06238,0.13528
31.82131,0.11246
31.58024,0.08532
31.33917,0.06454
31.09810,0.05506
30.85703,0.05075
30.61596,0.03980
30.37489,0.01818
30.13382,-0.00373
29.89275,-0.01261
29.65168,-0.01104
29.41061,-0.01700
29.16954,-0.03897
28.92847,-0.06412
28.68740,-0.07969
28.44633,-0.09252
28.20526,-0.11290
27.96418,-0.13189
27.72311,-0.13376
27.48204,-0.12095
27.24097,-0.11315
26.99990,-0.12319
26.75883,-0.14213
26.51776,-0.15512
26.27669,-0.16045
26.03562,-0.16413
25.79455,-0.16907
25.55348,-0.17572
25.31241,-0.18380
25.07134,-0.19482
24.83027,-0.21362
24.58920,-0.23984
24.34813,-0.26302
24.10706,-0.27306
23.86599,-0.26934
23.62491,-0.26065
23.38384,-0.26225
23.14277,-0.28696
22.90170,-0.33093
22.66063,-0.37208
22.41956,-0.38934
22.17849,-0.38236
21.93742,-0.36684
21.69635,-0.35548
21.45528,-0.35444
21.21421,-0.36841
20.97314,-0.39727
20.73207,-0.42734
20.49100,-0.43671
20.24993,-0.42825
20.00886,-0.42887
19.76779,-0.44843
19.52672,-0.46973
19.28564,-0.47428
19.04457,-0.46069
18.80350,-0.44432
18.56243,-0.44145
18.32136,-0.45667
18.08029,-0.49188
17.83922,-0.54177
17.59815,-0.58606
17.35708,-0.60739
17.11601,-0.60402
16.87494,-0.58070
16.63387,-0.54089
16.39280,-0.49935
16.15173,-0.47934
15.91066,-0.48582
15.66959,-0.50816
15.42852,-0.54120
15.18745,-0.56572
14.94637,-0.55182
14.70530,-0.52837
14.46423,-0.52845
14.22316,-0.56133
13.98209,-0.59990
13.74102,-0.60670
13.49995,-0.57601
13.25888,-0.55150
13.01781,-0.55208
12.77674,-0.54823
12.53567,-0.55233
12.29460,-0.55711
12.05353,-0.54937
11.81246,-0.55458
11.57139,-0.57572
11.33032,-0.57761
11.08925,-0.56173
10.84818,-0.55432
10.60710,-0.56019
10.36603,-0.56116
10.12496,-0.54041
9.88389,-0.52137
9.64282,-0.52808
9.40175,-0.54535
9.16068,-0.55114
8.91961,-0.54577
8.67854,-0.52466
8.43747,-0.49910
8.19640,-0.50089
7.95533,-0.52257
7.71426,-0.54011
7.47319,-0.53700
7.23212,-0.51087
6.99105,-0.49322
6.74998,-0.49698
6.50891,-0.50983
6.26783,-0.52659
6.02676,-0.54756
5.78569,-0.55430
5.54462,-0.55469
5.30355,-0.56114
5.06248,-0.57078
4.82141,-0.56281
4.58034,-0.54980
4.33927,-0.53748
4.09820,-0.51776
3.85713,-0.50045
3.61606,-0.50341
3.37499,-0.51902
3.13392,-0.51222
2.89285,-0.49942
2.65178,-0.49823
2.41071,-0.50099
2.16964,-0.49745
1.92856,-0.48793
1.68749,-0.47460
1.44642,-0.46122
1.20535,-0.45005
0.96428,-0.44512
0.72321,-0.43918
0.48214,-0.43175
0.24107,-0.39047
-0.00000,-0.07896
