399.69498,1.43493
399.45391,1.42968
399.21284,1.42525
398.97177,1.42552
398.73070,1.42854
398.48963,1.43085
398.24856,1.43481
398.00749,1.44487
397.76642,1.45767
397.52535,1.46231
397.28428,1.45484
397.04321,1.44435
396.80214,1.44061
396.56107,1.44262
396.32000,1.44125
396.07892,1.43362
395.83785,1.42992
395.59678,1.43983
395.35571,1.45856
395.11464,1.47344
394.87357,1.48099
394.63250,1.48729
394.39143,1.49477
394.15036,1.49770
393.90929,1.49168
393.66822,1.47997
393.42715,1.46915
393.18608,1.46472
392.94501,1.46865
392.70394,1.47841
392.46287,1.48932
392.22180,1.49728
391.98073,1.49775
391.73965,1.48961
391.49858,1.48088
391.25751,1.48100
391.01644,1.49166
390.77537,1.50638
390.53430,1.51497
390.29323,1.51052
390.05216,1.49500
389.81109,1.47778
389.57002,1.46636
389.32895,1.45893
389.08788,1.44929
388.84681,1.43777
388.60574,1.43026
388.36467,1.42798
388.12360,1.42592
387.88253,1.42287
387.64146,1.42180
387.40038,1.42382
387.15931,1.42969
386.91824,1.43613
386.67717,1.43426
386.43610,1.42165
386.19503,1.40558
385.95396,1.39124
385.71289,1.37589
385.47182,1.35908
385.23075,1.34785
384.98968,1.34478
384.74861,1.34475
384.50754,1.34343
384.26647,1.33923
384.02540,1.33614
383.78433,1.34233
383.54326,1.35773
383.30219,1.36491
383.06111,1.34526
382.82004,1.30756
382.57897,1.27727
382.33790,1.26418
382.09683,1.25914
381.85576,1.25355
381.61469,1.24837
381.37362,1.24572
381.13255,1.24283
380.89148,1.23704
380.65041,1.22884
380.40934,1.22216
380.16827,1.22374
379.92720,1.23688
379.68613,1.25561
379.44506,1.26874
379.20399,1.27228
378.96292,1.27227
378.72184,1.27559
378.48077,1.28359
378.23970,1.29223
377.99863,1.29707
377.75756,1.29732
377.51649,1.29790
377.27542,1.30820
377.03435,1.33151
376.79328,1.35840
376.55221,1.37605
376.31114,1.38022
376.07007,1.37802
375.82900,1.37894
375.58793,1.38282
375.34686,1.38265
375.10579,1.37704
374.86472,1.37007
374.62365,1.36436
374.38257,1.36017
374.14150,1.35814
373.90043,1.35946
373.65936,1.36543
373.41829,1.37453
373.17722,1.37803
372.93615,1.36624
372.69508,1.34115
372.45401,1.31456
372.21294,1.29544
371.97187,1.28675
371.73080,1.28821
371.48973,1.29495
371.24866,1.29678
371.00759,1.28543
370.76652,1.26378
370.52545,1.24335
370.28437,1.23359
370.04330,1.23553
369.80223,1.24288
369.56116,1.24825
369.32009,1.24900
369.07902,1.24640
368.83795,1.24158
368.59688,1.23503
368.35581,1.22574
368.11474,1.21164
367.87367,1.19394
367.63260,1.17773
367.39153,1.16722
367.15046,1.16202
366.90939,1.15868
366.66832,1.15515
366.42725,1.15235
366.18618,1.15167
365.94510,1.15244
365.70403,1.15274
365.46296,1.15175
365.22189,1.15066
364.98082,1.15102
364.73975,1.15271
364.49868,1.15359
364.25761,1.15090
364.01654,1.14425
363.77547,1.13679
363.53440,1.13138
363.29333,1.12787
363.05226,1.12545
362.81119,1.12464
362.57012,1.12546
362.32905,1.12626
362.08798,1.12583
361.84691,1.12510
361.60583,1.12554
361.36476,1.12690
361.12369,1.12680
360.88262,1.12236
360.64155,1.11375
360.40048,1.10514
360.15941,1.09988
359.91834,1.09734
359.67727,1.09674
359.43620,1.09916
359.19513,1.10303
358.95406,1.10304
358.71299,1.09739
358.47192,1.09067
358.23085,1.08749
357.98978,1.08767
357.74871,1.08867
357.50764,1.08960
357.26656,1.09168
357.02549,1.09497
356.78442,1.09656
356.54335,1.09388
356.30228,1.08887
356.06121,1.08660
355.82014,1.08926
355.57907,1.09303
355.33800,1.09269
355.09693,1.08860
354.85586,1.08620
354.61479,1.08927
354.37372,1.09623
354.13265,1.10364
353.89158,1.11006
353.65051,1.11412
353.40944,1.11328
353.16837,1.10759
352.92729,1.10152
352.68622,1.09960
352.44515,1.10148
352.20408,1.10356
351.96301,1.10445
351.72194,1.10574
351.48087,1.10791
351.23980,1.10929
350.99873,1.10899
350.75766,1.10780
350.51659,1.10676
350.27552,1.10666
350.03445,1.10814
349.79338,1.11101
349.55231,1.11452
349.31124,1.11878
349.07017,1.12428
348.82910,1.12911
348.58802,1.12975
348.34695,1.12616
348.10588,1.12240
347.86481,1.12123
347.62374,1.12104
347.38267,1.11927
347.14160,1.11723
346.90053,1.11914
346.65946,1.12592
346.41839,1.13316
346.17732,1.13758
345.93625,1.14222
345.69518,1.15159
345.45411,1.16494
345.21304,1.17776
344.97197,1.18633
344.73090,1.18890
344.48983,1.18683
344.24875,1.18517
344.00768,1.18777
343.76661,1.19246
343.52554,1.19433
343.28447,1.19379
343.04340,1.19734
342.80233,1.20908
342.56126,1.22442
342.32019,1.23407
342.07912,1.23451
341.83805,1.23207
341.59698,1.23344
341.35591,1.23719
341.11484,1.23781
340.87377,1.23569
340.63270,1.23817
340.39163,1.24930
340.15056,1.26494
339.90948,1.27960
339.66841,1.29354
339.42734,1.31055
339.18627,1.33082
338.94520,1.34768
338.70413,1.35294
338.46306,1.34673
338.22199,1.33866
337.98092,1.33703
337.73985,1.34089
337.49878,1.34349
337.25771,1.33946
337.01664,1.32991
336.77557,1.32224
336.53450,1.32341
336.29343,1.33406
336.05236,1.34903
335.81129,1.36073
335.57021,1.36288
335.32914,1.35578
335.08807,1.34766
334.84700,1.34632
334.60593,1.35227
334.36486,1.36087
334.12379,1.36449
333.88272,1.35452
333.64165,1.33239
333.40058,1.31224
333.15951,1.30396
332.91844,1.30411
332.67737,1.30352
332.43630,1.29790
332.19523,1.28932
331.95416,1.28043
331.71309,1.27103
331.47202,1.26037
331.23094,1.25123
330.98987,1.24769
330.74880,1.24788
330.50773,1.24542
330.26666,1.23801
330.02559,1.22960
329.78452,1.22475
329.54345,1.22472
329.30238,1.22818
329.06131,1.23203
328.82024,1.23338
328.57917,1.23173
328.33810,1.22846
328.09703,1.22410
327.85596,1.21701
327.61489,1.20766
327.37382,1.20216
327.13275,1.20585
326.89167,1.21571
326.65060,1.22463
326.40953,1.23035
326.16846,1.23505
325.92739,1.23936
325.68632,1.24154
325.44525,1.24231
325.20418,1.24645
324.96311,1.25671
324.72204,1.27004
324.48097,1.27995
324.23990,1.28086
323.99883,1.27149
323.75776,1.25600
323.51669,1.24234
323.27562,1.23807
323.03455,1.24513
322.79348,1.25964
322.55240,1.27544
322.31133,1.28476
322.07026,1.28119
321.82919,1.26748
321.58812,1.25524
321.34705,1.25409
321.10598,1.26262
320.86491,1.27268
320.62384,1.27952
320.38277,1.28134
320.14170,1.27822
319.90063,1.27334
319.65956,1.26847
319.41849,1.26259
319.17742,1.25581
318.93635,1.25160
318.69528,1.25417
318.45421,1.26300
318.21313,1.27280
317.97206,1.27963
317.73099,1.28283
317.48992,1.28282
317.24885,1.28030
317.00778,1.27503
316.76671,1.26623
316.52564,1.25688
316.28457,1.25337
316.04350,1.25963
315.80243,1.27505
315.56136,1.29714
315.32029,1.32095
315.07922,1.33855
314.83815,1.34418
314.59708,1.33815
314.35601,1.32299
314.11494,1.30337
313.87386,1.28859
313.63279,1.28411
313.39172,1.28612
313.15065,1.28875
312.90958,1.28930
312.66851,1.28879
312.42744,1.29263
312.18637,1.30417
311.94530,1.31845
311.70423,1.32683
311.46316,1.32789
311.22209,1.32694
310.98102,1.32835
310.73995,1.33431
310.49888,1.34394
310.25781,1.35042
310.01674,1.34781
309.77567,1.34038
309.53459,1.33714
309.29352,1.34075
309.05245,1.34691
308.81138,1.34951
308.57031,1.34632
308.32924,1.34242
308.08817,1.34341
307.84710,1.35012
307.60603,1.36138
307.36496,1.37543
307.12389,1.38604
306.88282,1.38366
306.64175,1.36682
306.40068,1.34709
306.15961,1.33711
305.91854,1.34047
305.67747,1.35125
305.43640,1.35820
305.19532,1.35489
304.95425,1.34639
304.71318,1.34052
304.47211,1.33850
304.23104,1.34001
303.98997,1.34532
303.74890,1.35016
303.50783,1.34502
303.26676,1.32627
303.02569,1.30408
302.78462,1.29036
302.54355,1.28678
302.30248,1.28737
302.06141,1.28492
301.82034,1.27333
301.57927,1.25211
301.33820,1.23150
301.09713,1.22391
300.85605,1.22960
300.61498,1.23688
300.37391,1.23607
300.13284,1.22798
299.89177,1.21784
299.65070,1.20919
299.40963,1.20407
299.16856,1.20229
298.92749,1.20080
298.68642,1.19636
298.44535,1.18834
298.20428,1.17891
297.96321,1.17052
297.72214,1.16357
297.48107,1.15734
297.24000,1.15248
296.99893,1.14966
296.75786,1.14679
296.51678,1.14142
296.27571,1.13485
296.03464,1.12987
295.79357,1.12610
295.55250,1.12153
295.31143,1.11675
295.07036,1.11354
294.82929,1.11135
294.58822,1.10816
294.34715,1.10344
294.10608,1.09853
293.86501,1.09476
293.62394,1.09194
293.38287,1.08840
293.14180,1.08300
292.90073,1.07681
292.65966,1.07185
292.41859,1.06885
292.17751,1.06683
291.93644,1.06441
291.69537,1.06132
291.45430,1.05845
291.21323,1.05643
290.97216,1.05527
290.73109,1.05501
290.49002,1.05514
290.24895,1.05473
290.00788,1.05418
289.76681,1.05489
289.52574,1.05688
289.28467,1.05798
289.04360,1.05601
288.80253,1.05087
288.56146,1.04478
288.32039,1.04095
288.07932,1.04070
287.83824,1.04173
287.59717,1.04083
287.35610,1.03805
287.11503,1.03552
286.87396,1.03362
286.63289,1.03169
286.39182,1.03017
286.15075,1.02964
285.90968,1.02948
285.66861,1.02896
285.42754,1.02802
285.18647,1.02671
284.94540,1.02559
284.70433,1.02588
284.46326,1.02695
284.22219,1.02579
283.98112,1.02138
283.74005,1.01698
283.49897,1.01580
283.25790,1.01728
283.01683,1.01862
282.77576,1.01833
282.53469,1.01745
282.29362,1.01800
282.05255,1.02041
281.81148,1.02273
281.57041,1.02244
281.32934,1.01915
281.08827,1.01506
280.84720,1.01245
280.60613,1.01166
280.36506,1.01135
280.12399,1.01010
279.88292,1.00784
279.64185,1.00626
279.40078,1.00716
279.15970,1.01001
278.91863,1.01236
278.67756,1.01284
278.43649,1.01238
278.19542,1.01256
277.95435,1.01389
277.71328,1.01547
277.47221,1.01625
277.23114,1.01680
276.99007,1.01910
276.74900,1.02390
276.50793,1.02928
276.26686,1.03323
276.02579,1.03607
275.78472,1.03840
275.54365,1.03885
275.30258,1.03640
275.06151,1.03227
274.82043,1.02843
274.57936,1.02634
274.33829,1.02717
274.09722,1.03107
273.85615,1.03590
273.61508,1.03905
273.37401,1.04030
273.13294,1.04104
272.89187,1.04200
272.65080,1.04380
272.40973,1.04759
272.16866,1.05350
271.92759,1.06023
271.68652,1.06685
271.44545,1.07322
271.20438,1.07828
270.96331,1.08052
270.72224,1.08091
270.48116,1.08244
270.24009,1.08631
269.99902,1.09119
269.75795,1.09592
269.51688,1.09978
269.27581,1.10176
269.03474,1.10215
268.79367,1.10307
268.55260,1.10577
268.31153,1.10873
268.07046,1.11046
267.82939,1.11267
267.58832,1.11869
267.34725,1.12891
267.10618,1.13952
266.86511,1.14698
266.62404,1.15277
266.38297,1.16107
266.14189,1.17253
265.90082,1.18266
265.65975,1.18740
265.41868,1.18934
265.17761,1.19525
264.93654,1.20790
264.69547,1.22357
264.45440,1.23765
264.21333,1.24884
263.97226,1.25741
263.73119,1.26350
263.49012,1.26869
263.24905,1.27650
263.00798,1.29061
262.76691,1.31172
262.52584,1.33574
262.28477,1.35784
262.04370,1.37857
261.80262,1.40272
261.56155,1.43114
261.32048,1.45734
261.07941,1.47498
260.83834,1.48601
260.59727,1.49899
260.35620,1.52324
260.11513,1.56109
259.87406,1.60294
259.63299,1.63689
259.39192,1.66299
259.15085,1.68984
258.90978,1.71861
258.66871,1.74219
258.42764,1.76021
258.18657,1.77754
257.94550,1.79630
257.70443,1.82161
257.46335,1.84811
257.22228,1.85729
256.98121,1.84017
256.74014,1.80711
256.49907,1.77141
256.25800,1.73961
256.01693,1.72052
255.77586,1.71723
255.53479,1.71605
255.29372,1.70155
255.05265,1.67376
254.81158,1.64468
254.57051,1.62322
254.32944,1.61068
254.08837,1.60742
253.84730,1.61225
253.60623,1.61620
253.36516,1.61011
253.12408,1.59669
252.88301,1.58362
252.64194,1.57337
252.40087,1.56607
252.15980,1.56040
251.91873,1.55168
251.67766,1.53710
251.43659,1.52036
251.19552,1.50784
250.95445,1.50053
250.71338,1.49574
250.47231,1.49519
250.23124,1.50324
249.99017,1.51823
249.74910,1.53114
249.50803,1.53376
249.26696,1.52570
249.02589,1.51228
248.78481,1.49884
248.54374,1.48971
248.30267,1.48829
248.06160,1.49302
247.82053,1.49542
247.57946,1.48837
247.33839,1.47703
247.09732,1.47430
246.85625,1.48589
246.61518,1.50443
246.37411,1.51870
246.13304,1.52590
245.89197,1.53028
245.65090,1.53603
245.40983,1.54615
245.16876,1.56340
244.92769,1.58958
244.68661,1.62448
244.44554,1.66663
244.20447,1.71338
243.96340,1.75767
243.72233,1.79276
243.48126,1.82817
243.24019,1.87760
242.99912,1.92803
242.75805,1.94929
242.51698,1.90637
242.27591,1.78185
242.03484,1.66958
241.79377,1.57863
241.55270,1.49633
241.31163,1.41737
241.07056,1.34678
240.82949,1.29100
240.58842,1.24864
240.34734,1.21311
240.10627,1.17837
239.86520,1.14161
239.62413,1.10393
239.38306,1.06855
239.14199,1.03694
238.90092,1.00762
238.65985,0.97980
238.41878,0.95552
238.17771,0.93605
237.93664,0.91897
237.69557,0.90122
237.45450,0.88320
237.21343,0.86762
236.97236,0.85567
236.73129,0.84614
236.49022,0.83738
236.24915,0.82904
236.00807,0.82159
235.76700,0.81467
235.52593,0.80701
235.28486,0.79839
235.04379,0.79065
234.80272,0.78537
234.56165,0.78151
234.32058,0.77682
234.07951,0.77093
233.83844,0.76567
233.59737,0.76293
233.35630,0.76278
233.11523,0.76361
232.87416,0.76348
232.63309,0.76168
232.39202,0.75883
232.15095,0.75547
231.90988,0.75193
231.66880,0.74972
231.42773,0.75041
231.18666,0.75258
230.94559,0.75232
230.70452,0.74838
230.46345,0.74436
230.22238,0.74350
229.98131,0.74422
229.74024,0.74327
229.49917,0.74083
229.25810,0.73917
229.01703,0.73841
228.77596,0.73706
228.53489,0.73503
228.29382,0.73309
228.05275,0.73120
227.81168,0.72956
227.57061,0.72905
227.32953,0.72996
227.08846,0.73203
226.84739,0.73520
226.60632,0.73884
226.36525,0.74132
226.12418,0.74150
225.88311,0.73986
225.64204,0.73772
225.40097,0.73631
225.15990,0.73637
224.91883,0.73755
224.67776,0.73882
224.43669,0.73967
224.19562,0.74040
223.95455,0.74178
223.71348,0.74480
223.47241,0.75008
223.23134,0.75684
222.99026,0.76369
222.74919,0.77021
222.50812,0.77677
222.26705,0.78318
222.02598,0.78894
221.78491,0.79416
221.54384,0.79947
221.30277,0.80550
221.06170,0.81248
220.82063,0.81984
220.57956,0.82738
220.33849,0.83673
220.09742,0.84939
219.85635,0.86390
219.61528,0.87716
219.37421,0.88809
219.13314,0.89798
218.89207,0.90853
218.65099,0.92033
218.40992,0.93271
218.16885,0.94469
217.92778,0.95619
217.68671,0.96784
217.44564,0.98063
217.20457,0.99578
216.96350,1.01310
216.72243,1.02983
216.48136,1.04355
216.24029,1.05536
215.99922,1.06796
215.75815,1.08231
215.51708,1.09738
215.27601,1.11158
215.03494,1.12465
214.79387,1.13848
214.55280,1.15516
214.31172,1.17404
214.07065,1.19152
213.82958,1.20508
213.58851,1.21669
213.34744,1.22989
213.10637,1.24503
212.86530,1.25953
212.62423,1.27117
212.38316,1.27875
212.14209,1.28154
211.90102,1.28176
211.65995,1.28540
211.41888,1.29571
211.17781,1.30861
210.93674,1.31818
210.69567,1.32291
210.45460,1.32453
210.21353,1.32469
209.97245,1.32289
209.73138,1.31750
209.49031,1.30988
209.24924,1.30507
209.00817,1.30568
208.76710,1.30797
208.52603,1.30717
208.28496,1.30283
208.04389,1.29641
207.80282,1.28666
207.56175,1.27074
207.32068,1.25060
207.07961,1.23419
206.83854,1.22775
206.59747,1.22901
206.35640,1.22892
206.11533,1.22048
205.87426,1.20377
205.63318,1.18283
205.39211,1.16158
205.15104,1.14312
204.90997,1.12972
204.66890,1.12092
204.42783,1.11120
204.18676,1.09303
203.94569,1.06547
203.70462,1.03642
203.46355,1.01484
203.22248,1.00401
202.98141,1.00018
202.74034,0.99520
202.49927,0.98278
202.25820,0.96361
202.01713,0.94236
201.77606,0.92187
201.53499,0.90287
201.29391,0.88611
201.05284,0.87240
200.81177,0.86124
200.57070,0.85025
200.32963,0.83692
200.08856,0.82128
199.84749,0.80605
199.60642,0.79342
199.36535,0.78254
199.12428,0.77076
198.88321,0.75733
198.64214,0.74471
198.40107,0.73528
198.16000,0.72795
197.91893,0.71912
197.67786,0.70701
197.43679,0.69358
197.19572,0.68219
196.95464,0.67457
196.71357,0.66954
196.47250,0.66387
196.23143,0.65544
195.99036,0.64557
195.74929,0.63729
195.50822,0.63165
195.26715,0.62678
195.02608,0.62035
194.78501,0.61245
194.54394,0.60550
194.30287,0.60137
194.06180,0.59926
193.82073,0.59657
193.57966,0.59150
193.33859,0.58448
193.09752,0.57727
192.85645,0.57120
192.61537,0.56622
192.37430,0.56160
192.13323,0.55709
191.89216,0.55298
191.65109,0.54948
191.41002,0.54650
191.16895,0.54380
190.92788,0.54115
190.68681,0.53878
190.44574,0.53722
190.20467,0.53636
189.96360,0.53512
189.72253,0.53281
189.48146,0.53016
189.24039,0.52819
188.99932,0.52654
188.75825,0.52414
188.51718,0.52118
188.27610,0.51900
188.03503,0.51802
187.79396,0.51746
187.55289,0.51670
187.31182,0.51590
187.07075,0.51573
186.82968,0.51718
186.58861,0.51999
186.34754,0.52176
186.10647,0.52059
185.86540,0.51804
185.62433,0.51676
185.38326,0.51697
185.14219,0.51753
184.90112,0.51890
184.66005,0.52209
184.41898,0.52580
184.17791,0.52772
183.93683,0.52821
183.69576,0.52978
183.45469,0.53306
183.21362,0.53645
182.97255,0.53910
182.73148,0.54125
182.49041,0.54230
182.24934,0.54163
182.00827,0.54044
181.76720,0.54023
181.52613,0.54077
181.28506,0.54143
181.04399,0.54271
180.80292,0.54510
180.56185,0.54828
180.32078,0.55216
180.07971,0.55698
179.83864,0.56239
179.59756,0.56763
179.35649,0.57256
179.11542,0.57766
178.87435,0.58376
178.63328,0.59150
178.39221,0.60047
178.15114,0.60965
177.91007,0.61929
177.66900,0.63104
177.42793,0.64589
177.18686,0.66308
176.94579,0.68081
176.70472,0.69743
176.46365,0.71254
176.22258,0.72767
175.98151,0.74463
175.74044,0.76363
175.49937,0.78391
175.25829,0.80499
175.01722,0.82670
174.77615,0.84954
174.53508,0.87382
174.29401,0.89786
174.05294,0.91887
173.81187,0.93605
173.57080,0.95077
173.32973,0.96488
173.08866,0.98021
172.84759,0.99799
172.60652,1.01736
172.36545,1.03499
172.12438,1.04686
171.88331,1.05168
171.64224,1.05213
171.40117,1.05084
171.16010,1.04753
170.91902,1.04233
170.67795,1.03714
170.43688,1.03165
170.19581,1.02253
169.95474,1.00823
169.71367,0.99190
169.47260,0.97843
169.23153,0.97009
168.99046,0.96506
168.74939,0.95950
168.50832,0.95194
168.26725,0.94527
168.02618,0.94358
167.78511,0.94738
167.54404,0.95265
167.30297,0.95554
167.06190,0.95664
166.82083,0.95819
166.57975,0.95928
166.33868,0.95799
166.09761,0.95588
165.85654,0.95652
165.61547,0.96210
165.37440,0.97307
165.13333,0.98828
164.89226,1.00428
164.65119,1.01779
164.41012,1.02912
164.16905,1.04033
163.92798,1.05088
163.68691,1.05930
163.44584,1.06788
163.20477,1.08147
162.96370,1.10189
162.72263,1.12587
162.48156,1.14790
162.24048,1.16404
161.99941,1.17343
161.75834,1.17811
161.51727,1.18103
161.27620,1.18293
161.03513,1.18179
160.79406,1.17604
160.55299,1.16746
160.31192,1.15946
160.07085,1.15355
159.82978,1.14991
159.58871,1.14889
159.34764,1.14915
159.10657,1.14709
158.86550,1.14033
158.62443,1.12950
158.38336,1.11716
158.14229,1.10664
157.90121,1.10014
157.66014,1.09642
157.41907,1.09216
157.17800,1.08567
156.93693,1.07762
156.69586,1.06876
156.45479,1.05914
156.21372,1.04955
155.97265,1.04181
155.73158,1.03626
155.49051,1.02954
155.24944,1.01687
155.00837,0.99776
154.76730,0.97756
154.52623,0.96209
154.28516,0.95253
154.04409,0.94547
153.80302,0.93560
153.56194,0.91854
153.32087,0.89365
153.07980,0.86487
152.83873,0.83771
152.59766,0.81563
152.35659,0.79852
152.11552,0.78376
151.87445,0.76824
151.63338,0.74991
151.39231,0.72896
151.15124,0.70796
150.91017,0.68971
150.66910,0.67448
150.42803,0.66017
150.18696,0.64510
149.94589,0.62964
149.70482,0.61549
149.46375,0.60407
149.22267,0.59510
148.98160,0.58671
148.74053,0.57783
148.49946,0.56957
148.25839,0.56348
148.01732,0.55947
147.77625,0.55625
147.53518,0.55286
147.29411,0.54964
147.05304,0.54768
146.81197,0.54761
146.57090,0.54898
146.32983,0.55117
146.08876,0.55384
145.84769,0.55675
145.60662,0.55991
145.36555,0.56402
145.12448,0.56989
144.88340,0.57726
144.64233,0.58478
144.40126,0.59139
144.16019,0.59701
143.91912,0.60168
143.67805,0.60434
143.43698,0.60315
143.19591,0.59719
142.95484,0.58766
142.71377,0.57669
142.47270,0.56570
142.23163,0.55494
141.99056,0.54445
141.74949,0.53470
141.50842,0.52645
141.26735,0.51994
141.02628,0.51443
140.78521,0.50891
140.54413,0.50365
140.30306,0.50035
140.06199,0.50023
139.82092,0.50296
139.57985,0.50793
139.33878,0.51521
139.09771,0.52404
138.85664,0.53208
138.61557,0.53832
138.37450,0.54492
138.13343,0.55447
137.89236,0.56722
137.65129,0.58219
137.41022,0.59937
137.16915,0.61913
136.92808,0.64087
136.68701,0.66347
136.44594,0.68641
136.20486,0.70998
135.96379,0.73521
135.72272,0.76374
135.48165,0.79610
135.24058,0.83079
134.99951,0.86578
134.75844,0.89983
134.51737,0.93252
134.27630,0.96532
134.03523,1.00107
133.79416,1.03948
133.55309,1.07532
133.31202,1.10449
133.07095,1.12897
132.82988,1.15249
132.58881,1.17444
132.34774,1.19086
132.10667,1.19977
131.86559,1.20363
131.62452,1.20515
131.38345,1.20235
131.14238,1.19068
130.90131,1.16863
130.66024,1.13674
130.41917,1.09491
130.17810,1.04633
129.93703,0.99794
129.69596,0.95505
129.45489,0.91738
129.21382,0.88019
128.97275,0.83983
128.73168,0.79787
128.49061,0.75863
128.24954,0.72414
128.00847,0.69321
127.76740,0.66450
127.52632,0.63798
127.28525,0.61399
127.04418,0.59233
126.80311,0.57254
126.56204,0.55416
126.32097,0.53680
126.07990,0.52039
125.83883,0.50527
125.59776,0.49178
125.35669,0.47986
125.11562,0.46928
124.87455,0.46002
124.63348,0.45171
124.39241,0.44344
124.15134,0.43483
123.91027,0.42674
123.66920,0.42032
123.42812,0.41597
123.18705,0.41344
122.94598,0.41214
122.70491,0.41166
122.46384,0.41220
122.22277,0.41402
121.98170,0.41655
121.74063,0.41903
121.49956,0.42169
121.25849,0.42531
121.01742,0.43063
120.77635,0.43859
120.53528,0.45002
120.29421,0.46429
120.05314,0.47950
119.81207,0.49462
119.57100,0.51089
119.32993,0.53022
119.08885,0.55309
118.84778,0.57894
118.60671,0.60801
118.36564,0.64117
118.12457,0.67719
117.88350,0.71180
117.64243,0.74085
117.40136,0.76367
117.16029,0.78120
116.91922,0.79226
116.67815,0.79515
116.43708,0.79165
116.19601,0.78534
115.95494,0.77717
115.71387,0.76620
115.47280,0.75290
115.23173,0.73835
114.99066,0.72245
114.74958,0.70524
114.50851,0.68864
114.26744,0.67585
114.02637,0.66911
113.78530,0.66746
113.54423,0.66693
113.30316,0.66446
113.06209,0.66100
112.82102,0.65917
112.57995,0.65969
112.33888,0.66220
112.09781,0.66866
111.85674,0.68307
111.61567,0.70624
111.37460,0.73235
111.13353,0.75367
110.89246,0.76735
110.65139,0.77406
110.41031,0.77271
110.16924,0.76172
109.92817,0.74288
109.68710,0.72014
109.44603,0.69611
109.20496,0.67246
108.96389,0.65162
108.72282,0.63460
108.48175,0.61863
108.24068,0.59972
107.99961,0.57678
107.75854,0.55151
107.51747,0.52623
107.27640,0.50273
107.03533,0.48213
106.79426,0.46474
106.55319,0.44990
106.31212,0.43625
106.07104,0.42286
105.82997,0.40958
105.58890,0.39635
105.34783,0.38303
105.10676,0.37044
104.86569,0.36006
104.62462,0.35258
104.38355,0.34748
104.14248,0.34340
103.90141,0.33805
103.66034,0.32964
103.41927,0.31901
103.17820,0.30909
102.93713,0.30229
102.69606,0.29936
102.45499,0.29963
102.21392,0.30083
101.97285,0.29959
101.73177,0.29368
101.49070,0.28385
101.24963,0.27353
101.00856,0.26670
100.76749,0.26512
100.52642,0.26668
100.28535,0.26701
100.04428,0.26375
99.80321,0.25846
99.56214,0.25428
99.32107,0.25298
99.08000,0.25407
98.83893,0.25522
98.59786,0.25399
98.35679,0.25060
98.11572,0.24783
97.87465,0.24809
97.63358,0.25123
97.39250,0.25497
97.15143,0.25754
96.91036,0.25985
96.66929,0.26417
96.42822,0.27127
96.18715,0.27970
95.94608,0.28711
95.70501,0.29292
95.46394,0.29930
95.22287,0.30820
94.98180,0.31803
94.74073,0.32442
94.49966,0.32550
94.25859,0.32503
94.01752,0.32760
93.77645,0.33216
93.53538,0.33319
93.29431,0.32992
93.05323,0.32964
92.81216,0.33654
92.57109,0.34399
92.33002,0.34449
92.08895,0.34220
91.84788,0.34491
91.60681,0.35156
91.36574,0.35739
91.12467,0.36534
90.88360,0.38211
90.64253,0.40836
90.40146,0.44067
90.16039,0.47862
89.91932,0.52321
89.67825,0.57237
89.43718,0.62352
89.19611,0.67414
88.95504,0.71713
88.71396,0.74391
88.47289,0.74983
88.23182,0.73250
87.99075,0.69379
87.74968,0.64185
87.50861,0.58480
87.26754,0.52852
87.02647,0.47887
86.78540,0.43894
86.54433,0.40707
86.30326,0.38012
86.06219,0.35592
85.82112,0.33299
85.58005,0.31127
85.33898,0.29201
85.09791,0.27560
84.85684,0.26136
84.61577,0.24907
84.37469,0.23892
84.13362,0.23059
83.89255,0.22331
83.65148,0.21653
83.41041,0.21028
83.16934,0.20495
82.92827,0.20054
82.68720,0.19681
82.44613,0.19403
82.20506,0.19210
81.96399,0.18993
81.72292,0.18674
81.48185,0.18305
81.24078,0.17961
80.99971,0.17661
80.75864,0.17423
80.51757,0.17271
80.27650,0.17188
80.03542,0.17105
79.79435,0.16965
79.55328,0.16784
79.31221,0.16660
79.07114,0.16681
78.83007,0.16820
78.58900,0.16897
78.34793,0.16731
78.10686,0.16384
77.86579,0.16119
77.62472,0.16041
77.38365,0.15972
77.14258,0.15775
76.90151,0.15569
76.66044,0.15501
76.41937,0.15512
76.17830,0.15431
75.93723,0.15200
75.69615,0.14920
75.45508,0.14755
75.21401,0.14764
74.97294,0.14826
74.73187,0.14750
74.49080,0.14512
74.24973,0.14321
74.00866,0.14391
73.76759,0.14671
73.52652,0.14898
73.28545,0.14900
73.04438,0.14774
72.80331,0.14743
72.56224,0.14921
72.32117,0.15261
72.08010,0.15679
71.83903,0.16131
71.59796,0.16567
71.35688,0.16920
71.11581,0.17193
70.87474,0.17456
70.63367,0.17756
70.39260,0.18171
70.15153,0.18949
69.91046,0.20433
69.66939,0.22751
69.42832,0.25529
69.18725,0.27877
68.94618,0.28856
68.70511,0.28113
68.46404,0.25984
68.22297,0.23139
67.98190,0.20301
67.74083,0.18004
67.49976,0.16408
67.25869,0.15396
67.01761,0.14790
66.77654,0.14431
66.53547,0.14153
66.29440,0.13824
66.05333,0.13465
65.81226,0.13270
65.57119,0.13417
65.33012,0.13862
65.08905,0.14418
64.84798,0.15028
64.60691,0.15838
64.36584,0.16950
64.12477,0.18178
63.88370,0.19107
63.64263,0.19417
63.40156,0.19101
63.16049,0.18375
62.91942,0.17486
62.67834,0.16605
62.43727,0.15798
62.19620,0.15085
61.95513,0.14546
61.71406,0.14292
61.47299,0.14319
61.23192,0.14492
60.99085,0.14656
60.74978,0.14712
60.50871,0.14658
60.26764,0.14577
60.02657,0.14531
59.78550,0.14461
59.54443,0.14264
59.30336,0.13968
59.06229,0.13703
58.82122,0.13461
58.58015,0.13037
58.33907,0.12351
58.09800,0.11655
57.85693,0.11319
57.61586,0.11478
57.37479,0.11970
57.13372,0.12588
56.89265,0.13369
56.65158,0.14508
56.41051,0.15952
56.16944,0.17179
55.92837,0.17588
55.68730,0.17055
55.44623,0.15949
55.20516,0.14693
54.96409,0.13460
54.72302,0.12323
54.48195,0.11525
54.24088,0.11488
53.99980,0.12532
53.75873,0.14612
53.51766,0.17119
53.27659,0.18830
53.03552,0.18673
52.79445,0.16816
52.55338,0.14315
52.31231,0.12361
52.07124,0.11974
51.83017,0.13560
51.58910,0.16384
51.34803,0.18353
51.10696,0.17453
50.86589,0.14490
50.62482,0.11979
50.38375,0.11469
50.14268,0.13414
49.90161,0.17184
49.66053,0.19753
49.41946,0.17761
49.17839,0.13643
48.93732,0.11236
48.69625,0.11666
48.45518,0.14143
48.21411,0.15956
47.97304,0.14755
47.73197,0.12688
47.49090,0.12892
47.24983,0.15364
47.00876,0.16125
46.76769,0.13000
46.52662,0.10511
46.28555,0.11439
46.04448,0.13724
45.80341,0.13882
45.56234,0.13034
45.32126,0.14167
45.08019,0.16180
44.83912,0.16117
44.59805,0.14848
44.35698,0.14652
44.11591,0.15257
43.87484,0.15565
43.63377,0.15538
43.39270,0.15358
43.15163,0.15250
42.91056,0.15472
42.66949,0.15555
42.42842,0.15022
42.18735,0.14407
41.94628,0.14111
41.70521,0.13837
41.46414,0.13526
41.22307,0.13400
40.98199,0.13505
40.74092,0.13794
40.49985,0.14181
40.25878,0.14654
40.01771,0.15419
39.77664,0.16464
39.53557,0.17431
39.29450,0.18222
39.05343,0.18921
38.81236,0.19484
38.57129,0.20105
38.33022,0.20918
38.08915,0.21347
37.84808,0.20951
37.60701,0.20207
37.36594,0.19483
37.12487,0.18688
36.88380,0.18089
36.64272,0.18142
36.40165,0.18759
36.16058,0.19223
35.91951,0.18886
35.67844,0.17964
35.43737,0.17170
35.19630,0.16511
34.95523,0.15652
34.71416,0.15125
34.47309,0.15332
34.23202,0.15307
33.99095,0.14031
33.74988,0.12063
33.50881,0.10575
33.26774,0.09793
33.02667,0.09538
32.78560,0.10087
32.54453,0.11348
32.30345,0.12195
32.06238,0.11330
31.82131,0.08415
31.58024,0.04418
31.33917,0.00933
31.09810,-0.00855
30.85703,-0.01023
30.61596,-0.00706
30.37489,-0.00837
30.13382,-0.01826
29.89275,-0.03842
29.65168,-0.06320
29.41061,-0.08182
29.16954,-0.09421
28.92847,-0.11270
28.68740,-0.14535
28.44633,-0.18253
28.20526,-0.20710
27.96418,-0.21692
27.72311,-0.22403
27.48204,-0.23304
27.24097,-0.23871
26.99990,-0.24340
26.75883,-0.25781
26.51776,-0.28366
26.27669,-0.30814
26.03562,-0.31386
25.79455,-0.29427
25.55348,-0.26380
25.31241,-0.24765
25.07134,-0.25708
24.83027,-0.28357
24.58920,-0.31560
24.34813,-0.35155
24.10706,-0.38366
23.86599,-0.38682
23.62491,-0.36674
23.38384,-0.35862
23.14277,-0.37944
22.90170,-0.42052
22.66063,-0.46211
22.41956,-0.49559
22.17849,-0.51877
21.93742,-0.52255
21.69635,-0.49720
21.45528,-0.45843
21.21421,-0.43086
20.97314,-0.42987
20.73207,-0.45733
20.49100,-0.50056
20.24993,-0.54719
20.00886,-0.56962
19.76779,-0.55255
19.52672,-0.52963
19.28564,-0.52892
19.04457,-0.54468
18.80350,-0.55616
18.56243,-0.55848
18.32136,-0.55820
18.08029,-0.53230
17.83922,-0.47719
17.59815,-0.43514
17.35708,-0.43180
17.11601,-0.45458
16.87494,-0.47079
16.63387,-0.46768
16.39280,-0.46512
16.15173,-0.47827
15.91066,-0.49411
15.66959,-0.49090
15.42852,-0.47077
15.18745,-0.45160
14.94637,-0.44193
14.70530,-0.44088
14.46423,-0.44420
14.22316,-0.45089
13.98209,-0.46225
13.74102,-0.47182
13.49995,-0.47527
13.25888,-0.47266
13.01781,-0.46270
12.77674,-0.44957
12.53567,-0.44078
12.29460,-0.43903
12.05353,-0.44385
11.81246,-0.45658
11.57139,-0.47541
11.33032,-0.48600
11.08925,-0.47724
10.84818,-0.46426
10.60710,-0.46835
10.36603,-0.48267
10.12496,-0.47974
9.88389,-0.45676
9.64282,-0.43971
9.40175,-0.44003
9.16068,-0.44189
8.91961,-0.43235
8.67854,-0.41888
8.43747,-0.41220
8.19640,-0.41303
7.95533,-0.41308
7.71426,-0.40970
7.47319,-0.41286
7.23212,-0.42666
6.99105,-0.44336
6.74998,-0.46301
6.50891,-0.49262
6.26783,-0.52019
6.02676,-0.52233
5.78569,-0.50231
5.54462,-0.47623
5.30355,-0.47030
5.06248,-0.48412
4.82141,-0.48005
4.58034,-0.49288
4.33927,-0.50883
4.09820,-0.49656
3.85713,-0.45877
3.61606,-0.43565
3.37499,-0.43401
3.13392,-0.44404
2.89285,-0.45904
2.65178,-0.45820
2.41071,-0.43855
2.16964,-0.42377
1.92856,-0.42191
1.68749,-0.42954
1.44642,-0.44970
1.20535,-0.47661
0.96428,-0.50807
0.72321,-0.54067
0.48214,-0.56352
0.24107,-0.55759
-0.00000,-0.21551
