399.69498,1.55417
399.45391,1.55526
399.21284,1.54330
398.97177,1.52612
398.73070,1.51209
398.48963,1.49995
398.24856,1.48854
398.00749,1.48310
397.76642,1.48808
397.52535,1.50163
397.28428,1.51560
397.04321,1.52258
396.80214,1.52545
396.56107,1.53000
396.32000,1.53179
396.07892,1.52167
395.83785,1.50428
395.59678,1.49315
395.35571,1.49069
395.11464,1.48893
394.87357,1.48588
394.63250,1.48906
394.39143,1.50095
394.15036,1.51293
393.90929,1.51707
393.66822,1.51514
393.42715,1.51249
393.18608,1.50928
392.94501,1.50229
392.70394,1.49323
392.46287,1.48877
392.22180,1.49169
391.98073,1.49838
391.73965,1.50413
391.49858,1.50539
391.25751,1.50066
391.01644,1.49335
390.77537,1.48702
390.53430,1.48004
390.29323,1.47606
390.05216,1.48672
389.81109,1.50996
389.57002,1.52474
389.32895,1.51664
389.08788,1.49704
388.84681,1.48438
388.60574,1.48184
388.36467,1.48066
388.12360,1.47215
387.88253,1.45503
387.64146,1.43738
387.40038,1.42541
387.15931,1.41835
386.91824,1.41696
386.67717,1.42409
386.43610,1.43610
386.19503,1.44298
385.95396,1.43977
385.71289,1.42885
385.47182,1.41021
385.23075,1.38565
384.98968,1.36805
384.74861,1.36661
384.50754,1.37847
384.26647,1.39057
384.02540,1.38856
383.78433,1.37212
383.54326,1.35206
383.30219,1.33503
383.06111,1.31960
382.82004,1.30522
382.57897,1.29750
382.33790,1.29844
382.09683,1.29827
381.85576,1.28868
381.61469,1.27390
381.37362,1.25927
381.13255,1.24574
380.89148,1.23758
380.65041,1.24063
380.40934,1.25180
380.16827,1.26150
379.92720,1.26866
379.68613,1.28189
379.44506,1.30227
379.20399,1.31515
378.96292,1.30538
378.72184,1.28064
378.48077,1.26777
378.23970,1.28215
377.99863,1.31310
377.75756,1.33850
377.51649,1.35027
377.27542,1.35600
377.03435,1.35753
376.79328,1.34871
376.55221,1.33503
376.31114,1.33410
376.07007,1.35544
375.82900,1.38874
375.58793,1.41400
375.34686,1.42328
375.10579,1.42516
374.86472,1.43038
374.62365,1.44212
374.38257,1.45248
374.14150,1.44846
373.90043,1.43018
373.65936,1.41187
373.41829,1.40668
373.17722,1.41180
372.93615,1.40902
372.69508,1.38882
372.45401,1.36277
372.21294,1.34796
371.97187,1.35268
371.73080,1.37042
371.48973,1.38571
371.24866,1.38731
371.00759,1.37294
370.76652,1.34779
370.52545,1.32345
370.28437,1.30995
370.04330,1.30765
369.80223,1.31125
369.56116,1.31737
369.32009,1.32219
369.07902,1.31861
368.83795,1.30458
368.59688,1.28885
368.35581,1.28120
368.11474,1.28114
367.87367,1.28132
367.63260,1.28083
367.39153,1.28624
367.15046,1.29662
366.90939,1.29836
366.66832,1.28481
366.42725,1.26989
366.18618,1.26916
365.94510,1.27946
365.70403,1.28385
365.46296,1.27390
365.22189,1.25926
364.98082,1.25317
364.73975,1.25664
364.49868,1.26037
364.25761,1.25873
364.01654,1.25333
363.77547,1.24541
363.53440,1.23322
363.29333,1.21779
363.05226,1.20553
362.81119,1.20298
362.57012,1.21240
362.32905,1.22909
362.08798,1.24241
361.84691,1.24640
361.60583,1.24487
361.36476,1.24267
361.12369,1.24077
360.88262,1.23906
360.64155,1.23712
360.40048,1.23454
360.15941,1.23233
359.91834,1.23151
359.67727,1.23118
359.43620,1.23120
359.19513,1.23316
358.95406,1.23382
358.71299,1.22908
358.47192,1.22278
358.23085,1.22092
357.98978,1.22435
357.74871,1.23014
357.50764,1.23351
357.26656,1.22889
357.02549,1.21662
356.78442,1.20613
356.54335,1.20516
356.30228,1.21023
356.06121,1.21306
355.82014,1.21205
355.57907,1.21184
355.33800,1.21455
355.09693,1.21601
354.85586,1.21287
354.61479,1.20854
354.37372,1.20785
354.13265,1.20982
353.89158,1.20839
353.65051,1.20015
353.40944,1.19020
353.16837,1.18859
352.92729,1.19941
352.68622,1.21456
352.44515,1.22140
352.20408,1.21724
351.96301,1.21075
351.72194,1.20939
351.48087,1.21215
351.23980,1.21343
350.99873,1.21096
350.75766,1.20852
350.51659,1.21121
350.27552,1.21975
350.03445,1.22872
349.79338,1.23091
349.55231,1.22470
349.31124,1.21577
349.07017,1.21112
348.82910,1.21341
348.58802,1.21989
348.34695,1.22504
348.10588,1.22585
347.86481,1.22408
347.62374,1.22308
347.38267,1.22616
347.14160,1.23659
346.90053,1.25555
346.65946,1.27823
346.41839,1.29529
346.17732,1.30129
345.93625,1.29836
345.69518,1.29167
345.45411,1.28715
345.21304,1.28943
344.97197,1.29605
344.73090,1.29669
344.48983,1.28394
344.24875,1.26495
344.00768,1.25439
343.76661,1.25834
343.52554,1.27241
343.28447,1.29110
343.04340,1.31142
342.80233,1.32639
342.56126,1.32676
342.32019,1.31612
342.07912,1.30902
341.83805,1.31188
341.59698,1.32015
341.35591,1.33136
341.11484,1.34790
340.87377,1.36668
340.63270,1.37829
340.39163,1.37797
340.15056,1.36925
339.90948,1.35894
339.66841,1.35579
339.42734,1.36480
339.18627,1.37727
338.94520,1.37796
338.70413,1.36655
338.46306,1.35652
338.22199,1.35575
337.98092,1.36217
337.73985,1.37195
337.49878,1.38469
337.25771,1.40142
337.01664,1.42103
336.77557,1.43928
336.53450,1.44978
336.29343,1.44683
336.05236,1.43109
335.81129,1.40935
335.57021,1.38738
335.32914,1.36965
335.08807,1.36202
334.84700,1.36764
334.60593,1.38075
334.36486,1.39040
334.12379,1.39438
333.88272,1.39750
333.64165,1.39430
333.40058,1.37440
333.15951,1.34395
332.91844,1.32187
332.67737,1.31526
332.43630,1.31561
332.19523,1.31501
331.95416,1.31594
331.71309,1.31967
331.47202,1.31460
331.23094,1.29448
330.98987,1.27535
330.74880,1.27751
330.50773,1.30173
330.26666,1.32828
330.02559,1.34080
329.78452,1.34416
329.54345,1.34674
329.30238,1.34295
329.06131,1.32872
328.82024,1.31371
328.57917,1.30686
328.33810,1.30619
328.09703,1.30505
327.85596,1.30000
327.61489,1.29307
327.37382,1.28725
327.13275,1.28269
326.89167,1.27861
326.65060,1.27227
326.40953,1.26326
326.16846,1.26053
325.92739,1.27435
325.68632,1.30145
325.44525,1.32385
325.20418,1.32375
324.96311,1.29984
324.72204,1.26902
324.48097,1.25079
324.23990,1.25304
323.99883,1.27168
323.75776,1.29764
323.51669,1.32255
323.27562,1.33834
323.03455,1.33715
322.79348,1.31978
322.55240,1.29784
322.31133,1.28580
322.07026,1.29521
321.82919,1.32440
321.58812,1.35328
321.34705,1.35997
321.10598,1.34457
320.86491,1.32747
320.62384,1.32337
320.38277,1.32897
320.14170,1.33549
319.90063,1.34145
319.65956,1.34694
319.41849,1.34650
319.17742,1.33609
318.93635,1.32141
318.69528,1.31115
318.45421,1.30768
318.21313,1.31184
317.97206,1.32463
317.73099,1.33920
317.48992,1.33912
317.24885,1.31898
317.00778,1.30116
316.76671,1.30677
316.52564,1.33082
316.28457,1.35258
316.04350,1.35728
315.80243,1.34709
315.56136,1.33481
315.32029,1.33213
315.07922,1.34271
314.83815,1.35900
314.59708,1.36979
314.35601,1.37585
314.11494,1.38593
313.87386,1.39575
313.63279,1.38611
313.39172,1.35279
313.15065,1.32233
312.90958,1.31959
312.66851,1.34203
312.42744,1.36686
312.18637,1.37359
311.94530,1.35971
311.70423,1.34015
311.46316,1.33611
311.22209,1.35688
310.98102,1.39034
310.73995,1.41612
310.49888,1.42788
310.25781,1.43215
310.01674,1.43032
309.77567,1.42053
309.53459,1.40849
309.29352,1.39932
309.05245,1.39582
308.81138,1.40089
308.57031,1.40353
308.32924,1.39131
308.08817,1.37412
307.84710,1.36847
307.60603,1.37890
307.36496,1.39494
307.12389,1.40350
306.88282,1.40491
306.64175,1.40734
306.40068,1.41039
306.15961,1.40609
305.91854,1.39506
305.67747,1.38733
305.43640,1.38687
305.19532,1.38961
304.95425,1.39350
304.71318,1.39963
304.47211,1.40296
304.23104,1.39669
303.98997,1.38483
303.74890,1.37494
303.50783,1.36696
303.26676,1.35653
303.02569,1.34301
302.78462,1.33056
302.54355,1.32523
302.30248,1.32993
302.06141,1.34080
301.82034,1.34873
301.57927,1.34525
301.33820,1.33076
301.09713,1.31255
300.85605,1.29650
300.61498,1.28359
300.37391,1.27466
300.13284,1.27039
299.89177,1.26672
299.65070,1.26047
299.40963,1.25425
299.16856,1.25090
298.92749,1.25044
298.68642,1.25368
298.44535,1.26207
298.20428,1.27319
297.96321,1.28122
297.72214,1.28026
297.48107,1.26695
297.24000,1.24492
296.99893,1.22507
296.75786,1.21620
296.51678,1.21702
296.27571,1.21801
296.03464,1.21247
295.79357,1.20374
295.55250,1.19813
295.31143,1.19695
295.07036,1.19784
294.82929,1.19807
294.58822,1.19511
294.34715,1.18827
294.10608,1.18025
293.86501,1.17647
293.62394,1.18010
293.38287,1.18788
293.14180,1.19348
292.90073,1.19349
292.65966,1.18886
292.41859,1.18219
292.17751,1.17469
291.93644,1.16714
291.69537,1.16003
291.45430,1.15191
291.21323,1.14236
290.97216,1.13465
290.73109,1.13242
290.49002,1.13555
290.24895,1.14080
290.00788,1.14454
289.76681,1.14437
289.52574,1.14030
289.28467,1.13524
289.04360,1.13306
288.80253,1.13525
288.56146,1.13946
288.32039,1.14129
288.07932,1.13744
287.83824,1.12851
287.59717,1.12003
287.35610,1.11833
287.11503,1.12377
286.87396,1.12961
286.63289,1.12926
286.39182,1.12300
286.15075,1.11570
285.90968,1.11113
285.66861,1.11006
285.42754,1.11103
285.18647,1.11165
284.94540,1.11027
284.70433,1.10706
284.46326,1.10414
284.22219,1.10420
283.98112,1.10745
283.74005,1.11040
283.49897,1.11006
283.25790,1.10899
283.01683,1.11213
282.77576,1.11878
282.53469,1.12299
282.29362,1.12226
282.05255,1.12029
281.81148,1.11936
281.57041,1.11740
281.32934,1.11362
281.08827,1.11065
280.84720,1.10970
280.60613,1.10970
280.36506,1.11140
280.12399,1.11554
279.88292,1.11923
279.64185,1.11967
279.40078,1.11834
279.15970,1.11808
278.91863,1.11931
278.67756,1.12084
278.43649,1.12175
278.19542,1.12154
277.95435,1.11991
277.71328,1.11733
277.47221,1.11562
277.23114,1.11694
276.99007,1.12102
276.74900,1.12439
276.50793,1.12370
276.26686,1.11969
276.02579,1.11633
275.78472,1.11610
275.54365,1.11725
275.30258,1.11641
275.06151,1.11380
274.82043,1.11310
274.57936,1.11652
274.33829,1.12283
274.09722,1.12881
273.85615,1.13162
273.61508,1.13094
273.37401,1.12982
273.13294,1.13173
272.89187,1.13621
272.65080,1.13971
272.40973,1.14050
272.16866,1.14043
271.92759,1.14234
271.68652,1.14808
271.44545,1.15788
271.20438,1.16921
270.96331,1.17691
270.72224,1.17749
270.48116,1.17279
270.24009,1.16789
269.99902,1.16708
269.75795,1.17202
269.51688,1.18120
269.27581,1.19029
269.03474,1.19455
268.79367,1.19359
268.55260,1.19360
268.31153,1.20160
268.07046,1.21756
267.82939,1.23392
267.58832,1.24298
267.34725,1.24394
267.10618,1.24208
266.86511,1.24321
266.62404,1.24874
266.38297,1.25541
266.14189,1.25998
265.90082,1.26392
265.65975,1.27185
265.41868,1.28457
265.17761,1.29745
264.93654,1.30762
264.69547,1.31750
264.45440,1.32921
264.21333,1.34151
263.97226,1.35414
263.73119,1.36959
263.49012,1.38738
263.24905,1.40177
263.00798,1.40900
262.76691,1.41475
262.52584,1.42732
262.28477,1.44482
262.04370,1.45866
261.80262,1.46775
261.56155,1.47974
261.32048,1.49966
261.07941,1.52503
260.83834,1.55250
260.59727,1.58376
260.35620,1.61819
260.11513,1.64874
259.87406,1.67123
259.63299,1.69296
259.39192,1.72736
259.15085,1.77474
258.90978,1.81156
258.66871,1.81804
258.42764,1.81283
258.18657,1.82735
257.94550,1.86130
257.70443,1.87530
257.46335,1.84165
257.22228,1.78523
256.98121,1.74195
256.74014,1.71857
256.49907,1.70902
256.25800,1.71566
256.01693,1.73600
255.77586,1.74716
255.53479,1.73087
255.29372,1.70496
255.05265,1.69694
254.81158,1.70507
254.57051,1.70438
254.32944,1.67683
254.08837,1.63164
253.84730,1.59520
253.60623,1.58326
253.36516,1.59081
253.12408,1.60321
252.88301,1.60961
252.64194,1.60687
252.40087,1.59556
252.15980,1.57757
251.91873,1.55821
251.67766,1.54353
251.43659,1.53530
251.19552,1.53166
250.95445,1.53137
250.71338,1.53575
250.47231,1.54690
250.23124,1.56485
249.99017,1.58635
249.74910,1.60409
249.50803,1.61088
249.26696,1.60580
249.02589,1.59180
248.78481,1.57107
248.54374,1.54751
248.30267,1.52735
248.06160,1.51487
247.82053,1.51137
247.57946,1.51490
247.33839,1.52011
247.09732,1.52405
246.85625,1.52961
246.61518,1.53881
246.37411,1.54801
246.13304,1.55145
245.89197,1.54995
245.65090,1.55201
245.40983,1.56457
245.16876,1.58707
244.92769,1.61775
244.68661,1.66091
244.44554,1.71468
244.20447,1.75930
243.96340,1.78367
243.72233,1.80705
243.48126,1.85774
243.24019,1.93914
242.99912,2.01706
242.75805,2.04904
242.51698,1.96053
242.27591,1.84946
242.03484,1.73787
241.79377,1.63116
241.55270,1.53600
241.31163,1.45288
241.07056,1.38013
240.82949,1.31682
240.58842,1.26504
240.34734,1.22645
240.10627,1.19695
239.86520,1.16947
239.62413,1.14082
239.38306,1.11116
239.14199,1.08064
238.90092,1.05020
238.65985,1.02303
238.41878,1.00197
238.17771,0.98488
237.93664,0.96574
237.69557,0.94270
237.45450,0.92132
237.21343,0.90698
236.97236,0.89830
236.73129,0.89084
236.49022,0.88384
236.24915,0.87948
236.00807,0.87702
235.76700,0.87184
235.52593,0.86167
235.28486,0.85032
235.04379,0.84243
234.80272,0.83806
234.56165,0.83512
234.32058,0.83285
234.07951,0.83001
233.83844,0.82436
233.59737,0.81686
233.35630,0.81252
233.11523,0.81456
232.87416,0.81997
232.63309,0.82229
232.39202,0.81779
232.15095,0.80854
231.90988,0.79987
231.66880,0.79599
231.42773,0.79727
231.18666,0.80059
230.94559,0.80224
230.70452,0.80078
230.46345,0.79732
230.22238,0.79399
229.98131,0.79231
229.74024,0.79223
229.49917,0.79230
229.25810,0.79115
229.01703,0.78840
228.77596,0.78488
228.53489,0.78290
228.29382,0.78483
228.05275,0.79013
227.81168,0.79515
227.57061,0.79650
227.32953,0.79403
227.08846,0.79008
226.84739,0.78683
226.60632,0.78487
226.36525,0.78431
226.12418,0.78562
225.88311,0.78826
225.64204,0.79110
225.40097,0.79508
225.15990,0.80120
224.91883,0.80631
224.67776,0.80625
224.43669,0.80214
224.19562,0.79844
223.95455,0.79743
223.71348,0.79920
223.47241,0.80392
223.23134,0.81089
222.99026,0.81781
222.74919,0.82340
222.50812,0.82923
222.26705,0.83718
222.02598,0.84637
221.78491,0.85433
221.54384,0.86072
221.30277,0.86763
221.06170,0.87613
220.82063,0.88534
220.57956,0.89477
220.33849,0.90448
220.09742,0.91325
219.85635,0.91989
219.61528,0.92637
219.37421,0.93654
219.13314,0.95185
218.89207,0.96975
218.65099,0.98586
218.40992,0.99749
218.16885,1.00531
217.92778,1.01175
217.68671,1.01850
217.44564,1.02710
217.20457,1.04032
216.96350,1.05972
216.72243,1.08268
216.48136,1.10387
216.24029,1.11979
215.99922,1.13085
215.75815,1.14022
215.51708,1.15175
215.27601,1.16695
215.03494,1.18348
214.79387,1.19817
214.55280,1.21105
214.31172,1.22373
214.07065,1.23472
213.82958,1.24094
213.58851,1.24456
213.34744,1.25429
213.10637,1.27661
212.86530,1.30611
212.62423,1.32958
212.38316,1.33978
212.14209,1.33856
211.90102,1.32928
211.65995,1.31698
211.41888,1.31212
211.17781,1.32427
210.93674,1.35006
210.69567,1.37160
210.45460,1.37516
210.21353,1.36523
209.97245,1.35092
209.73138,1.33600
209.49031,1.32238
209.24924,1.31424
209.00817,1.31633
208.76710,1.32875
208.52603,1.34513
208.28496,1.35466
208.04389,1.34825
207.80282,1.32640
207.56175,1.30021
207.32068,1.28305
207.07961,1.27902
206.83854,1.27732
206.59747,1.26402
206.35640,1.23956
206.11533,1.21637
205.87426,1.20372
205.63318,1.19894
205.39211,1.19103
205.15104,1.17303
204.90997,1.14787
204.66890,1.12212
204.42783,1.10163
204.18676,1.09057
203.94569,1.08695
203.70462,1.08156
203.46355,1.06741
203.22248,1.04860
202.98141,1.03426
202.74034,1.02623
202.49927,1.01612
202.25820,0.99611
202.01713,0.96934
201.77606,0.94447
201.53499,0.92573
201.29391,0.91197
201.05284,0.90055
200.81177,0.88889
200.57070,0.87531
200.32963,0.86062
200.08856,0.84739
199.84749,0.83640
199.60642,0.82491
199.36535,0.81035
199.12428,0.79420
198.88321,0.77990
198.64214,0.76837
198.40107,0.75737
198.16000,0.74513
197.91893,0.73315
197.67786,0.72434
197.43679,0.71902
197.19572,0.71377
196.95464,0.70517
196.71357,0.69460
196.47250,0.68618
196.23143,0.68064
195.99036,0.67430
195.74929,0.66463
195.50822,0.65417
195.26715,0.64755
195.02608,0.64612
194.78501,0.64649
194.54394,0.64386
194.30287,0.63699
194.06180,0.62917
193.82073,0.62354
193.57966,0.61932
193.33859,0.61440
193.09752,0.60914
192.85645,0.60520
192.61537,0.60207
192.37430,0.59779
192.13323,0.59288
191.89216,0.59001
191.65109,0.58948
191.41002,0.58800
191.16895,0.58324
190.92788,0.57743
190.68681,0.57382
190.44574,0.57179
190.20467,0.56840
189.96360,0.56365
189.72253,0.56045
189.48146,0.55935
189.24039,0.55750
188.99932,0.55412
188.75825,0.55246
188.51718,0.55417
188.27610,0.55601
188.03503,0.55504
187.79396,0.55295
187.55289,0.55194
187.31182,0.55142
187.07075,0.55093
186.82968,0.55158
186.58861,0.55294
186.34754,0.55288
186.10647,0.55145
185.86540,0.55092
185.62433,0.55222
185.38326,0.55418
185.14219,0.55551
184.90112,0.55542
184.66005,0.55392
184.41898,0.55289
184.17791,0.55497
183.93683,0.56018
183.69576,0.56533
183.45469,0.56796
183.21362,0.56888
182.97255,0.56970
182.73148,0.57050
182.49041,0.57152
182.24934,0.57387
182.00827,0.57677
181.76720,0.57762
181.52613,0.57581
181.28506,0.57341
181.04399,0.57226
180.80292,0.57281
180.56185,0.57472
180.32078,0.57726
180.07971,0.58095
179.83864,0.58780
179.59756,0.59799
179.35649,0.60864
179.11542,0.61723
178.87435,0.62352
178.63328,0.62788
178.39221,0.63146
178.15114,0.63674
177.91007,0.64517
177.66900,0.65597
177.42793,0.66798
177.18686,0.68111
176.94579,0.69588
176.70472,0.71289
176.46365,0.73191
176.22258,0.75172
175.98151,0.77216
175.74044,0.79434
175.49937,0.81771
175.25829,0.83965
175.01722,0.85900
174.77615,0.87732
174.53508,0.89600
174.29401,0.91560
174.05294,0.93782
173.81187,0.96354
173.57080,0.98860
173.32973,1.00676
173.08866,1.01782
172.84759,1.02622
172.60652,1.03295
172.36545,1.03623
172.12438,1.03648
171.88331,1.03507
171.64224,1.03263
171.40117,1.03076
171.16010,1.03158
170.91902,1.03480
170.67795,1.03789
170.43688,1.03792
170.19581,1.03235
169.95474,1.02083
169.71367,1.00592
169.47260,0.99122
169.23153,0.97999
168.99046,0.97437
168.74939,0.97413
168.50832,0.97629
168.26725,0.97763
168.02618,0.97683
167.78511,0.97315
167.54404,0.96557
167.30297,0.95540
167.06190,0.94724
166.82083,0.94621
166.57975,0.95471
166.33868,0.97099
166.09761,0.98964
165.85654,1.00404
165.61547,1.00990
165.37440,1.00853
165.13333,1.00664
164.89226,1.01077
164.65119,1.02219
164.41012,1.03812
164.16905,1.05652
163.92798,1.07695
163.68691,1.09648
163.44584,1.10941
163.20477,1.11435
162.96370,1.11803
162.72263,1.12813
162.48156,1.14545
162.24048,1.16394
161.99941,1.17702
161.75834,1.18283
161.51727,1.18277
161.27620,1.17934
161.03513,1.17481
160.79406,1.17000
160.55299,1.16713
160.31192,1.16942
160.07085,1.17410
159.82978,1.17236
159.58871,1.16039
159.34764,1.14427
159.10657,1.13013
158.86550,1.11860
158.62443,1.10946
158.38336,1.10345
158.14229,1.10046
157.90121,1.09927
157.66014,1.09771
157.41907,1.09267
157.17800,1.08218
156.93693,1.06928
156.69586,1.06051
156.45479,1.05925
156.21372,1.06146
155.97265,1.05912
155.73158,1.04938
155.49051,1.03671
155.24944,1.02511
155.00837,1.01479
154.76730,1.00527
154.52623,0.99391
154.28516,0.97486
154.04409,0.94707
153.80302,0.91846
153.56194,0.89730
153.32087,0.88427
153.07980,0.87388
152.83873,0.86031
152.59766,0.84053
152.35659,0.81533
152.11552,0.78910
151.87445,0.76665
151.63338,0.74963
151.39231,0.73566
151.15124,0.72102
150.91017,0.70416
150.66910,0.68621
150.42803,0.66860
150.18696,0.65135
149.94589,0.63404
149.70482,0.61812
149.46375,0.60606
149.22267,0.59768
148.98160,0.58995
148.74053,0.58084
148.49946,0.57159
148.25839,0.56460
148.01732,0.56061
147.77625,0.55827
147.53518,0.55564
147.29411,0.55197
147.05304,0.54848
146.81197,0.54717
146.57090,0.54881
146.32983,0.55213
146.08876,0.55548
145.84769,0.55919
145.60662,0.56498
145.36555,0.57315
145.12448,0.58167
144.88340,0.58857
144.64233,0.59416
144.40126,0.59964
144.16019,0.60456
143.91912,0.60738
143.67805,0.60779
143.43698,0.60627
143.19591,0.60205
142.95484,0.59401
142.71377,0.58326
142.47270,0.57230
142.23163,0.56179
141.99056,0.55066
141.74949,0.53962
141.50842,0.53140
141.26735,0.52702
141.02628,0.52435
140.78521,0.52140
140.54413,0.51838
140.30306,0.51590
140.06199,0.51369
139.82092,0.51238
139.57985,0.51412
139.33878,0.52001
139.09771,0.52831
138.85664,0.53606
138.61557,0.54210
138.37450,0.54767
138.13343,0.55516
137.89236,0.56681
137.65129,0.58347
137.41022,0.60334
137.16915,0.62326
136.92808,0.64213
136.68701,0.66198
136.44594,0.68547
136.20486,0.71340
135.96379,0.74440
135.72272,0.77654
135.48165,0.80977
135.24058,0.84477
134.99951,0.87875
134.75844,0.90895
134.51737,0.94085
134.27630,0.98268
134.03523,1.03159
133.79416,1.07417
133.55309,1.10120
133.31202,1.11619
133.07095,1.12868
132.82988,1.14540
132.58881,1.16696
132.34774,1.18915
132.10667,1.20728
131.86559,1.21647
131.62452,1.21215
131.38345,1.19547
131.14238,1.17345
130.90131,1.15015
130.66024,1.12382
130.41917,1.09241
130.17810,1.05622
129.93703,1.01722
129.69596,0.97617
129.45489,0.93162
129.21382,0.88355
128.97275,0.83623
128.73168,0.79488
128.49061,0.76044
128.24954,0.72948
128.00847,0.69897
127.76740,0.66934
127.52632,0.64251
127.28525,0.61867
127.04418,0.59628
126.80311,0.57456
126.56204,0.55436
126.32097,0.53660
126.07990,0.52116
125.83883,0.50714
125.59776,0.49372
125.35669,0.48081
125.11562,0.46890
124.87455,0.45838
124.63348,0.44972
124.39241,0.44357
124.15134,0.43964
123.91027,0.43602
123.66920,0.43073
123.42812,0.42401
123.18705,0.41781
122.94598,0.41364
122.70491,0.41193
122.46384,0.41272
122.22277,0.41571
121.98170,0.42018
121.74063,0.42548
121.49956,0.43150
121.25849,0.43832
121.01742,0.44590
120.77635,0.45427
120.53528,0.46359
120.29421,0.47388
120.05314,0.48479
119.81207,0.49629
119.57100,0.50967
119.32993,0.52715
119.08885,0.55018
118.84778,0.57877
118.60671,0.61226
118.36564,0.64932
118.12457,0.68728
117.88350,0.72353
117.64243,0.75746
117.40136,0.78877
117.16029,0.81353
116.91922,0.82498
116.67815,0.82000
116.43708,0.80306
116.19601,0.78268
115.95494,0.76446
115.71387,0.74883
115.47280,0.73445
115.23173,0.72208
114.99066,0.71364
114.74958,0.70757
114.50851,0.69799
114.26744,0.68142
114.02637,0.66200
113.78530,0.64697
113.54423,0.63996
113.30316,0.64023
113.06209,0.64557
112.82102,0.65503
112.57995,0.66952
112.33888,0.68900
112.09781,0.70888
111.85674,0.72183
111.61567,0.72463
111.37460,0.72050
111.13353,0.71543
110.89246,0.71510
110.65139,0.72172
110.41031,0.73193
110.16924,0.73912
109.92817,0.73687
109.68710,0.72148
109.44603,0.69509
109.20496,0.66459
108.96389,0.63662
108.72282,0.61489
108.48175,0.59945
108.24068,0.58666
107.99961,0.57199
107.75854,0.55364
107.51747,0.53241
107.27640,0.50938
107.03533,0.48600
106.79426,0.46544
106.55319,0.45054
106.31212,0.44080
106.07104,0.43259
105.82997,0.42139
105.58890,0.40471
105.34783,0.38490
105.10676,0.36803
104.86569,0.35917
104.62462,0.35849
104.38355,0.36111
104.14248,0.36004
103.90141,0.35039
103.66034,0.33340
103.41927,0.31621
103.17820,0.30628
102.93713,0.30635
102.69606,0.31283
102.45499,0.31744
102.21392,0.31347
101.97285,0.30205
101.73177,0.29060
101.49070,0.28540
101.24963,0.28661
101.00856,0.28871
100.76749,0.28612
100.52642,0.27924
100.28535,0.27258
100.04428,0.26900
99.80321,0.26756
99.56214,0.26491
99.32107,0.25958
99.08000,0.25426
98.83893,0.25219
98.59786,0.25305
98.35679,0.25304
98.11572,0.24990
97.87465,0.24733
97.63358,0.25059
97.39250,0.25850
97.15143,0.26362
96.91036,0.26282
96.66929,0.26303
96.42822,0.27135
96.18715,0.28442
95.94608,0.29247
95.70501,0.29408
95.46394,0.29809
95.22287,0.30878
94.98180,0.31952
94.74073,0.32500
94.49966,0.32961
94.25859,0.33670
94.01752,0.34134
93.77645,0.34003
93.53538,0.33801
93.29431,0.34019
93.05323,0.34370
92.81216,0.34429
92.57109,0.34428
92.33002,0.34679
92.08895,0.34954
91.84788,0.35037
91.60681,0.35224
91.36574,0.35752
91.12467,0.36645
90.88360,0.38220
90.64253,0.40810
90.40146,0.44215
90.16039,0.48210
89.91932,0.53018
89.67825,0.58479
89.43718,0.63838
89.19611,0.68759
88.95504,0.73098
88.71396,0.76121
88.47289,0.77066
88.23182,0.75382
87.99075,0.70874
87.74968,0.64732
87.50861,0.58818
87.26754,0.53840
87.02647,0.49339
86.78540,0.44978
86.54433,0.41036
86.30326,0.37912
86.06219,0.35606
85.82112,0.33683
85.58005,0.31673
85.33898,0.29506
85.09791,0.27436
84.85684,0.25655
84.61577,0.24189
84.37469,0.23038
84.13362,0.22167
83.89255,0.21430
83.65148,0.20737
83.41041,0.20179
83.16934,0.19811
82.92827,0.19469
82.68720,0.19043
82.44613,0.18695
82.20506,0.18559
81.96399,0.18501
81.72292,0.18367
81.48185,0.18192
81.24078,0.18055
80.99971,0.17953
80.75864,0.17870
80.51757,0.17792
80.27650,0.17664
80.03542,0.17450
79.79435,0.17218
79.55328,0.17108
79.31221,0.17176
79.07114,0.17313
78.83007,0.17367
78.58900,0.17335
78.34793,0.17353
78.10686,0.17501
77.86579,0.17677
77.62472,0.17653
77.38365,0.17289
77.14258,0.16716
76.90151,0.16251
76.66044,0.16112
76.41937,0.16260
76.17830,0.16490
75.93723,0.16589
75.69615,0.16416
75.45508,0.15922
75.21401,0.15214
74.97294,0.14596
74.73187,0.14402
74.49080,0.14696
74.24973,0.15186
74.00866,0.15515
73.76759,0.15607
73.52652,0.15675
73.28545,0.15908
73.04438,0.16238
72.80331,0.16421
72.56224,0.16265
72.32117,0.15792
72.08010,0.15255
71.83903,0.14998
71.59796,0.15190
71.35688,0.15687
71.11581,0.16251
70.87474,0.16867
70.63367,0.17728
70.39260,0.18980
70.15153,0.20625
69.91046,0.22660
69.66939,0.25082
69.42832,0.27552
69.18725,0.29211
68.94618,0.29219
68.70511,0.27584
68.46404,0.25069
68.22297,0.22433
67.98190,0.20119
67.74083,0.18378
67.49976,0.17302
67.25869,0.16803
67.01761,0.16652
66.77654,0.16521
66.53547,0.16115
66.29440,0.15391
66.05333,0.14568
65.81226,0.13949
65.57119,0.13781
65.33012,0.14205
65.08905,0.15153
64.84798,0.16315
64.60691,0.17357
64.36584,0.18171
64.12477,0.18799
63.88370,0.19159
63.64263,0.19079
63.40156,0.18578
63.16049,0.17934
62.91942,0.17427
62.67834,0.17089
62.43727,0.16799
62.19620,0.16566
61.95513,0.16571
61.71406,0.16899
61.47299,0.17388
61.23192,0.17688
60.99085,0.17440
60.74978,0.16559
60.50871,0.15331
60.26764,0.14035
60.02657,0.12709
59.78550,0.11409
59.54443,0.10408
59.30336,0.09983
59.06229,0.10241
58.82122,0.11192
58.58015,0.12785
58.33907,0.14861
58.09800,0.17164
57.85693,0.19198
57.61586,0.20012
57.37479,0.18859
57.13372,0.16325
56.89265,0.13783
56.65158,0.12173
56.41051,0.11750
56.16944,0.12439
55.92837,0.14038
55.68730,0.16014
55.44623,0.17368
55.20516,0.17274
54.96409,0.15861
54.72302,0.13991
54.48195,0.12581
54.24088,0.12181
53.99980,0.13021
53.75873,0.15215
53.51766,0.18506
53.27659,0.21308
53.03552,0.21111
52.79445,0.18044
52.55338,0.14699
52.31231,0.13122
52.07124,0.14403
51.83017,0.18580
51.58910,0.22676
51.34803,0.21017
51.10696,0.15485
50.86589,0.11640
50.62482,0.11590
50.38375,0.15306
50.14268,0.19716
49.90161,0.18722
49.66053,0.13419
49.41946,0.10069
49.17839,0.11144
48.93732,0.14796
48.69625,0.15816
48.45518,0.13221
48.21411,0.12052
47.97304,0.14396
47.73197,0.16618
47.49090,0.14292
47.24983,0.11218
47.00876,0.11983
46.76769,0.14791
46.52662,0.14911
46.28555,0.13478
46.04448,0.13621
45.80341,0.14383
45.56234,0.14009
45.32126,0.14136
45.08019,0.15768
44.83912,0.16890
44.59805,0.16641
44.35698,0.16544
44.11591,0.16745
43.87484,0.16494
43.63377,0.16023
43.39270,0.15514
43.15163,0.14987
42.91056,0.15179
42.66949,0.16193
42.42842,0.16855
42.18735,0.16626
41.94628,0.16113
41.70521,0.15734
41.46414,0.15650
41.22307,0.16036
40.98199,0.16738
40.74092,0.17376
40.49985,0.17925
40.25878,0.18748
40.01771,0.19977
39.77664,0.21067
39.53557,0.21284
39.29450,0.20666
39.05343,0.20089
38.81236,0.20422
38.57129,0.21786
38.33022,0.23468
38.08915,0.24507
37.84808,0.24600
37.60701,0.24071
37.36594,0.23213
37.12487,0.22548
36.88380,0.22447
36.64272,0.22667
36.40165,0.22933
36.16058,0.22925
35.91951,0.21914
35.67844,0.19749
35.43737,0.17882
35.19630,0.18130
34.95523,0.20485
34.71416,0.22558
34.47309,0.22080
34.23202,0.19424
33.99095,0.16886
33.74988,0.16270
33.50881,0.17544
33.26774,0.19673
33.02667,0.21828
32.78560,0.23477
32.54453,0.24209
32.30345,0.23711
32.06238,0.22111
31.82131,0.20422
31.58024,0.19578
31.33917,0.18902
31.09810,0.16766
30.85703,0.13089
30.61596,0.09731
30.37489,0.08106
30.13382,0.07958
29.89275,0.08197
29.65168,0.07693
29.41061,0.05814
29.16954,0.03033
28.92847,0.00544
28.68740,-0.00891
28.44633,-0.01462
28.20526,-0.01216
27.96418,0.00203
27.72311,0.01912
27.48204,0.02333
27.24097,0.00413
26.99990,-0.03811
26.75883,-0.08535
26.51776,-0.10924
26.27669,-0.10010
26.03562,-0.08027
25.79455,-0.07649
25.55348,-0.09013
25.31241,-0.10829
25.07134,-0.12630
24.83027,-0.14026
24.58920,-0.13901
24.34813,-0.12664
24.10706,-0.13017
23.86599,-0.16635
23.62491,-0.21572
23.38384,-0.24455
23.14277,-0.24223
22.90170,-0.22371
22.66063,-0.20408
22.41956,-0.19413
22.17849,-0.20055
21.93742,-0.21525
21.69635,-0.22433
21.45528,-0.22560
21.21421,-0.22446
20.97314,-0.22514
20.73207,-0.22727
20.49100,-0.22745
20.24993,-0.22377
20.00886,-0.21615
19.76779,-0.20600
19.52672,-0.20974
19.28564,-0.24620
19.04457,-0.30283
18.80350,-0.33885
18.56243,-0.33612
18.32136,-0.32070
18.08029,-0.31739
17.83922,-0.32146
17.59815,-0.30751
17.35708,-0.27248
17.11601,-0.24556
16.87494,-0.24448
16.63387,-0.26575
16.39280,-0.29817
16.15173,-0.33082
15.91066,-0.35092
15.66959,-0.35083
15.42852,-0.34609
15.18745,-0.35817
14.94637,-0.39352
14.70530,-0.43851
14.46423,-0.46559
14.22316,-0.46830
13.98209,-0.44811
13.74102,-0.41099
13.49995,-0.37827
13.25888,-0.36114
13.01781,-0.35336
12.77674,-0.34371
12.53567,-0.33979
12.29460,-0.35391
12.05353,-0.38960
11.81246,-0.44446
11.57139,-0.49624
11.33032,-0.52814
11.08925,-0.54320
10.84818,-0.54238
10.60710,-0.52622
10.36603,-0.49842
10.12496,-0.46642
9.88389,-0.44412
9.64282,-0.44402
9.40175,-0.46904
9.16068,-0.51837
8.91961,-0.55219
8.67854,-0.51574
8.43747,-0.47646
8.19640,-0.47073
7.95533,-0.48595
7.71426,-0.49591
7.47319,-0.48881
7.23212,-0.48181
6.99105,-0.48287
6.74998,-0.46703
6.50891,-0.44283
6.26783,-0.41288
6.02676,-0.39007
5.78569,-0.39674
5.54462,-0.42092
5.30355,-0.42475
5.06248,-0.41812
4.82141,-0.42053
4.58034,-0.43084
4.33927,-0.43963
4.09820,-0.43857
3.85713,-0.42004
3.61606,-0.39269
3.37499,-0.37686
3.13392,-0.37791
2.89285,-0.40495
2.65178,-0.43841
2.41071,-0.44216
2.16964,-0.45741
1.92856,-0.46528
1.68749,-0.44825
1.44642,-0.43284
1.20535,-0.43789
0.96428,-0.46269
0.72321,-0.50503
0.48214,-0.48585
0.24107,-0.40023
-0.00000,-0.06365
