399.69498,1.84263
399.45391,1.78277
399.21284,1.74757
398.97177,1.75500
398.73070,1.80204
398.48963,1.84545
398.24856,1.84316
398.00749,1.81633
397.76642,1.82111
397.52535,1.88099
397.28428,1.96113
397.04321,2.01578
396.80214,1.94005
396.56107,1.81502
396.32000,1.73570
396.07892,1.70087
395.83785,1.71252
395.59678,1.74784
395.35571,1.76196
395.11464,1.77741
394.87357,1.83211
394.63250,1.96095
394.39143,2.12209
394.15036,2.11311
393.90929,1.99120
393.66822,1.95863
393.42715,2.00774
393.18608,2.04184
392.94501,1.98896
392.70394,1.93296
392.46287,1.95666
392.22180,2.06214
391.98073,2.15161
391.73965,2.09205
391.49858,2.01075
391.25751,2.02582
391.01644,2.10124
390.77537,2.14242
390.53430,2.11134
390.29323,1.94544
390.05216,1.79875
389.81109,1.75135
389.57002,1.81110
389.32895,1.94993
389.08788,2.10992
388.84681,2.26323
388.60574,2.27162
388.36467,2.07965
388.12360,2.03345
387.88253,2.10487
387.64146,2.16456
387.40038,2.23937
387.15931,2.15289
386.91824,2.18280
386.67717,2.27209
386.43610,2.03112
386.19503,1.90923
385.95396,1.92838
385.71289,1.95457
385.47182,1.93217
385.23075,2.07517
384.98968,2.41118
384.74861,2.32301
384.50754,2.37927
384.26647,2.58391
384.02540,2.11702
383.78433,1.90468
383.54326,1.85499
383.30219,1.82116
383.06111,1.77319
382.82004,1.76499
382.57897,1.86675
382.33790,2.09824
382.09683,2.27763
381.85576,2.17559
381.61469,1.96249
381.37362,1.91617
381.13255,1.95025
380.89148,1.92406
380.65041,1.95220
380.40934,1.98213
380.16827,2.09387
379.92720,2.06067
379.68613,1.84077
379.44506,1.77748
379.20399,1.84908
378.96292,1.98408
378.72184,2.07370
378.48077,2.10151
378.23970,2.16356
377.99863,2.19399
377.75756,2.11958
377.51649,2.02279
377.27542,1.95027
377.03435,1.89102
376.79328,1.84126
376.55221,1.86039
376.31114,1.94245
376.07007,1.99143
375.82900,1.93225
375.58793,1.85295
375.34686,1.81719
375.10579,1.86752
374.86472,1.95616
374.62365,1.93740
374.38257,1.88355
374.14150,1.87478
373.90043,1.92132
373.65936,2.00538
373.41829,2.07743
373.17722,2.06295
372.93615,1.91711
372.69508,1.78813
372.45401,1.73975
372.21294,1.70770
371.97187,1.66341
371.73080,1.64751
371.48973,1.65497
371.24866,1.64698
371.00759,1.60925
370.76652,1.56544
370.52545,1.53230
370.28437,1.51090
370.04330,1.49638
369.80223,1.48564
369.56116,1.48826
369.32009,1.51615
369.07902,1.56402
368.83795,1.60152
368.59688,1.59764
368.35581,1.55479
368.11474,1.50093
367.87367,1.46259
367.63260,1.44851
367.39153,1.45347
367.15046,1.46606
366.90939,1.48032
366.66832,1.49615
366.42725,1.50816
366.18618,1.50650
365.94510,1.48426
365.70403,1.45221
365.46296,1.42527
365.22189,1.40904
364.98082,1.40555
364.73975,1.41082
364.49868,1.41938
364.25761,1.43095
364.01654,1.44218
363.77547,1.44568
363.53440,1.43948
363.29333,1.43176
363.05226,1.43054
362.81119,1.43219
362.57012,1.43381
362.32905,1.43413
362.08798,1.42937
361.84691,1.42060
361.60583,1.40796
361.36476,1.38411
361.12369,1.35072
360.88262,1.32928
360.64155,1.33760
360.40048,1.36558
360.15941,1.38804
359.91834,1.39370
359.67727,1.38837
359.43620,1.37563
359.19513,1.35791
358.95406,1.34254
358.71299,1.33611
358.47192,1.33778
358.23085,1.33777
357.98978,1.33156
357.74871,1.33033
357.50764,1.35040
357.26656,1.39411
357.02549,1.43750
356.78442,1.44619
356.54335,1.41985
356.30228,1.39710
356.06121,1.40712
355.82014,1.43910
355.57907,1.45664
355.33800,1.44137
355.09693,1.41062
354.85586,1.38421
354.61479,1.36142
354.37372,1.33645
354.13265,1.31869
353.89158,1.31912
353.65051,1.33233
353.40944,1.34652
353.16837,1.35235
352.92729,1.34422
352.68622,1.33092
352.44515,1.33399
352.20408,1.36540
351.96301,1.40657
351.72194,1.41760
351.48087,1.38785
351.23980,1.35229
350.99873,1.34111
350.75766,1.34744
350.51659,1.34792
350.27552,1.34092
350.03445,1.34374
349.79338,1.36141
349.55231,1.38473
349.31124,1.40780
349.07017,1.42848
348.82910,1.43908
348.58802,1.42976
348.34695,1.40890
348.10588,1.39679
347.86481,1.39547
347.62374,1.39614
347.38267,1.40121
347.14160,1.41508
346.90053,1.42682
346.65946,1.42735
346.41839,1.42860
346.17732,1.43456
345.93625,1.43326
345.69518,1.42611
345.45411,1.43531
345.21304,1.47792
344.97197,1.53282
344.73090,1.55213
344.48983,1.53083
344.24875,1.51762
344.00768,1.53539
343.76661,1.54619
343.52554,1.51610
343.28447,1.47596
343.04340,1.45841
342.80233,1.45678
342.56126,1.45426
342.32019,1.45856
342.07912,1.49243
341.83805,1.55787
341.59698,1.63149
341.35591,1.70039
341.11484,1.76199
340.87377,1.79670
340.63270,1.80123
340.39163,1.78148
340.15056,1.74400
339.90948,1.69627
339.66841,1.65243
339.42734,1.63329
339.18627,1.65213
338.94520,1.70518
338.70413,1.77779
338.46306,1.86395
338.22199,1.91541
337.98092,1.90915
337.73985,1.92489
337.49878,1.98503
337.25771,2.11134
337.01664,2.20727
336.77557,2.16459
336.53450,2.05516
336.29343,1.96992
336.05236,1.95370
335.81129,2.01970
335.57021,2.12500
335.32914,2.24795
335.08807,2.36080
334.84700,2.21895
334.60593,2.06150
334.36486,1.93342
334.12379,1.91274
333.88272,1.95446
333.64165,1.94936
333.40058,1.91863
333.15951,1.89748
332.91844,1.87438
332.67737,1.80487
332.43630,1.73528
332.19523,1.70013
331.95416,1.68714
331.71309,1.65751
331.47202,1.61901
331.23094,1.61338
330.98987,1.65924
330.74880,1.72678
330.50773,1.74177
330.26666,1.68199
330.02559,1.60654
329.78452,1.54979
329.54345,1.53336
329.30238,1.58190
329.06131,1.69082
328.82024,1.78735
328.57917,1.77590
328.33810,1.68704
328.09703,1.62498
327.85596,1.61619
327.61489,1.62085
327.37382,1.60376
327.13275,1.57626
326.89167,1.56652
326.65060,1.58859
326.40953,1.63084
326.16846,1.66393
325.92739,1.66777
325.68632,1.64726
325.44525,1.61696
325.20418,1.59767
324.96311,1.59908
324.72204,1.60194
324.48097,1.59471
324.23990,1.60274
323.99883,1.64097
323.75776,1.69300
323.51669,1.74698
323.27562,1.84193
323.03455,1.96286
322.79348,1.97467
322.55240,1.85257
322.31133,1.73717
322.07026,1.68220
321.82919,1.70366
321.58812,1.83801
321.34705,2.09219
321.10598,2.26023
320.86491,2.16781
320.62384,2.03896
320.38277,1.99774
320.14170,2.00069
319.90063,2.00259
319.65956,2.00772
319.41849,1.93365
319.17742,1.93461
318.93635,2.05896
318.69528,2.01654
318.45421,1.85039
318.21313,1.77737
317.97206,1.81745
317.73099,1.92395
317.48992,1.99799
317.24885,1.97372
317.00778,1.93555
316.76671,1.94134
316.52564,1.95344
316.28457,1.92651
316.04350,1.87374
315.80243,1.86717
315.56136,1.98779
315.32029,2.08218
315.07922,2.02715
314.83815,2.02690
314.59708,2.11173
314.35601,2.25388
314.11494,2.31730
313.87386,2.21537
313.63279,2.13672
313.39172,2.15731
313.15065,2.05676
312.90958,1.97212
312.66851,1.97836
312.42744,2.08727
312.18637,2.25009
311.94530,2.43548
311.70423,2.69932
311.46316,2.64557
311.22209,2.30011
310.98102,2.20306
310.73995,2.28667
310.49888,2.30064
310.25781,2.21185
310.01674,2.14947
309.77567,2.10295
309.53459,2.06489
309.29352,2.07075
309.05245,2.10457
308.81138,2.08753
308.57031,2.00905
308.32924,1.86777
308.08817,1.75338
307.84710,1.74291
307.60603,1.82331
307.36496,1.88414
307.12389,1.88622
306.88282,1.91893
306.64175,2.03226
306.40068,2.20530
306.15961,2.22768
305.91854,2.01361
305.67747,1.81650
305.43640,1.69544
305.19532,1.64366
304.95425,1.65057
304.71318,1.68514
304.47211,1.70069
304.23104,1.67631
303.98997,1.62938
303.74890,1.58239
303.50783,1.55279
303.26676,1.54765
303.02569,1.56036
302.78462,1.56601
302.54355,1.53988
302.30248,1.49634
302.06141,1.46623
301.82034,1.45822
301.57927,1.46323
301.33820,1.46943
301.09713,1.46840
300.85605,1.45095
300.61498,1.41538
300.37391,1.38072
300.13284,1.36580
299.89177,1.36321
299.65070,1.34786
299.40963,1.31269
299.16856,1.27735
298.92749,1.25967
298.68642,1.25864
298.44535,1.26128
298.20428,1.25938
297.96321,1.25683
297.72214,1.25676
297.48107,1.25486
297.24000,1.24877
296.99893,1.23801
296.75786,1.21863
296.51678,1.19010
296.27571,1.16305
296.03464,1.15205
295.79357,1.15844
295.55250,1.16877
295.31143,1.17143
295.07036,1.16685
294.82929,1.16062
294.58822,1.15516
294.34715,1.14885
294.10608,1.14058
293.86501,1.13406
293.62394,1.13387
293.38287,1.13813
293.14180,1.14032
292.90073,1.13624
292.65966,1.12603
292.41859,1.11417
292.17751,1.10674
291.93644,1.10484
291.69537,1.10364
291.45430,1.10128
291.21323,1.10243
290.97216,1.10896
290.73109,1.11381
290.49002,1.10875
290.24895,1.09419
290.00788,1.07756
289.76681,1.06675
289.52574,1.06555
289.28467,1.07093
289.04360,1.07511
288.80253,1.07245
288.56146,1.06464
288.32039,1.05858
288.07932,1.06027
287.83824,1.06859
287.59717,1.07400
287.35610,1.06900
287.11503,1.05912
286.87396,1.05562
286.63289,1.06113
286.39182,1.06902
286.15075,1.07298
285.90968,1.07253
285.66861,1.07114
285.42754,1.07148
285.18647,1.07171
284.94540,1.06831
284.70433,1.06131
284.46326,1.05421
284.22219,1.04911
283.98112,1.04522
283.74005,1.04213
283.49897,1.04008
283.25790,1.03744
283.01683,1.03096
282.77576,1.01940
282.53469,1.00711
282.29362,1.00149
282.05255,1.00560
281.81148,1.01527
281.57041,1.02506
281.32934,1.03281
281.08827,1.03658
280.84720,1.03388
280.60613,1.02651
280.36506,1.01983
280.12399,1.01587
279.88292,1.01126
279.64185,1.00395
279.40078,0.99846
279.15970,1.00048
278.91863,1.00971
278.67756,1.02083
278.43649,1.02853
278.19542,1.03014
277.95435,1.02599
277.71328,1.01926
277.47221,1.01487
277.23114,1.01508
276.99007,1.01668
276.74900,1.01525
276.50793,1.01222
276.26686,1.01339
276.02579,1.01957
275.78472,1.02479
275.54365,1.02502
275.30258,1.02249
275.06151,1.02041
274.82043,1.01833
274.57936,1.01585
274.33829,1.01484
274.09722,1.01640
273.85615,1.02008
273.61508,1.02549
273.37401,1.03204
273.13294,1.03763
272.89187,1.03922
272.65080,1.03673
272.40973,1.03462
272.16866,1.03611
271.92759,1.03800
271.68652,1.03626
271.44545,1.03396
271.20438,1.03755
270.96331,1.04736
270.72224,1.05770
270.48116,1.06379
270.24009,1.06430
269.99902,1.05976
269.75795,1.05258
269.51688,1.04754
269.27581,1.04928
269.03474,1.05927
268.79367,1.07432
268.55260,1.08749
268.31153,1.09398
268.07046,1.09627
267.82939,1.10033
267.58832,1.10775
267.34725,1.11461
267.10618,1.11600
266.86511,1.11064
266.62404,1.10434
266.38297,1.10755
266.14189,1.12439
265.90082,1.14450
265.65975,1.15263
265.41868,1.14767
265.17761,1.14216
264.93654,1.14550
264.69547,1.15546
264.45440,1.16367
264.21333,1.16698
263.97226,1.17189
263.73119,1.18463
263.49012,1.19999
263.24905,1.20914
263.00798,1.21502
262.76691,1.22742
262.52584,1.24863
262.28477,1.26945
262.04370,1.27775
261.80262,1.27281
261.56155,1.26789
261.32048,1.27740
261.07941,1.30547
260.83834,1.34432
260.59727,1.37930
260.35620,1.39794
260.11513,1.39995
259.87406,1.39753
259.63299,1.40591
259.39192,1.43048
259.15085,1.46079
258.90978,1.48424
258.66871,1.50379
258.42764,1.53035
258.18657,1.56805
257.94550,1.61128
257.70443,1.65615
257.46335,1.71186
257.22228,1.78796
256.98121,1.87158
256.74014,1.91730
256.49907,1.89906
256.25800,1.85361
256.01693,1.82423
255.77586,1.82605
255.53479,1.83988
255.29372,1.83783
255.05265,1.82905
254.81158,1.84428
254.57051,1.90263
254.32944,1.99800
254.08837,2.08863
253.84730,2.07447
253.60623,2.01553
253.36516,2.02719
253.12408,2.12591
252.88301,2.31879
252.64194,2.38618
252.40087,2.28273
252.15980,2.32079
251.91873,2.55558
251.67766,2.56560
251.43659,2.38640
251.19552,2.20941
250.95445,2.06535
250.71338,2.02743
250.47231,2.07326
250.23124,2.09609
249.99017,2.08289
249.74910,2.11664
249.50803,2.22848
249.26696,2.41596
249.02589,2.58348
248.78481,2.54955
248.54374,2.34061
248.30267,2.20291
248.06160,2.22046
247.82053,2.38784
247.57946,2.65308
247.33839,2.68862
247.09732,2.51641
246.85625,2.35852
246.61518,2.26598
246.37411,2.25314
246.13304,2.27992
245.89197,2.20650
245.65090,2.04038
245.40983,1.93379
245.16876,1.94601
244.92769,2.03694
244.68661,2.05749
244.44554,1.93099
244.20447,1.78304
243.96340,1.67690
243.72233,1.61565
243.48126,1.58258
243.24019,1.55026
242.99912,1.49931
242.75805,1.43336
242.51698,1.36964
242.27591,1.32233
242.03484,1.29552
241.79377,1.28191
241.55270,1.26678
241.31163,1.23905
241.07056,1.20004
240.82949,1.15864
240.58842,1.11939
240.34734,1.08089
240.10627,1.04286
239.86520,1.00773
239.62413,0.97712
239.38306,0.95108
239.14199,0.92949
238.90092,0.91272
238.65985,0.89957
238.41878,0.88579
238.17771,0.86796
237.93664,0.84803
237.69557,0.83088
237.45450,0.81871
237.21343,0.80999
236.97236,0.80154
236.73129,0.79043
236.49022,0.77674
236.24915,0.76480
236.00807,0.75870
235.76700,0.75656
235.52593,0.75252
235.28486,0.74427
235.04379,0.73476
234.80272,0.72697
234.56165,0.72142
234.32058,0.71819
234.07951,0.71702
233.83844,0.71599
233.59737,0.71342
233.35630,0.71042
233.11523,0.70886
232.87416,0.70856
232.63309,0.70785
232.39202,0.70536
232.15095,0.70063
231.90988,0.69442
231.66880,0.68805
231.42773,0.68255
231.18666,0.67971
230.94559,0.68172
230.70452,0.68757
230.46345,0.69278
230.22238,0.69436
229.98131,0.69268
229.74024,0.68799
229.49917,0.68066
229.25810,0.67443
229.01703,0.67316
228.77596,0.67487
228.53489,0.67408
228.29382,0.66994
228.05275,0.66740
227.81168,0.67035
227.57061,0.67726
227.32953,0.68343
227.08846,0.68590
226.84739,0.68571
226.60632,0.68547
226.36525,0.68516
226.12418,0.68240
225.88311,0.67756
225.64204,0.67478
225.40097,0.67696
225.15990,0.68261
224.91883,0.68733
224.67776,0.68766
224.43669,0.68472
224.19562,0.68331
223.95455,0.68612
223.71348,0.69091
223.47241,0.69494
223.23134,0.69912
222.99026,0.70567
222.74919,0.71411
222.50812,0.72164
222.26705,0.72651
222.02598,0.73003
221.78491,0.73450
221.54384,0.73972
221.30277,0.74384
221.06170,0.74739
220.82063,0.75300
220.57956,0.76204
220.33849,0.77362
220.09742,0.78581
219.85635,0.79689
219.61528,0.80593
219.37421,0.81288
219.13314,0.81864
218.89207,0.82526
218.65099,0.83476
218.40992,0.84671
218.16885,0.85898
217.92778,0.87136
217.68671,0.88491
217.44564,0.89825
217.20457,0.90927
216.96350,0.91995
216.72243,0.93353
216.48136,0.94835
216.24029,0.96033
215.99922,0.96968
215.75815,0.97992
215.51708,0.99201
215.27601,1.00333
215.03494,1.01226
214.79387,1.02114
214.55280,1.03333
214.31172,1.04851
214.07065,1.06312
213.82958,1.07466
213.58851,1.08381
213.34744,1.09105
213.10637,1.09401
212.86530,1.09112
212.62423,1.08541
212.38316,1.08171
212.14209,1.08278
211.90102,1.08963
211.65995,1.10169
211.41888,1.11487
211.17781,1.12302
210.93674,1.12308
210.69567,1.11846
210.45460,1.11480
210.21353,1.11364
209.97245,1.11341
209.73138,1.11305
209.49031,1.11287
209.24924,1.11592
209.00817,1.12717
208.76710,1.14517
208.52603,1.15689
208.28496,1.15065
208.04389,1.13106
207.80282,1.11133
207.56175,1.09736
207.32068,1.08744
207.07961,1.08014
206.83854,1.07458
206.59747,1.06749
206.35640,1.05686
206.11533,1.04537
205.87426,1.03568
205.63318,1.02649
205.39211,1.01576
205.15104,1.00424
204.90997,0.99412
204.66890,0.98565
204.42783,0.97694
204.18676,0.96625
203.94569,0.95370
203.70462,0.94121
203.46355,0.93049
203.22248,0.92161
202.98141,0.91332
202.74034,0.90394
202.49927,0.89221
202.25820,0.87807
202.01713,0.86278
201.77606,0.84759
201.53499,0.83223
201.29391,0.81544
201.05284,0.79792
200.81177,0.78308
200.57070,0.77307
200.32963,0.76554
200.08856,0.75594
199.84749,0.74193
199.60642,0.72485
199.36535,0.70780
199.12428,0.69341
198.88321,0.68263
198.64214,0.67471
198.40107,0.66795
198.16000,0.66077
197.91893,0.65300
197.67786,0.64564
197.43679,0.63882
197.19572,0.63139
196.95464,0.62288
196.71357,0.61439
196.47250,0.60712
196.23143,0.60102
195.99036,0.59519
195.74929,0.58901
195.50822,0.58222
195.26715,0.57447
195.02608,0.56591
194.78501,0.55808
194.54394,0.55297
194.30287,0.55090
194.06180,0.55003
193.82073,0.54810
193.57966,0.54432
193.33859,0.53917
193.09752,0.53267
192.85645,0.52418
192.61537,0.51467
192.37430,0.50757
192.13323,0.50548
191.89216,0.50691
191.65109,0.50771
191.41002,0.50552
191.16895,0.50201
190.92788,0.49965
190.68681,0.49791
190.44574,0.49466
190.20467,0.49033
189.96360,0.48750
189.72253,0.48671
189.48146,0.48556
189.24039,0.48233
188.99932,0.47833
188.75825,0.47605
188.51718,0.47577
188.27610,0.47520
188.03503,0.47250
187.79396,0.46879
187.55289,0.46675
187.31182,0.46770
187.07075,0.47071
186.82968,0.47393
186.58861,0.47603
186.34754,0.47692
186.10647,0.47716
185.86540,0.47709
185.62433,0.47674
185.38326,0.47623
185.14219,0.47531
184.90112,0.47335
184.66005,0.47066
184.41898,0.46932
184.17791,0.47144
183.93683,0.47688
183.69576,0.48341
183.45469,0.48899
183.21362,0.49300
182.97255,0.49510
182.73148,0.49426
182.49041,0.49055
182.24934,0.48658
182.00827,0.48542
181.76720,0.48765
181.52613,0.49131
181.28506,0.49426
181.04399,0.49612
180.80292,0.49812
180.56185,0.50144
180.32078,0.50572
180.07971,0.50968
179.83864,0.51324
179.59756,0.51762
179.35649,0.52287
179.11542,0.52744
178.87435,0.53049
178.63328,0.53297
178.39221,0.53638
178.15114,0.54215
177.91007,0.55165
177.66900,0.56510
177.42793,0.58084
177.18686,0.59621
176.94579,0.60947
176.70472,0.62118
176.46365,0.63372
176.22258,0.64911
175.98151,0.66699
175.74044,0.68547
175.49937,0.70411
175.25829,0.72353
175.01722,0.74262
174.77615,0.76005
174.53508,0.77827
174.29401,0.80028
174.05294,0.82327
173.81187,0.84158
173.57080,0.85515
173.32973,0.86820
173.08866,0.88171
172.84759,0.89292
172.60652,0.90021
172.36545,0.90434
172.12438,0.90647
171.88331,0.90737
171.64224,0.90822
171.40117,0.90932
171.16010,0.90893
170.91902,0.90632
170.67795,0.90396
170.43688,0.90342
170.19581,0.90175
169.95474,0.89505
169.71367,0.88307
169.47260,0.86881
169.23153,0.85703
168.99046,0.85175
168.74939,0.85182
168.50832,0.85189
168.26725,0.84937
168.02618,0.84621
167.78511,0.84408
167.54404,0.84344
167.30297,0.84523
167.06190,0.84794
166.82083,0.84668
166.57975,0.84023
166.33868,0.83519
166.09761,0.83811
165.85654,0.84747
165.61547,0.85688
165.37440,0.86329
165.13333,0.86838
164.89226,0.87436
164.65119,0.88208
164.41012,0.89167
164.16905,0.90229
163.92798,0.91334
163.68691,0.92750
163.44584,0.94915
163.20477,0.97835
162.96370,1.00799
162.72263,1.02841
162.48156,1.03468
162.24048,1.02996
161.99941,1.02226
161.75834,1.01611
161.51727,1.00941
161.27620,1.00045
161.03513,0.99335
160.79406,0.99329
160.55299,0.99910
160.31192,1.00397
160.07085,1.00323
159.82978,0.99717
159.58871,0.98735
159.34764,0.97526
159.10657,0.96446
158.86550,0.95940
158.62443,0.95919
158.38336,0.95940
158.14229,0.95741
157.90121,0.95249
157.66014,0.94667
157.41907,0.94416
157.17800,0.94653
156.93693,0.95011
156.69586,0.94993
156.45479,0.94451
156.21372,0.93552
155.97265,0.92515
155.73158,0.91527
155.49051,0.90637
155.24944,0.89602
155.00837,0.88201
154.76730,0.86593
154.52623,0.84979
154.28516,0.83261
154.04409,0.81414
153.80302,0.79730
153.56194,0.78363
153.32087,0.77036
153.07980,0.75445
152.83873,0.73673
152.59766,0.72055
152.35659,0.70744
152.11552,0.69545
151.87445,0.68248
151.63338,0.66898
151.39231,0.65568
151.15124,0.64140
150.91017,0.62534
150.66910,0.60903
150.42803,0.59408
150.18696,0.58042
149.94589,0.56788
149.70482,0.55698
149.46375,0.54735
149.22267,0.53759
148.98160,0.52703
148.74053,0.51670
148.49946,0.50818
148.25839,0.50234
148.01732,0.49855
147.77625,0.49469
147.53518,0.48886
147.29411,0.48196
147.05304,0.47748
146.81197,0.47791
146.57090,0.48171
146.32983,0.48473
146.08876,0.48507
145.84769,0.48562
145.60662,0.49056
145.36555,0.50050
145.12448,0.51207
144.88340,0.52184
144.64233,0.52920
144.40126,0.53483
144.16019,0.53804
143.91912,0.53785
143.67805,0.53515
143.43698,0.53155
143.19591,0.52740
142.95484,0.52244
142.71377,0.51665
142.47270,0.50948
142.23163,0.50050
141.99056,0.49093
141.74949,0.48218
141.50842,0.47356
141.26735,0.46392
141.02628,0.45420
140.78521,0.44659
140.54413,0.44277
140.30306,0.44335
140.06199,0.44707
139.82092,0.45077
139.57985,0.45197
139.33878,0.45124
139.09771,0.45129
138.85664,0.45435
138.61557,0.46071
138.37450,0.46966
138.13343,0.48117
137.89236,0.49576
137.65129,0.51296
137.41022,0.53105
137.16915,0.54862
136.92808,0.56592
136.68701,0.58425
136.44594,0.60414
136.20486,0.62495
135.96379,0.64666
135.72272,0.67103
135.48165,0.69916
135.24058,0.72850
134.99951,0.75510
134.75844,0.77978
134.51737,0.80769
134.27630,0.83887
134.03523,0.86511
133.79416,0.88139
133.55309,0.89456
133.31202,0.91355
133.07095,0.93771
132.82988,0.96027
132.58881,0.97716
132.34774,0.98838
132.10667,0.99460
131.86559,0.99743
131.62452,0.99899
131.38345,0.99702
131.14238,0.98583
130.90131,0.96529
130.66024,0.94149
130.41917,0.91592
130.17810,0.88430
129.93703,0.84727
129.69596,0.81112
129.45489,0.77847
129.21382,0.74684
128.97275,0.71484
128.73168,0.68363
128.49061,0.65362
128.24954,0.62380
128.00847,0.59438
127.76740,0.56761
127.52632,0.54497
127.28525,0.52507
127.04418,0.50555
126.80311,0.48590
126.56204,0.46741
126.32097,0.45213
126.07990,0.44143
125.83883,0.43372
125.59776,0.42506
125.35669,0.41350
125.11562,0.40096
124.87455,0.39004
124.63348,0.38120
124.39241,0.37361
124.15134,0.36658
123.91027,0.35974
123.66920,0.35329
123.42812,0.34788
123.18705,0.34395
122.94598,0.34138
122.70491,0.33977
122.46384,0.33906
122.22277,0.33957
121.98170,0.34193
121.74063,0.34663
121.49956,0.35342
121.25849,0.36108
121.01742,0.36829
120.77635,0.37462
120.53528,0.38057
120.29421,0.38696
120.05314,0.39480
119.81207,0.40557
119.57100,0.42098
119.32993,0.44186
119.08885,0.46745
118.84778,0.49531
118.60671,0.52234
118.36564,0.54634
118.12457,0.56781
117.88350,0.59018
117.64243,0.61533
117.40136,0.63851
117.16029,0.65217
116.91922,0.65575
116.67815,0.65549
116.43708,0.65536
116.19601,0.65381
115.95494,0.64795
115.71387,0.63679
115.47280,0.62151
115.23173,0.60489
114.99066,0.58950
114.74958,0.57619
114.50851,0.56539
114.26744,0.55818
114.02637,0.55401
113.78530,0.54998
113.54423,0.54502
113.30316,0.54188
113.06209,0.54282
112.82102,0.54622
112.57995,0.54972
112.33888,0.55369
112.09781,0.55987
111.85674,0.56866
111.61567,0.57908
111.37460,0.58958
111.13353,0.59784
110.89246,0.60148
110.65139,0.59990
110.41031,0.59453
110.16924,0.58749
109.92817,0.58048
109.68710,0.57377
109.44603,0.56538
109.20496,0.55219
108.96389,0.53318
108.72282,0.51059
108.48175,0.48791
108.24068,0.46750
107.99961,0.44971
107.75854,0.43334
107.51747,0.41706
107.27640,0.40032
107.03533,0.38353
106.79426,0.36758
106.55319,0.35328
106.31212,0.34103
106.07104,0.33058
105.82997,0.32071
105.58890,0.30999
105.34783,0.29832
105.10676,0.28667
104.86569,0.27558
104.62462,0.26513
104.38355,0.25609
104.14248,0.24954
103.90141,0.24560
103.66034,0.24323
103.41927,0.24123
103.17820,0.23853
102.93713,0.23415
102.69606,0.22790
102.45499,0.22128
102.21392,0.21630
101.97285,0.21336
101.73177,0.21115
101.49070,0.20861
101.24963,0.20609
101.00856,0.20449
100.76749,0.20360
100.52642,0.20171
100.28535,0.19775
100.04428,0.19308
99.80321,0.18958
99.56214,0.18725
99.32107,0.18536
99.08000,0.18401
98.83893,0.18338
98.59786,0.18310
98.35679,0.18274
98.11572,0.18189
97.87465,0.18036
97.63358,0.17914
97.39250,0.18017
97.15143,0.18435
96.91036,0.19070
96.66929,0.19738
96.42822,0.20325
96.18715,0.20842
95.94608,0.21389
95.70501,0.22019
95.46394,0.22646
95.22287,0.23175
94.98180,0.23710
94.74073,0.24420
94.49966,0.25187
94.25859,0.25631
94.01752,0.25606
93.77645,0.25402
93.53538,0.25345
93.29431,0.25502
93.05323,0.25822
92.81216,0.26267
92.57109,0.26758
92.33002,0.27195
92.08895,0.27561
91.84788,0.27855
91.60681,0.28041
91.36574,0.28300
91.12467,0.29142
90.88360,0.30993
90.64253,0.33744
90.40146,0.36939
90.16039,0.40274
89.91932,0.43666
89.67825,0.47064
89.43718,0.50455
89.19611,0.53818
88.95504,0.56802
88.71396,0.58671
88.47289,0.58847
88.23182,0.57305
87.99075,0.54388
87.74968,0.50585
87.50861,0.46514
87.26754,0.42730
87.02647,0.39403
86.78540,0.36359
86.54433,0.33454
86.30326,0.30749
86.06219,0.28370
85.82112,0.26356
85.58005,0.24632
85.33898,0.23068
85.09791,0.21590
84.85684,0.20183
84.61577,0.18805
84.37469,0.17408
84.13362,0.16036
83.89255,0.14849
83.65148,0.13998
83.41041,0.13471
83.16934,0.13066
82.92827,0.12609
82.68720,0.12177
82.44613,0.11955
82.20506,0.11919
81.96399,0.11865
81.72292,0.11673
81.48185,0.11391
81.24078,0.11140
80.99971,0.11042
80.75864,0.11140
80.51757,0.11314
80.27650,0.11358
80.03542,0.11187
79.79435,0.10910
79.55328,0.10694
79.31221,0.10618
79.07114,0.10626
78.83007,0.10556
78.58900,0.10249
78.34793,0.09727
78.10686,0.09227
77.86579,0.08986
77.62472,0.09021
77.38365,0.09157
77.14258,0.09213
76.90151,0.09130
76.66044,0.08972
76.41937,0.08815
76.17830,0.08659
75.93723,0.08474
75.69615,0.08283
75.45508,0.08146
75.21401,0.08127
74.97294,0.08243
74.73187,0.08385
74.49080,0.08364
74.24973,0.08119
74.00866,0.07802
73.76759,0.07625
73.52652,0.07669
73.28545,0.07860
73.04438,0.08068
72.80331,0.08221
72.56224,0.08325
72.32117,0.08407
72.08010,0.08491
71.83903,0.08597
71.59796,0.08764
71.35688,0.09093
71.11581,0.09676
70.87474,0.10432
70.63367,0.11173
70.39260,0.11868
70.15153,0.12674
69.91046,0.13733
69.66939,0.15030
69.42832,0.16371
69.18725,0.17421
68.94618,0.17869
68.70511,0.17577
68.46404,0.16542
68.22297,0.14858
67.98190,0.12853
67.74083,0.11076
67.49976,0.09966
67.25869,0.09527
67.01761,0.09330
66.77654,0.08897
66.53547,0.08158
66.29440,0.07458
66.05333,0.07139
65.81226,0.07246
65.57119,0.07587
65.33012,0.07943
65.08905,0.08231
64.84798,0.08539
64.60691,0.09002
64.36584,0.09633
64.12477,0.10262
63.88370,0.10681
63.64263,0.10841
63.40156,0.10823
63.16049,0.10584
62.91942,0.09886
62.67834,0.08675
62.43727,0.07418
62.19620,0.06767
61.95513,0.06890
61.71406,0.07353
61.47299,0.07602
61.23192,0.07426
60.99085,0.07038
60.74978,0.06804
60.50871,0.06865
60.26764,0.07057
60.02657,0.07244
59.78550,0.07527
59.54443,0.07912
59.30336,0.08075
59.06229,0.07801
58.82122,0.07360
58.58015,0.07071
58.33907,0.06856
58.09800,0.06501
57.85693,0.06045
57.61586,0.05755
57.37479,0.05844
57.13372,0.06240
56.89265,0.06626
56.65158,0.06733
56.41051,0.06592
56.16944,0.06411
55.92837,0.06271
55.68730,0.06086
55.44623,0.05843
55.20516,0.05677
54.96409,0.05599
54.72302,0.05369
54.48195,0.04924
54.24088,0.04716
53.99980,0.05204
53.75873,0.06123
53.51766,0.06718
53.27659,0.06614
53.03552,0.06104
52.79445,0.05652
52.55338,0.05431
52.31231,0.05334
52.07124,0.05240
51.83017,0.05166
51.58910,0.05129
51.34803,0.05041
51.10696,0.04847
50.86589,0.04650
50.62482,0.04546
50.38375,0.04466
50.14268,0.04332
49.90161,0.04221
49.66053,0.04207
49.41946,0.04246
49.17839,0.04382
48.93732,0.04708
48.69625,0.05031
48.45518,0.04937
48.21411,0.04324
47.97304,0.03683
47.73197,0.03636
47.49090,0.04223
47.24983,0.04920
47.00876,0.05238
46.76769,0.05102
46.52662,0.04725
46.28555,0.04272
46.04448,0.03783
45.80341,0.03410
45.56234,0.03513
45.32126,0.04229
45.08019,0.04996
44.83912,0.05063
44.59805,0.04504
44.35698,0.04041
44.11591,0.03922
43.87484,0.03585
43.63377,0.02579
43.39270,0.01461
43.15163,0.01399
42.91056,0.02787
42.66949,0.04466
42.42842,0.05039
42.18735,0.04608
41.94628,0.04234
41.70521,0.04288
41.46414,0.04218
41.22307,0.03656
40.98199,0.03169
40.74092,0.03616
40.49985,0.04904
40.25878,0.05793
40.01771,0.05400
39.77664,0.04616
39.53557,0.04893
39.29450,0.06011
39.05343,0.06642
38.81236,0.06707
38.57129,0.07442
38.33022,0.09340
38.08915,0.11213
37.84808,0.11571
37.60701,0.10487
37.36594,0.09234
37.12487,0.08463
36.88380,0.08017
36.64272,0.08070
36.40165,0.08856
36.16058,0.09666
35.91951,0.09450
35.67844,0.08190
35.43737,0.06920
35.19630,0.06369
34.95523,0.06299
34.71416,0.06152
34.47309,0.05577
34.23202,0.05052
33.99095,0.06130
33.74988,0.09752
33.50881,0.14771
33.26774,0.18814
33.02667,0.20232
32.78560,0.19159
32.54453,0.16639
32.30345,0.13418
32.06238,0.10541
31.82131,0.09500
31.58024,0.10392
31.33917,0.11354
31.09810,0.10854
30.85703,0.09759
30.61596,0.09757
30.37489,0.09739
30.13382,0.06828
29.89275,0.01480
29.65168,-0.01650
29.41061,0.01171
29.16954,0.08373
28.92847,0.14938
28.68740,0.17785
28.44633,0.18145
28.20526,0.18942
27.96418,0.21580
27.72311,0.25176
27.48204,0.26604
27.24097,0.23416
26.99990,0.17661
26.75883,0.12853
26.51776,0.10995
26.27669,0.12232
26.03562,0.15408
25.79455,0.19393
25.55348,0.23811
25.31241,0.28328
25.07134,0.31075
24.83027,0.30352
24.58920,0.28501
24.34813,0.29549
24.10706,0.33913
23.86599,0.38829
23.62491,0.42554
23.38384,0.44923
23.14277,0.47296
22.90170,0.53439
22.66063,0.56939
22.41956,0.53571
22.17849,0.49339
21.93742,0.47238
21.69635,0.47577
21.45528,0.48892
21.21421,0.50708
20.97314,0.51106
20.73207,0.48536
20.49100,0.45233
20.24993,0.45117
20.00886,0.50122
19.76779,0.60912
19.52672,0.62546
19.28564,0.55552
19.04457,0.51312
18.80350,0.52484
18.56243,0.57482
18.32136,0.47781
18.08029,0.41824
17.83922,0.44490
17.59815,0.51455
17.35708,0.53198
17.11601,0.52745
16.87494,0.54266
16.63387,0.58084
16.39280,0.59203
16.15173,0.62373
15.91066,0.74975
15.66959,0.78740
15.42852,0.65188
15.18745,0.69091
14.94637,1.01040
14.70530,1.07756
14.46423,0.75398
14.22316,0.68827
13.98209,0.80060
13.74102,0.80658
13.49995,0.87779
13.25888,0.95808
13.01781,1.02207
12.77674,1.27174
12.53567,1.49393
12.29460,1.14042
12.05353,0.93703
11.81246,0.91170
11.57139,0.91702
11.33032,0.80209
11.08925,0.68330
10.84818,0.70716
10.60710,0.96193
10.36603,1.39923
10.12496,1.25721
9.88389,0.98119
9.64282,0.92055
9.40175,0.75357
9.16068,0.63805
8.91961,0.60355
8.67854,0.57349
8.43747,0.54223
8.19640,0.56619
7.95533,0.66550
7.71426,0.86270
7.47319,0.94445
7.23212,0.92384
6.99105,0.98444
6.74998,1.09403
6.50891,1.04909
6.26783,0.90938
6.02676,0.74800
5.78569,0.57309
5.54462,0.45313
5.30355,0.42625
5.06248,0.47019
4.82141,0.51322
4.58034,0.57315
4.33927,0.73336
4.09820,0.80785
3.85713,0.74651
3.61606,0.64552
3.37499,0.60693
3.13392,0.64214
2.89285,0.64957
2.65178,0.62086
2.41071,0.68340
2.16964,0.90097
1.92856,0.89589
1.68749,0.65433
1.44642,0.55388
1.20535,0.64584
0.96428,0.85058
0.72321,0.94748
0.48214,0.95585
0.24107,0.94059
-0.00000,0.44198
