399.69498,1.49709
399.45391,1.50264
399.21284,1.51024
398.97177,1.51985
398.73070,1.53171
398.48963,1.54439
398.24856,1.55644
398.00749,1.56846
397.76642,1.57926
397.52535,1.58405
397.28428,1.58035
397.04321,1.57286
396.80214,1.56738
396.56107,1.56360
396.32000,1.55831
396.07892,1.55048
395.83785,1.54207
395.59678,1.53498
395.35571,1.52888
395.11464,1.52472
394.87357,1.52650
394.63250,1.53551
394.39143,1.54638
394.15036,1.55160
393.90929,1.54619
393.66822,1.53009
393.42715,1.51084
393.18608,1.49900
392.94501,1.49832
392.70394,1.50271
392.46287,1.50245
392.22180,1.49598
391.98073,1.49522
391.73965,1.51272
391.49858,1.54323
391.25751,1.56338
391.01644,1.55776
390.77537,1.53807
390.53430,1.52765
390.29323,1.53896
390.05216,1.56528
389.81109,1.58582
389.57002,1.58463
389.32895,1.56548
389.08788,1.54200
388.84681,1.52411
388.60574,1.51638
388.36467,1.51950
388.12360,1.52857
387.88253,1.53356
387.64146,1.52969
387.40038,1.52459
387.15931,1.52215
386.91824,1.51564
386.67717,1.50603
386.43610,1.50168
386.19503,1.50100
385.95396,1.49192
385.71289,1.47364
385.47182,1.45979
385.23075,1.45377
384.98968,1.43951
384.74861,1.40680
384.50754,1.36940
384.26647,1.34679
384.02540,1.34132
383.78433,1.34005
383.54326,1.33414
383.30219,1.32988
383.06111,1.33722
382.82004,1.35256
382.57897,1.35818
382.33790,1.34471
382.09683,1.32453
381.85576,1.31310
381.61469,1.31255
381.37362,1.31471
381.13255,1.31167
380.89148,1.30525
380.65041,1.30491
380.40934,1.31265
380.16827,1.31642
379.92720,1.30762
379.68613,1.29485
379.44506,1.29107
379.20399,1.30030
378.96292,1.31703
378.72184,1.33212
378.48077,1.34074
378.23970,1.34190
377.99863,1.33533
377.75756,1.32648
377.51649,1.32586
377.27542,1.33973
377.03435,1.36359
376.79328,1.38658
376.55221,1.40261
376.31114,1.41282
376.07007,1.41824
375.82900,1.42025
375.58793,1.42487
375.34686,1.43626
375.10579,1.45004
374.86472,1.45891
374.62365,1.46138
374.38257,1.46031
374.14150,1.45365
373.90043,1.43717
373.65936,1.41805
373.41829,1.41129
373.17722,1.42171
372.93615,1.43634
372.69508,1.43849
372.45401,1.42531
372.21294,1.40557
371.97187,1.38752
371.73080,1.37423
371.48973,1.36466
371.24866,1.35636
371.00759,1.34937
370.76652,1.34524
370.52545,1.34269
370.28437,1.33944
370.04330,1.33666
369.80223,1.33693
369.56116,1.33884
369.32009,1.33769
369.07902,1.33052
368.83795,1.31914
368.59688,1.30780
368.35581,1.29726
368.11474,1.28555
367.87367,1.27391
367.63260,1.26635
367.39153,1.26454
367.15046,1.26693
366.90939,1.27094
366.66832,1.27409
366.42725,1.27521
366.18618,1.27432
365.94510,1.27048
365.70403,1.26262
365.46296,1.25332
365.22189,1.24762
364.98082,1.24623
364.73975,1.24406
364.49868,1.23728
364.25761,1.22884
364.01654,1.22626
363.77547,1.23248
363.53440,1.24172
363.29333,1.24645
363.05226,1.24405
362.81119,1.23590
362.57012,1.22678
362.32905,1.22406
362.08798,1.23064
361.84691,1.23878
361.60583,1.23730
361.36476,1.22574
361.12369,1.21422
360.88262,1.20929
360.64155,1.20680
360.40048,1.19989
360.15941,1.19006
359.91834,1.18492
359.67727,1.18773
359.43620,1.19487
359.19513,1.20143
358.95406,1.20561
358.71299,1.20847
358.47192,1.21195
358.23085,1.21659
357.98978,1.22027
357.74871,1.22016
357.50764,1.21577
357.26656,1.20966
357.02549,1.20439
356.78442,1.20008
356.54335,1.19665
356.30228,1.19474
356.06121,1.19357
355.82014,1.19217
355.57907,1.19224
355.33800,1.19525
355.09693,1.19804
354.85586,1.19679
354.61479,1.19335
354.37372,1.19179
354.13265,1.19227
353.89158,1.19358
353.65051,1.19804
353.40944,1.20806
353.16837,1.21998
352.92729,1.22571
352.68622,1.22221
352.44515,1.21650
352.20408,1.21738
351.96301,1.22518
351.72194,1.23281
351.48087,1.23514
351.23980,1.23426
350.99873,1.23354
350.75766,1.23341
350.51659,1.23360
350.27552,1.23552
350.03445,1.24037
349.79338,1.24494
349.55231,1.24329
349.31124,1.23404
349.07017,1.22338
348.82910,1.21850
348.58802,1.21966
348.34695,1.22166
348.10588,1.22148
347.86481,1.22069
347.62374,1.22217
347.38267,1.22824
347.14160,1.23864
346.90053,1.24690
346.65946,1.24597
346.41839,1.23954
346.17732,1.23691
345.93625,1.24041
345.69518,1.24514
345.45411,1.24800
345.21304,1.25138
344.97197,1.25854
344.73090,1.26996
344.48983,1.28397
344.24875,1.29808
344.00768,1.30961
343.76661,1.31617
343.52554,1.31678
343.28447,1.31350
343.04340,1.31165
342.80233,1.31575
342.56126,1.32524
342.32019,1.33453
342.07912,1.33707
341.83805,1.33222
341.59698,1.32621
341.35591,1.32522
341.11484,1.33191
340.87377,1.34441
340.63270,1.35833
340.39163,1.37185
340.15056,1.38679
339.90948,1.40401
339.66841,1.41839
339.42734,1.42184
339.18627,1.41459
338.94520,1.40663
338.70413,1.40606
338.46306,1.41046
338.22199,1.41137
337.98092,1.40814
337.73985,1.40708
337.49878,1.40909
337.25771,1.41011
337.01664,1.40972
336.77557,1.41293
336.53450,1.42092
336.29343,1.42694
336.05236,1.42673
335.81129,1.42426
335.57021,1.42186
335.32914,1.41813
335.08807,1.41545
334.84700,1.41835
334.60593,1.42487
334.36486,1.42711
334.12379,1.42174
333.88272,1.41258
333.64165,1.40099
333.40058,1.38500
333.15951,1.36806
332.91844,1.35823
332.67737,1.35834
332.43630,1.36270
332.19523,1.36507
331.95416,1.36581
331.71309,1.36812
331.47202,1.37017
331.23094,1.36609
330.98987,1.35557
330.74880,1.34657
330.50773,1.34634
330.26666,1.35345
330.02559,1.35783
329.78452,1.34974
329.54345,1.33060
329.30238,1.31172
329.06131,1.30256
328.82024,1.30349
328.57917,1.30834
328.33810,1.31230
328.09703,1.31477
327.85596,1.31544
327.61489,1.31519
327.37382,1.31884
327.13275,1.32679
326.89167,1.32882
326.65060,1.31717
326.40953,1.29981
326.16846,1.28923
325.92739,1.28610
325.68632,1.28395
325.44525,1.28140
325.20418,1.28271
324.96311,1.29047
324.72204,1.30315
324.48097,1.31755
324.23990,1.32854
323.99883,1.32982
323.75776,1.32264
323.51669,1.31968
323.27562,1.33119
323.03455,1.35082
322.79348,1.36173
322.55240,1.35604
322.31133,1.33943
322.07026,1.32039
321.82919,1.30749
321.58812,1.30980
321.34705,1.32804
321.10598,1.35045
320.86491,1.36450
320.62384,1.36742
320.38277,1.36354
320.14170,1.35736
319.90063,1.34986
319.65956,1.34116
319.41849,1.33514
319.17742,1.33416
318.93635,1.33502
318.69528,1.33533
318.45421,1.33767
318.21313,1.34293
317.97206,1.34361
317.73099,1.33090
317.48992,1.30933
317.24885,1.29316
317.00778,1.29010
316.76671,1.29660
316.52564,1.30759
316.28457,1.32195
316.04350,1.33676
315.80243,1.34668
315.56136,1.35051
315.32029,1.35234
315.07922,1.35643
314.83815,1.36279
314.59708,1.36768
314.35601,1.36866
314.11494,1.36663
313.87386,1.36318
313.63279,1.35935
313.39172,1.35553
313.15065,1.35200
312.90958,1.35078
312.66851,1.35397
312.42744,1.36067
312.18637,1.36750
311.94530,1.37017
311.70423,1.36636
311.46316,1.36245
311.22209,1.36937
310.98102,1.38805
310.73995,1.40555
310.49888,1.40880
310.25781,1.39997
310.01674,1.39065
309.77567,1.38573
309.53459,1.38162
309.29352,1.37559
309.05245,1.37223
308.81138,1.37858
308.57031,1.39227
308.32924,1.40278
308.08817,1.40510
307.84710,1.40542
307.60603,1.41050
307.36496,1.41711
307.12389,1.41846
306.88282,1.41451
306.64175,1.40868
306.40068,1.40360
306.15961,1.40056
305.91854,1.39826
305.67747,1.39517
305.43640,1.39155
305.19532,1.38675
304.95425,1.38131
304.71318,1.38094
304.47211,1.39007
304.23104,1.40426
303.98997,1.41373
303.74890,1.41146
303.50783,1.39728
303.26676,1.37993
303.02569,1.37281
302.78462,1.38172
302.54355,1.39688
302.30248,1.40089
302.06141,1.38676
301.82034,1.36383
301.57927,1.34570
301.33820,1.33881
301.09713,1.33931
300.85605,1.33734
300.61498,1.32733
300.37391,1.31263
300.13284,1.29832
299.89177,1.28596
299.65070,1.27789
299.40963,1.27616
299.16856,1.27595
298.92749,1.27053
298.68642,1.26110
298.44535,1.25267
298.20428,1.24625
297.96321,1.24191
297.72214,1.24104
297.48107,1.24177
297.24000,1.23972
296.99893,1.23432
296.75786,1.22869
296.51678,1.22532
296.27571,1.22412
296.03464,1.22250
295.79357,1.21686
295.55250,1.20572
295.31143,1.19213
295.07036,1.18188
294.82929,1.17866
294.58822,1.18124
294.34715,1.18444
294.10608,1.18298
293.86501,1.17647
293.62394,1.17029
293.38287,1.17032
293.14180,1.17681
292.90073,1.18317
292.65966,1.18118
292.41859,1.16979
292.17751,1.15759
291.93644,1.15368
291.69537,1.15739
291.45430,1.16011
291.21323,1.15699
290.97216,1.15134
290.73109,1.14688
290.49002,1.14362
290.24895,1.14095
290.00788,1.13903
289.76681,1.13718
289.52574,1.13470
289.28467,1.13290
289.04360,1.13328
288.80253,1.13426
288.56146,1.13247
288.32039,1.12717
288.07932,1.12083
287.83824,1.11593
287.59717,1.11348
287.35610,1.11355
287.11503,1.11516
286.87396,1.11632
286.63289,1.11584
286.39182,1.11374
286.15075,1.10927
285.90968,1.10152
285.66861,1.09277
285.42754,1.08793
285.18647,1.08926
284.94540,1.09442
284.70433,1.10058
284.46326,1.10755
284.22219,1.11486
283.98112,1.11956
283.74005,1.12050
283.49897,1.12060
283.25790,1.12149
283.01683,1.12014
282.77576,1.11400
282.53469,1.10631
282.29362,1.10284
282.05255,1.10414
281.81148,1.10496
281.57041,1.10215
281.32934,1.09879
281.08827,1.09806
280.84720,1.09855
280.60613,1.09873
280.36506,1.10041
280.12399,1.10451
279.88292,1.10872
279.64185,1.11181
279.40078,1.11494
279.15970,1.11680
278.91863,1.11343
278.67756,1.10487
278.43649,1.09686
278.19542,1.09415
277.95435,1.09529
277.71328,1.09572
277.47221,1.09358
277.23114,1.09106
276.99007,1.09103
276.74900,1.09377
276.50793,1.09772
276.26686,1.10135
276.02579,1.10458
275.78472,1.10916
275.54365,1.11549
275.30258,1.12016
275.06151,1.11997
274.82043,1.11719
274.57936,1.11721
274.33829,1.12243
274.09722,1.13049
273.85615,1.13702
273.61508,1.13874
273.37401,1.13606
273.13294,1.13344
272.89187,1.13549
272.65080,1.14200
272.40973,1.14871
272.16866,1.15317
271.92759,1.15655
271.68652,1.15962
271.44545,1.16193
271.20438,1.16489
270.96331,1.17032
270.72224,1.17628
270.48116,1.17838
270.24009,1.17510
269.99902,1.16978
269.75795,1.16815
269.51688,1.17404
269.27581,1.18569
269.03474,1.19737
268.79367,1.20519
268.55260,1.20947
268.31153,1.21234
268.07046,1.21588
267.82939,1.22123
267.58832,1.22819
267.34725,1.23600
267.10618,1.24370
266.86511,1.24912
266.62404,1.25026
266.38297,1.24866
266.14189,1.24889
265.90082,1.25434
265.65975,1.26469
265.41868,1.27671
265.17761,1.28613
264.93654,1.29074
264.69547,1.29359
264.45440,1.30091
264.21333,1.31552
263.97226,1.33452
263.73119,1.35367
263.49012,1.37144
263.24905,1.38853
263.00798,1.40592
262.76691,1.42375
262.52584,1.44101
262.28477,1.45772
262.04370,1.47733
261.80262,1.50321
261.56155,1.53187
261.32048,1.55500
261.07941,1.57004
260.83834,1.58368
260.59727,1.60349
260.35620,1.62996
260.11513,1.65631
259.87406,1.67433
259.63299,1.68399
259.39192,1.69731
259.15085,1.72621
258.90978,1.76589
258.66871,1.79711
258.42764,1.80978
258.18657,1.81727
257.94550,1.83714
257.70443,1.86738
257.46335,1.89323
257.22228,1.90785
256.98121,1.90918
256.74014,1.89306
256.49907,1.86426
256.25800,1.83451
256.01693,1.80663
255.77586,1.77810
255.53479,1.75091
255.29372,1.72762
255.05265,1.70594
254.81158,1.68357
254.57051,1.66551
254.32944,1.65884
254.08837,1.66228
253.84730,1.66691
253.60623,1.66480
253.36516,1.65422
253.12408,1.63711
252.88301,1.61747
252.64194,1.60131
252.40087,1.59114
252.15980,1.58558
251.91873,1.58315
251.67766,1.58122
251.43659,1.57569
251.19552,1.56716
250.95445,1.56377
250.71338,1.57225
250.47231,1.58695
250.23124,1.59348
249.99017,1.58516
249.74910,1.56863
249.50803,1.55302
249.26696,1.54419
249.02589,1.54675
248.78481,1.55989
248.54374,1.57153
248.30267,1.56947
248.06160,1.55765
247.82053,1.54944
247.57946,1.55277
247.33839,1.56832
247.09732,1.58923
246.85625,1.60091
246.61518,1.59668
246.37411,1.59010
246.13304,1.59714
245.89197,1.61502
245.65090,1.62904
245.40983,1.63253
245.16876,1.63462
244.92769,1.64732
244.68661,1.67279
244.44554,1.70550
244.20447,1.73578
243.96340,1.75953
243.72233,1.78218
243.48126,1.81602
243.24019,1.88254
242.99912,1.99694
242.75805,2.12694
242.51698,2.13820
242.27591,1.94787
242.03484,1.79573
241.79377,1.69187
241.55270,1.60524
241.31163,1.52349
241.07056,1.44558
240.82949,1.37678
240.58842,1.31927
240.34734,1.26934
240.10627,1.22259
239.86520,1.17835
239.62413,1.13953
239.38306,1.10861
239.14199,1.08303
238.90092,1.05679
238.65985,1.02818
238.41878,1.00190
238.17771,0.98215
237.93664,0.96789
237.69557,0.95556
237.45450,0.94287
237.21343,0.92947
236.97236,0.91647
236.73129,0.90511
236.49022,0.89483
236.24915,0.88415
236.00807,0.87362
235.76700,0.86522
235.52593,0.85883
235.28486,0.85227
235.04379,0.84499
234.80272,0.83907
234.56165,0.83569
234.32058,0.83310
234.07951,0.82933
233.83844,0.82538
233.59737,0.82370
233.35630,0.82414
233.11523,0.82360
232.87416,0.81993
232.63309,0.81443
232.39202,0.80999
232.15095,0.80800
231.90988,0.80754
231.66880,0.80681
231.42773,0.80473
231.18666,0.80152
230.94559,0.79836
230.70452,0.79619
230.46345,0.79459
230.22238,0.79251
229.98131,0.79007
229.74024,0.78864
229.49917,0.78888
229.25810,0.79011
229.01703,0.79157
228.77596,0.79256
228.53489,0.79186
228.29382,0.78890
228.05275,0.78498
227.81168,0.78196
227.57061,0.78023
227.32953,0.77889
227.08846,0.77770
226.84739,0.77763
226.60632,0.77941
226.36525,0.78247
226.12418,0.78576
225.88311,0.78872
225.64204,0.79114
225.40097,0.79287
225.15990,0.79408
224.91883,0.79539
224.67776,0.79761
224.43669,0.80082
224.19562,0.80370
223.95455,0.80456
223.71348,0.80386
223.47241,0.80461
223.23134,0.80925
222.99026,0.81746
222.74919,0.82712
222.50812,0.83632
222.26705,0.84359
222.02598,0.84803
221.78491,0.85092
221.54384,0.85507
221.30277,0.86135
221.06170,0.86821
220.82063,0.87492
220.57956,0.88260
220.33849,0.89269
220.09742,0.90638
219.85635,0.92338
219.61528,0.93986
219.37421,0.95144
219.13314,0.95907
218.89207,0.96757
218.65099,0.97879
218.40992,0.99080
218.16885,1.00259
217.92778,1.01540
217.68671,1.02991
217.44564,1.04561
217.20457,1.06285
216.96350,1.08243
216.72243,1.10253
216.48136,1.11903
216.24029,1.13098
215.99922,1.14251
215.75815,1.15714
215.51708,1.17407
215.27601,1.19220
215.03494,1.21284
214.79387,1.23570
214.55280,1.25602
214.31172,1.26948
214.07065,1.27743
213.82958,1.28401
213.58851,1.29087
213.34744,1.29877
213.10637,1.31244
212.86530,1.33785
212.62423,1.37294
212.38316,1.40518
212.14209,1.42230
211.90102,1.42292
211.65995,1.41443
211.41888,1.40403
211.17781,1.39438
210.93674,1.38722
210.69567,1.38577
210.45460,1.39161
210.21353,1.40144
209.97245,1.40957
209.73138,1.41378
209.49031,1.41537
209.24924,1.41453
209.00817,1.41047
208.76710,1.40357
208.52603,1.39546
208.28496,1.38833
208.04389,1.38288
207.80282,1.37562
207.56175,1.36185
207.32068,1.34262
207.07961,1.32472
206.83854,1.31253
206.59747,1.30423
206.35640,1.29664
206.11533,1.28882
205.87426,1.27844
205.63318,1.26091
205.39211,1.23586
205.15104,1.20964
204.90997,1.18907
204.66890,1.17583
204.42783,1.16681
204.18676,1.15601
203.94569,1.13748
203.70462,1.11145
203.46355,1.08571
203.22248,1.06773
202.98141,1.05820
202.74034,1.05229
202.49927,1.04354
202.25820,1.02674
202.01713,1.00168
201.77606,0.97398
201.53499,0.95051
201.29391,0.93411
201.05284,0.92283
200.81177,0.91278
200.57070,0.90049
200.32963,0.88446
200.08856,0.86678
199.84749,0.85157
199.60642,0.84043
199.36535,0.83086
199.12428,0.81991
198.88321,0.80721
198.64214,0.79353
198.40107,0.77931
198.16000,0.76544
197.91893,0.75378
197.67786,0.74579
197.43679,0.74046
197.19572,0.73383
196.95464,0.72230
196.71357,0.70729
196.47250,0.69410
196.23143,0.68618
195.99036,0.68205
195.74929,0.67752
195.50822,0.67037
195.26715,0.66243
195.02608,0.65646
194.78501,0.65215
194.54394,0.64643
194.30287,0.63779
194.06180,0.62850
193.82073,0.62194
193.57966,0.61928
193.33859,0.61879
193.09752,0.61722
192.85645,0.61244
192.61537,0.60559
192.37430,0.59979
192.13323,0.59632
191.89216,0.59327
191.65109,0.58838
191.41002,0.58240
191.16895,0.57788
190.92788,0.57572
190.68681,0.57433
190.44574,0.57177
190.20467,0.56821
189.96360,0.56564
189.72253,0.56478
189.48146,0.56385
189.24039,0.56169
188.99932,0.56027
188.75825,0.56122
188.51718,0.56212
188.27610,0.55954
188.03503,0.55480
187.79396,0.55253
187.55289,0.55379
187.31182,0.55484
187.07075,0.55295
186.82968,0.55001
186.58861,0.54912
186.34754,0.55035
186.10647,0.55170
185.86540,0.55211
185.62433,0.55201
185.38326,0.55177
185.14219,0.55150
184.90112,0.55174
184.66005,0.55296
184.41898,0.55447
184.17791,0.55544
183.93683,0.55666
183.69576,0.55951
183.45469,0.56343
183.21362,0.56628
182.97255,0.56723
182.73148,0.56737
182.49041,0.56786
182.24934,0.56905
182.00827,0.57098
181.76720,0.57343
181.52613,0.57581
181.28506,0.57759
181.04399,0.57866
180.80292,0.57917
180.56185,0.57935
180.32078,0.58012
180.07971,0.58279
179.83864,0.58747
179.59756,0.59282
179.35649,0.59807
179.11542,0.60385
178.87435,0.61074
178.63328,0.61865
178.39221,0.62831
178.15114,0.64081
177.91007,0.65517
177.66900,0.66906
177.42793,0.68179
177.18686,0.69444
176.94579,0.70805
176.70472,0.72376
176.46365,0.74218
176.22258,0.76146
175.98151,0.77950
175.74044,0.79793
175.49937,0.82002
175.25829,0.84608
175.01722,0.87400
174.77615,0.90171
174.53508,0.92737
174.29401,0.95048
174.05294,0.97292
173.81187,0.99543
173.57080,1.01567
173.32973,1.03212
173.08866,1.04574
172.84759,1.05687
172.60652,1.06452
172.36545,1.06916
172.12438,1.07288
171.88331,1.07639
171.64224,1.07815
171.40117,1.07739
171.16010,1.07631
170.91902,1.07794
170.67795,1.08187
170.43688,1.08323
170.19581,1.07745
169.95474,1.06529
169.71367,1.05059
169.47260,1.03581
169.23153,1.02214
168.99046,1.01109
168.74939,1.00327
168.50832,0.99737
168.26725,0.99214
168.02618,0.98800
167.78511,0.98578
167.54404,0.98515
167.30297,0.98531
167.06190,0.98667
166.82083,0.99067
166.57975,0.99785
166.33868,1.00657
166.09761,1.01450
165.85654,1.02098
165.61547,1.02654
165.37440,1.03111
165.13333,1.03532
164.89226,1.04245
164.65119,1.05594
164.41012,1.07462
164.16905,1.09315
163.92798,1.10829
163.68691,1.12223
163.44584,1.13819
163.20477,1.15553
162.96370,1.17044
162.72263,1.17941
162.48156,1.18226
162.24048,1.18292
161.99941,1.18665
161.75834,1.19639
161.51727,1.21200
161.27620,1.22984
161.03513,1.24309
160.79406,1.24646
160.55299,1.24034
160.31192,1.22880
160.07085,1.21705
159.82978,1.20942
159.58871,1.20632
159.34764,1.20467
159.10657,1.20121
158.86550,1.19264
158.62443,1.17650
158.38336,1.15591
158.14229,1.13870
157.90121,1.12936
157.66014,1.12579
157.41907,1.12482
157.17800,1.12633
156.93693,1.12933
156.69586,1.12928
156.45479,1.12259
156.21372,1.11054
155.97265,1.09636
155.73158,1.08220
155.49051,1.07002
155.24944,1.06088
155.00837,1.05234
154.76730,1.04039
154.52623,1.02331
154.28516,1.00189
154.04409,0.97850
153.80302,0.95667
153.56194,0.93874
153.32087,0.92304
153.07980,0.90526
152.83873,0.88300
152.59766,0.85818
152.35659,0.83473
152.11552,0.81474
151.87445,0.79727
151.63338,0.78006
151.39231,0.76165
151.15124,0.74212
150.91017,0.72246
150.66910,0.70332
150.42803,0.68506
150.18696,0.66839
149.94589,0.65407
149.70482,0.64187
149.46375,0.63054
149.22267,0.61887
148.98160,0.60678
148.74053,0.59552
148.49946,0.58645
148.25839,0.57991
148.01732,0.57520
147.77625,0.57137
147.53518,0.56818
147.29411,0.56608
147.05304,0.56548
146.81197,0.56632
146.57090,0.56814
146.32983,0.57029
146.08876,0.57251
145.84769,0.57564
145.60662,0.58082
145.36555,0.58759
145.12448,0.59422
144.88340,0.60033
144.64233,0.60719
144.40126,0.61530
144.16019,0.62300
143.91912,0.62786
143.67805,0.62823
143.43698,0.62417
143.19591,0.61712
142.95484,0.60831
142.71377,0.59814
142.47270,0.58727
142.23163,0.57692
141.99056,0.56757
141.74949,0.55845
141.50842,0.54901
141.26735,0.54006
141.02628,0.53298
140.78521,0.52810
140.54413,0.52464
140.30306,0.52205
140.06199,0.52075
139.82092,0.52157
139.57985,0.52499
139.33878,0.53118
139.09771,0.53979
138.85664,0.54944
138.61557,0.55827
138.37450,0.56618
138.13343,0.57550
137.89236,0.58817
137.65129,0.60354
137.41022,0.62015
137.16915,0.63841
136.92808,0.65936
136.68701,0.68224
136.44594,0.70559
136.20486,0.72992
135.96379,0.75708
135.72272,0.78798
135.48165,0.82215
135.24058,0.85848
134.99951,0.89546
134.75844,0.93187
134.51737,0.96776
134.27630,1.00370
134.03523,1.03958
133.79416,1.07576
133.55309,1.11303
133.31202,1.14934
133.07095,1.18103
132.82988,1.20836
132.58881,1.23296
132.34774,1.25053
132.10667,1.25559
131.86559,1.25067
131.62452,1.24002
131.38345,1.22330
131.14238,1.20093
130.90131,1.17586
130.66024,1.14989
130.41917,1.12269
130.17810,1.09169
129.93703,1.05245
129.69596,1.00399
129.45489,0.95184
129.21382,0.90277
128.97275,0.85911
128.73168,0.81950
128.49061,0.78249
128.24954,0.74787
128.00847,0.71581
127.76740,0.68654
127.52632,0.66037
127.28525,0.63673
127.04418,0.61377
126.80311,0.59053
126.56204,0.56855
126.32097,0.54968
126.07990,0.53382
125.83883,0.51974
125.59776,0.50699
125.35669,0.49578
125.11562,0.48583
124.87455,0.47615
124.63348,0.46587
124.39241,0.45516
124.15134,0.44506
123.91027,0.43674
123.66920,0.43074
123.42812,0.42661
123.18705,0.42350
122.94598,0.42117
122.70491,0.41994
122.46384,0.41990
122.22277,0.42085
121.98170,0.42274
121.74063,0.42564
121.49956,0.42972
121.25849,0.43522
121.01742,0.44185
120.77635,0.44912
120.53528,0.45769
120.29421,0.46914
120.05314,0.48411
119.81207,0.50206
119.57100,0.52266
119.32993,0.54626
119.08885,0.57310
118.84778,0.60287
118.60671,0.63472
118.36564,0.66733
118.12457,0.69967
117.88350,0.73175
117.64243,0.76417
117.40136,0.79594
117.16029,0.82308
116.91922,0.84100
116.67815,0.84835
116.43708,0.84635
116.19601,0.83574
115.95494,0.81713
115.71387,0.79313
115.47280,0.76773
115.23173,0.74454
114.99066,0.72504
114.74958,0.70783
114.50851,0.69065
114.26744,0.67397
114.02637,0.66138
113.78530,0.65577
113.54423,0.65624
113.30316,0.66018
113.06209,0.66734
112.82102,0.67926
112.57995,0.69543
112.33888,0.71220
112.09781,0.72624
111.85674,0.73711
111.61567,0.74589
111.37460,0.75331
111.13353,0.75904
110.89246,0.76163
110.65139,0.75937
110.41031,0.75222
110.16924,0.74304
109.92817,0.73562
109.68710,0.72969
109.44603,0.71960
109.20496,0.70037
108.96389,0.67344
108.72282,0.64394
108.48175,0.61488
108.24068,0.58654
107.99961,0.55987
107.75854,0.53755
107.51747,0.52113
107.27640,0.50824
107.03533,0.49424
106.79426,0.47674
106.55319,0.45739
106.31212,0.43928
106.07104,0.42346
105.82997,0.40870
105.58890,0.39465
105.34783,0.38354
105.10676,0.37718
104.86569,0.37348
104.62462,0.36785
104.38355,0.35763
104.14248,0.34413
103.90141,0.33064
103.66034,0.31984
103.41927,0.31298
103.17820,0.31003
102.93713,0.30927
102.69606,0.30718
102.45499,0.30130
102.21392,0.29308
101.97285,0.28595
101.73177,0.28142
101.49070,0.27866
101.24963,0.27682
101.00856,0.27552
100.76749,0.27346
100.52642,0.26880
100.28535,0.26182
100.04428,0.25528
99.80321,0.25192
99.56214,0.25224
99.32107,0.25388
99.08000,0.25296
98.83893,0.24788
98.59786,0.24176
98.35679,0.23929
98.11572,0.24159
97.87465,0.24537
97.63358,0.24687
97.39250,0.24629
97.15143,0.24733
96.91036,0.25298
96.66929,0.26268
96.42822,0.27265
96.18715,0.27920
95.94608,0.28330
95.70501,0.28964
95.46394,0.30025
95.22287,0.31085
94.98180,0.31588
94.74073,0.31691
94.49966,0.32017
94.25859,0.32679
94.01752,0.33143
93.77645,0.33077
93.53538,0.32870
93.29431,0.32974
93.05323,0.33256
92.81216,0.33407
92.57109,0.33566
92.33002,0.33988
92.08895,0.34468
91.84788,0.34655
91.60681,0.34762
91.36574,0.35390
91.12467,0.36805
90.88360,0.38884
90.64253,0.41623
90.40146,0.45138
90.16039,0.49234
89.91932,0.53659
89.67825,0.58621
89.43718,0.64142
89.19611,0.69337
88.95504,0.73365
88.71396,0.76005
88.47289,0.76475
88.23182,0.73930
87.99075,0.69216
87.74968,0.63857
87.50861,0.58530
87.26754,0.53489
87.02647,0.48949
86.78540,0.44894
86.54433,0.41292
86.30326,0.38236
86.06219,0.35619
85.82112,0.33187
85.58005,0.30928
85.33898,0.28984
85.09791,0.27329
84.85684,0.25832
84.61577,0.24466
84.37469,0.23277
84.13362,0.22298
83.89255,0.21498
83.65148,0.20803
83.41041,0.20174
83.16934,0.19610
82.92827,0.19086
82.68720,0.18589
82.44613,0.18165
82.20506,0.17854
81.96399,0.17633
81.72292,0.17466
81.48185,0.17345
81.24078,0.17286
80.99971,0.17291
80.75864,0.17290
80.51757,0.17174
80.27650,0.16887
80.03542,0.16481
79.79435,0.16071
79.55328,0.15754
79.31221,0.15532
79.07114,0.15352
78.83007,0.15193
78.58900,0.15077
78.34793,0.14993
78.10686,0.14882
77.86579,0.14697
77.62472,0.14455
77.38365,0.14252
77.14258,0.14196
76.90151,0.14288
76.66044,0.14388
76.41937,0.14326
76.17830,0.14079
75.93723,0.13815
75.69615,0.13718
75.45508,0.13797
75.21401,0.13863
74.97294,0.13719
74.73187,0.13360
74.49080,0.13021
74.24973,0.12998
74.00866,0.13413
73.76759,0.14076
73.52652,0.14544
73.28545,0.14442
73.04438,0.13863
72.80331,0.13334
72.56224,0.13291
72.32117,0.13734
72.08010,0.14397
71.83903,0.15064
71.59796,0.15611
71.35688,0.15912
71.11581,0.15897
70.87474,0.15701
70.63367,0.15653
70.39260,0.16111
70.15153,0.17302
69.91046,0.19210
69.66939,0.21531
69.42832,0.23779
69.18725,0.25491
68.94618,0.26308
68.70511,0.25913
68.46404,0.24225
68.22297,0.21683
67.98190,0.19057
67.74083,0.16895
67.49976,0.15307
67.25869,0.14168
67.01761,0.13357
66.77654,0.12796
66.53547,0.12402
66.29440,0.12109
66.05333,0.11915
65.81226,0.11874
65.57119,0.12049
65.33012,0.12500
65.08905,0.13255
64.84798,0.14258
64.60691,0.15385
64.36584,0.16527
64.12477,0.17581
63.88370,0.18360
63.64263,0.18624
63.40156,0.18267
63.16049,0.17424
62.91942,0.16382
62.67834,0.15410
62.43727,0.14647
62.19620,0.14105
61.95513,0.13705
61.71406,0.13316
61.47299,0.12840
61.23192,0.12292
60.99085,0.11812
60.74978,0.11588
60.50871,0.11685
60.26764,0.11925
60.02657,0.12022
59.78550,0.11887
59.54443,0.11700
59.30336,0.11622
59.06229,0.11606
58.82122,0.11587
58.58015,0.11677
58.33907,0.11979
58.09800,0.12419
57.85693,0.12924
57.61586,0.13599
57.37479,0.14545
57.13372,0.15592
56.89265,0.16276
56.65158,0.16110
56.41051,0.15001
56.16944,0.13335
55.92837,0.11595
55.68730,0.10061
55.44623,0.08913
55.20516,0.08347
54.96409,0.08479
54.72302,0.09280
54.48195,0.10727
54.24088,0.12819
53.99980,0.15164
53.75873,0.16618
53.51766,0.16124
53.27659,0.14096
53.03552,0.11911
52.79445,0.10648
52.55338,0.10743
52.31231,0.12148
52.07124,0.14500
51.83017,0.16826
51.58910,0.17363
51.34803,0.15215
51.10696,0.11926
50.86589,0.09663
50.62482,0.09488
50.38375,0.11451
50.14268,0.14682
49.90161,0.16777
49.66053,0.15247
49.41946,0.11636
49.17839,0.09416
48.93732,0.10229
48.69625,0.13648
48.45518,0.16332
48.21411,0.14397
47.97304,0.10943
47.73197,0.10303
47.49090,0.12623
47.24983,0.14379
47.00876,0.12497
46.76769,0.10172
46.52662,0.10588
46.28555,0.12382
46.04448,0.12382
45.80341,0.10873
45.56234,0.10321
45.32126,0.10550
45.08019,0.09982
44.83912,0.09595
44.59805,0.11078
44.35698,0.13160
44.11591,0.13733
43.87484,0.13314
43.63377,0.13093
43.39270,0.13279
43.15163,0.14265
42.91056,0.15956
42.66949,0.16686
42.42842,0.15540
42.18735,0.14001
41.94628,0.13322
41.70521,0.13239
41.46414,0.13249
41.22307,0.13241
40.98199,0.13267
40.74092,0.13550
40.49985,0.14218
40.25878,0.14964
40.01771,0.15356
39.77664,0.15369
39.53557,0.15432
39.29450,0.15804
39.05343,0.16172
38.81236,0.16441
38.57129,0.17353
38.33022,0.19343
38.08915,0.21360
37.84808,0.22015
37.60701,0.21404
37.36594,0.20485
37.12487,0.19583
36.88380,0.18643
36.64272,0.18041
36.40165,0.18287
36.16058,0.19038
35.91951,0.19484
35.67844,0.19801
35.43737,0.20843
35.19630,0.22331
34.95523,0.22619
34.71416,0.20588
34.47309,0.17119
34.23202,0.14376
33.99095,0.13650
33.74988,0.14278
33.50881,0.14975
33.26774,0.15593
33.02667,0.16636
32.78560,0.17924
32.54453,0.18682
32.30345,0.18415
32.06238,0.17406
31.82131,0.16434
31.58024,0.15983
31.33917,0.15675
31.09810,0.14578
30.85703,0.12383
30.61596,0.10086
30.37489,0.08713
30.13382,0.07749
29.89275,0.06265
29.65168,0.04960
29.41061,0.05312
29.16954,0.07067
28.92847,0.08093
28.68740,0.07080
28.44633,0.04855
28.20526,0.03094
27.96418,0.02810
27.72311,0.03596
27.48204,0.04184
27.24097,0.03429
26.99990,0.00890
26.75883,-0.02914
26.51776,-0.06541
26.27669,-0.08345
26.03562,-0.07895
25.79455,-0.06761
25.55348,-0.06753
25.31241,-0.07965
25.07134,-0.09958
24.83027,-0.12703
24.58920,-0.15340
24.34813,-0.16464
24.10706,-0.16455
23.86599,-0.17198
23.62491,-0.19719
23.38384,-0.23207
23.14277,-0.26235
22.90170,-0.27631
22.66063,-0.26613
22.41956,-0.23891
22.17849,-0.21725
21.93742,-0.21422
21.69635,-0.22548
21.45528,-0.24709
21.21421,-0.28335
20.97314,-0.32599
20.73207,-0.34979
20.49100,-0.34781
20.24993,-0.33019
20.00886,-0.30030
19.76779,-0.26485
19.52672,-0.24736
19.28564,-0.27096
19.04457,-0.33267
18.80350,-0.39952
18.56243,-0.43703
18.32136,-0.43709
18.08029,-0.41517
17.83922,-0.38392
17.59815,-0.34948
17.35708,-0.32562
17.11601,-0.32477
16.87494,-0.33105
16.63387,-0.31906
16.39280,-0.31653
16.15173,-0.33354
15.91066,-0.35165
15.66959,-0.35054
15.42852,-0.33929
15.18745,-0.33982
14.94637,-0.35683
14.70530,-0.38570
14.46423,-0.40455
14.22316,-0.39919
13.98209,-0.36213
13.74102,-0.35624
13.49995,-0.38191
13.25888,-0.40834
13.01781,-0.41949
12.77674,-0.41559
12.53567,-0.41173
12.29460,-0.41801
12.05353,-0.41432
11.81246,-0.39938
11.57139,-0.41211
11.33032,-0.44489
11.08925,-0.46586
10.84818,-0.46531
10.60710,-0.45383
10.36603,-0.44461
10.12496,-0.44292
9.88389,-0.43598
9.64282,-0.43090
9.40175,-0.42463
9.16068,-0.41413
8.91961,-0.42650
8.67854,-0.44365
8.43747,-0.43972
8.19640,-0.42408
7.95533,-0.38502
7.71426,-0.34107
7.47319,-0.32924
7.23212,-0.33965
6.99105,-0.34568
6.74998,-0.32904
6.50891,-0.31497
6.26783,-0.31444
6.02676,-0.33003
5.78569,-0.35939
5.54462,-0.38081
5.30355,-0.36996
5.06248,-0.36134
4.82141,-0.36085
4.58034,-0.34634
4.33927,-0.34610
4.09820,-0.35745
3.85713,-0.37335
3.61606,-0.38734
3.37499,-0.38534
3.13392,-0.36672
2.89285,-0.34711
2.65178,-0.33444
2.41071,-0.33139
2.16964,-0.33985
1.92856,-0.34521
1.68749,-0.33625
1.44642,-0.32612
1.20535,-0.31733
0.96428,-0.30908
0.72321,-0.33070
0.48214,-0.39131
0.24107,-0.38754
-0.00000,-0.06479
