399.69498,1.42657
399.45391,1.43324
399.21284,1.44520
398.97177,1.45799
398.73070,1.46596
398.48963,1.46581
398.24856,1.45599
398.00749,1.43837
397.76642,1.42035
397.52535,1.40965
397.28428,1.40711
397.04321,1.40888
396.80214,1.41400
396.56107,1.42379
396.32000,1.43577
396.07892,1.44486
395.83785,1.45046
395.59678,1.45553
395.35571,1.45784
395.11464,1.45218
394.87357,1.44022
394.63250,1.43044
394.39143,1.42958
394.15036,1.43675
393.90929,1.44570
393.66822,1.45179
393.42715,1.45644
393.18608,1.46289
392.94501,1.46911
392.70394,1.47002
392.46287,1.46568
392.22180,1.46027
391.98073,1.45724
391.73965,1.45951
391.49858,1.46978
391.25751,1.48768
391.01644,1.50755
390.77537,1.51831
390.53430,1.50867
390.29323,1.48014
390.05216,1.45080
389.81109,1.43809
389.57002,1.44243
389.32895,1.45181
389.08788,1.45814
388.84681,1.46229
388.60574,1.46465
388.36467,1.46090
388.12360,1.44829
387.88253,1.43142
387.64146,1.41718
387.40038,1.40860
387.15931,1.40558
386.91824,1.40608
386.67717,1.40611
386.43610,1.40290
386.19503,1.39923
385.95396,1.39883
385.71289,1.39818
385.47182,1.39227
385.23075,1.38639
384.98968,1.38913
384.74861,1.39475
384.50754,1.38645
384.26647,1.36219
384.02540,1.33913
383.78433,1.33050
383.54326,1.33315
383.30219,1.33453
383.06111,1.32425
382.82004,1.30221
382.57897,1.27753
382.33790,1.25993
382.09683,1.25376
381.85576,1.25745
381.61469,1.26449
381.37362,1.26663
381.13255,1.25910
380.89148,1.24502
380.65041,1.23205
380.40934,1.22432
380.16827,1.22158
379.92720,1.22340
379.68613,1.23110
379.44506,1.24418
379.20399,1.25772
378.96292,1.26730
378.72184,1.27448
378.48077,1.28386
378.23970,1.29715
377.99863,1.31248
377.75756,1.32563
377.51649,1.33390
377.27542,1.33897
377.03435,1.34285
376.79328,1.34456
376.55221,1.34619
376.31114,1.35448
376.07007,1.37003
375.82900,1.38127
375.58793,1.37865
375.34686,1.36983
375.10579,1.36812
374.86472,1.37360
374.62365,1.37711
374.38257,1.37646
374.14150,1.37665
373.90043,1.37829
373.65936,1.37674
373.41829,1.36980
373.17722,1.35925
372.93615,1.34578
372.69508,1.33086
372.45401,1.31954
372.21294,1.31470
371.97187,1.31470
371.73080,1.31625
371.48973,1.31450
371.24866,1.30514
371.00759,1.28999
370.76652,1.27519
370.52545,1.26312
370.28437,1.25200
370.04330,1.24130
369.80223,1.23088
369.56116,1.21896
369.32009,1.20675
369.07902,1.19839
368.83795,1.19494
368.59688,1.19349
368.35581,1.19145
368.11474,1.18791
367.87367,1.18276
367.63260,1.17630
367.39153,1.16956
367.15046,1.16540
366.90939,1.16607
366.66832,1.16848
366.42725,1.16671
366.18618,1.16042
365.94510,1.15470
365.70403,1.15171
365.46296,1.14906
365.22189,1.14464
364.98082,1.13920
364.73975,1.13557
364.49868,1.13500
364.25761,1.13332
364.01654,1.12544
363.77547,1.11498
363.53440,1.11087
363.29333,1.11466
363.05226,1.11900
362.81119,1.11864
362.57012,1.11677
362.32905,1.11872
362.08798,1.12388
361.84691,1.12640
361.60583,1.12303
361.36476,1.11681
361.12369,1.11144
360.88262,1.10748
360.64155,1.10565
360.40048,1.10800
360.15941,1.11340
359.91834,1.11726
359.67727,1.11741
359.43620,1.11550
359.19513,1.11307
358.95406,1.11055
358.71299,1.10865
358.47192,1.10797
358.23085,1.10917
357.98978,1.11337
357.74871,1.11890
357.50764,1.11937
357.26656,1.11053
357.02549,1.09799
356.78442,1.09205
356.54335,1.09647
356.30228,1.10521
356.06121,1.10922
355.82014,1.10618
355.57907,1.10190
355.33800,1.10199
355.09693,1.10553
354.85586,1.10797
354.61479,1.10796
354.37372,1.10836
354.13265,1.11169
353.89158,1.11729
353.65051,1.12271
353.40944,1.12542
353.16837,1.12303
352.92729,1.11554
352.68622,1.10796
352.44515,1.10597
352.20408,1.10893
351.96301,1.11149
351.72194,1.11165
351.48087,1.11230
351.23980,1.11543
350.99873,1.12005
350.75766,1.12451
350.51659,1.12794
350.27552,1.13046
350.03445,1.13300
349.79338,1.13514
349.55231,1.13451
349.31124,1.13051
349.07017,1.12647
348.82910,1.12622
348.58802,1.12968
348.34695,1.13307
348.10588,1.13298
347.86481,1.13009
347.62374,1.12834
347.38267,1.13022
347.14160,1.13474
346.90053,1.14099
346.65946,1.15005
346.41839,1.16063
346.17732,1.16706
345.93625,1.16652
345.69518,1.16377
345.45411,1.16502
345.21304,1.17159
344.97197,1.18071
344.73090,1.18924
344.48983,1.19548
344.24875,1.19948
344.00768,1.20213
343.76661,1.20343
343.52554,1.20325
343.28447,1.20380
343.04340,1.20714
342.80233,1.21015
342.56126,1.20835
342.32019,1.20413
342.07912,1.20491
341.83805,1.21429
341.59698,1.22896
341.35591,1.24322
341.11484,1.25317
340.87377,1.25781
340.63270,1.25931
340.39163,1.26143
340.15056,1.26729
339.90948,1.27835
339.66841,1.29315
339.42734,1.30525
339.18627,1.30741
338.94520,1.30175
338.70413,1.29752
338.46306,1.29947
338.22199,1.30619
337.98092,1.31835
337.73985,1.33783
337.49878,1.35621
337.25771,1.35957
337.01664,1.34755
336.77557,1.33161
336.53450,1.31867
336.29343,1.31085
336.05236,1.31326
335.81129,1.32872
335.57021,1.34854
335.32914,1.36040
335.08807,1.36315
334.84700,1.36206
334.60593,1.35801
334.36486,1.35092
334.12379,1.34476
333.88272,1.34090
333.64165,1.33516
333.40058,1.32517
333.15951,1.31406
332.91844,1.30451
332.67737,1.29570
332.43630,1.29039
332.19523,1.29640
331.95416,1.31239
331.71309,1.32031
331.47202,1.30600
331.23094,1.28015
330.98987,1.26290
330.74880,1.26001
330.50773,1.26281
330.26666,1.26190
330.02559,1.25583
329.78452,1.24912
329.54345,1.24613
329.30238,1.24727
329.06131,1.24877
328.82024,1.24643
328.57917,1.24026
328.33810,1.23260
328.09703,1.22367
327.85596,1.21298
327.61489,1.20372
327.37382,1.20070
327.13275,1.20452
326.89167,1.21290
326.65060,1.22488
326.40953,1.23843
326.16846,1.24647
325.92739,1.24320
325.68632,1.23325
325.44525,1.22670
325.20418,1.22828
324.96311,1.23537
324.72204,1.24356
324.48097,1.25058
324.23990,1.25476
323.99883,1.25382
323.75776,1.24825
323.51669,1.24424
323.27562,1.24823
323.03455,1.25858
322.79348,1.26655
322.55240,1.26659
322.31133,1.26295
322.07026,1.26459
321.82919,1.27284
321.58812,1.27708
321.34705,1.26927
321.10598,1.25658
320.86491,1.25015
320.62384,1.25496
320.38277,1.27220
320.14170,1.29851
319.90063,1.32205
319.65956,1.33028
319.41849,1.32407
319.17742,1.31272
318.93635,1.30110
318.69528,1.29006
318.45421,1.28109
318.21313,1.27634
317.97206,1.27789
317.73099,1.28493
317.48992,1.29046
317.24885,1.28747
317.00778,1.27920
316.76671,1.27488
316.52564,1.27670
316.28457,1.27844
316.04350,1.27634
315.80243,1.27424
315.56136,1.27657
315.32029,1.28296
315.07922,1.29106
314.83815,1.29838
314.59708,1.30152
314.35601,1.29831
314.11494,1.29155
313.87386,1.28863
313.63279,1.29467
313.39172,1.30774
313.15065,1.32094
312.90958,1.32640
312.66851,1.32058
312.42744,1.30814
312.18637,1.29822
311.94530,1.29746
311.70423,1.30667
311.46316,1.32071
311.22209,1.33051
310.98102,1.32938
310.73995,1.32058
310.49888,1.31577
310.25781,1.32484
310.01674,1.34856
309.77567,1.37805
309.53459,1.40025
309.29352,1.40735
309.05245,1.40383
308.81138,1.40020
308.57031,1.39978
308.32924,1.39684
308.08817,1.38844
307.84710,1.38057
307.60603,1.37735
307.36496,1.37323
307.12389,1.36353
306.88282,1.35447
306.64175,1.35483
306.40068,1.36487
306.15961,1.37703
305.91854,1.38440
305.67747,1.38584
305.43640,1.38310
305.19532,1.37547
304.95425,1.35890
304.71318,1.33485
304.47211,1.31543
304.23104,1.31237
303.98997,1.32402
303.74890,1.33556
303.50783,1.33303
303.26676,1.31637
303.02569,1.29797
302.78462,1.29177
302.54355,1.29973
302.30248,1.30667
302.06141,1.29732
301.82034,1.27685
301.57927,1.26078
301.33820,1.25361
301.09713,1.24835
300.85605,1.24121
300.61498,1.23627
300.37391,1.23605
300.13284,1.23661
299.89177,1.23219
299.65070,1.22126
299.40963,1.20853
299.16856,1.20101
298.92749,1.19951
298.68642,1.19593
298.44535,1.18316
298.20428,1.16619
297.96321,1.15596
297.72214,1.15629
297.48107,1.16150
297.24000,1.16348
296.99893,1.15898
296.75786,1.15031
296.51678,1.14168
296.27571,1.13581
296.03464,1.13206
295.79357,1.12746
295.55250,1.12036
295.31143,1.11239
295.07036,1.10660
294.82929,1.10424
294.58822,1.10382
294.34715,1.10252
294.10608,1.09847
293.86501,1.09236
293.62394,1.08652
293.38287,1.08276
293.14180,1.08154
292.90073,1.08152
292.65966,1.07987
292.41859,1.07544
292.17751,1.07111
291.93644,1.06978
291.69537,1.06915
291.45430,1.06468
291.21323,1.05647
290.97216,1.04904
290.73109,1.04510
290.49002,1.04330
290.24895,1.04158
290.00788,1.03965
289.76681,1.03783
289.52574,1.03588
289.28467,1.03396
289.04360,1.03348
288.80253,1.03513
288.56146,1.03696
288.32039,1.03671
288.07932,1.03508
287.83824,1.03430
287.59717,1.03474
287.35610,1.03515
287.11503,1.03458
286.87396,1.03280
286.63289,1.03047
286.39182,1.02910
286.15075,1.02921
285.90968,1.02903
285.66861,1.02647
285.42754,1.02189
285.18647,1.01787
284.94540,1.01646
284.70433,1.01705
284.46326,1.01715
284.22219,1.01573
283.98112,1.01478
283.74005,1.01622
283.49897,1.01900
283.25790,1.02099
283.01683,1.02183
282.77576,1.02197
282.53469,1.02064
282.29362,1.01722
282.05255,1.01363
281.81148,1.01234
281.57041,1.01231
281.32934,1.01043
281.08827,1.00692
280.84720,1.00562
280.60613,1.00819
280.36506,1.01143
280.12399,1.01153
279.88292,1.00838
279.64185,1.00511
279.40078,1.00472
279.15970,1.00771
278.91863,1.01176
278.67756,1.01359
278.43649,1.01203
278.19542,1.00927
277.95435,1.00827
277.71328,1.00945
277.47221,1.01145
277.23114,1.01380
276.99007,1.01631
276.74900,1.01732
276.50793,1.01603
276.26686,1.01482
276.02579,1.01653
275.78472,1.02078
275.54365,1.02512
275.30258,1.02821
275.06151,1.03047
274.82043,1.03228
274.57936,1.03304
274.33829,1.03268
274.09722,1.03273
273.85615,1.03449
273.61508,1.03716
273.37401,1.03923
273.13294,1.04056
272.89187,1.04200
272.65080,1.04410
272.40973,1.04676
272.16866,1.04933
271.92759,1.05116
271.68652,1.05298
271.44545,1.05706
271.20438,1.06449
270.96331,1.07252
270.72224,1.07659
270.48116,1.07522
270.24009,1.07187
269.99902,1.07213
269.75795,1.07918
269.51688,1.09082
269.27581,1.10099
269.03474,1.10600
268.79367,1.10825
268.55260,1.11170
268.31153,1.11606
268.07046,1.11882
267.82939,1.12105
267.58832,1.12653
267.34725,1.13524
267.10618,1.14258
266.86511,1.14647
266.62404,1.15082
266.38297,1.15920
266.14189,1.16991
265.90082,1.18018
265.65975,1.19160
265.41868,1.20756
265.17761,1.22737
264.93654,1.24514
264.69547,1.25500
264.45440,1.25753
264.21333,1.25866
263.97226,1.26330
263.73119,1.27235
263.49012,1.28500
263.24905,1.30062
263.00798,1.31739
262.76691,1.33251
262.52584,1.34438
262.28477,1.35426
262.04370,1.36604
261.80262,1.38375
261.56155,1.40830
261.32048,1.43678
261.07941,1.46423
260.83834,1.48600
260.59727,1.50095
260.35620,1.51326
260.11513,1.52961
259.87406,1.55484
259.63299,1.59035
259.39192,1.63404
259.15085,1.68113
258.90978,1.72858
258.66871,1.77596
258.42764,1.81961
258.18657,1.84868
257.94550,1.85509
257.70443,1.83729
257.46335,1.80592
257.22228,1.79003
256.98121,1.79203
256.74014,1.79088
256.49907,1.77721
256.25800,1.75986
256.01693,1.74068
255.77586,1.71618
255.53479,1.69402
255.29372,1.68512
255.05265,1.68723
254.81158,1.68537
254.57051,1.66673
254.32944,1.63568
254.08837,1.61078
253.84730,1.60400
253.60623,1.60525
253.36516,1.59512
253.12408,1.57377
252.88301,1.55804
252.64194,1.55453
252.40087,1.55513
252.15980,1.55224
251.91873,1.54651
251.67766,1.53980
251.43659,1.53041
251.19552,1.51958
250.95445,1.51088
250.71338,1.50201
250.47231,1.48780
250.23124,1.47018
249.99017,1.45869
249.74910,1.45970
249.50803,1.46949
249.26696,1.47954
249.02589,1.48588
248.78481,1.48902
248.54374,1.48814
248.30267,1.48229
248.06160,1.47729
247.82053,1.48312
247.57946,1.50003
247.33839,1.51752
247.09732,1.52867
246.85625,1.53563
246.61518,1.54054
246.37411,1.54200
246.13304,1.54127
245.89197,1.54248
245.65090,1.54728
245.40983,1.55494
245.16876,1.56557
244.92769,1.58107
244.68661,1.60573
244.44554,1.64436
244.20447,1.69650
243.96340,1.75213
243.72233,1.79717
243.48126,1.83183
243.24019,1.87131
242.99912,1.92112
242.75805,1.95215
242.51698,1.89970
242.27591,1.80382
242.03484,1.70960
241.79377,1.61799
241.55270,1.52684
241.31163,1.44301
241.07056,1.37331
240.82949,1.31625
240.58842,1.26447
240.34734,1.21336
240.10627,1.16445
239.86520,1.12186
239.62413,1.08718
239.38306,1.05813
239.14199,1.03172
238.90092,1.00719
238.65985,0.98499
238.41878,0.96408
238.17771,0.94254
237.93664,0.92101
237.69557,0.90262
237.45450,0.88853
237.21343,0.87605
236.97236,0.86254
236.73129,0.84905
236.49022,0.83810
236.24915,0.83026
236.00807,0.82435
235.76700,0.81893
235.52593,0.81241
235.28486,0.80333
235.04379,0.79215
234.80272,0.78163
234.56165,0.77473
234.32058,0.77232
234.07951,0.77282
233.83844,0.77382
233.59737,0.77385
233.35630,0.77263
233.11523,0.77029
232.87416,0.76671
232.63309,0.76190
232.39202,0.75669
232.15095,0.75261
231.90988,0.75087
231.66880,0.75128
231.42773,0.75210
231.18666,0.75107
230.94559,0.74738
230.70452,0.74265
230.46345,0.73918
230.22238,0.73750
229.98131,0.73672
229.74024,0.73661
229.49917,0.73769
229.25810,0.73972
229.01703,0.74199
228.77596,0.74412
228.53489,0.74535
228.29382,0.74410
228.05275,0.73986
227.81168,0.73419
227.57061,0.72942
227.32953,0.72740
227.08846,0.72900
226.84739,0.73300
226.60632,0.73627
226.36525,0.73681
226.12418,0.73593
225.88311,0.73591
225.64204,0.73686
225.40097,0.73766
225.15990,0.73837
224.91883,0.73968
224.67776,0.74109
224.43669,0.74173
224.19562,0.74230
223.95455,0.74433
223.71348,0.74798
223.47241,0.75184
223.23134,0.75514
222.99026,0.75885
222.74919,0.76425
222.50812,0.77137
222.26705,0.77914
222.02598,0.78633
221.78491,0.79244
221.54384,0.79802
221.30277,0.80387
221.06170,0.80977
220.82063,0.81564
220.57956,0.82312
220.33849,0.83334
220.09742,0.84451
219.85635,0.85497
219.61528,0.86634
219.37421,0.88034
219.13314,0.89556
218.89207,0.90999
218.65099,0.92341
218.40992,0.93577
218.16885,0.94694
217.92778,0.95852
217.68671,0.97268
217.44564,0.98950
217.20457,1.00683
216.96350,1.02215
216.72243,1.03490
216.48136,1.04682
216.24029,1.05899
215.99922,1.07030
215.75815,1.08069
215.51708,1.09367
215.27601,1.11255
215.03494,1.13560
214.79387,1.15732
214.55280,1.17390
214.31172,1.18500
214.07065,1.19191
213.82958,1.19790
213.58851,1.20741
213.34744,1.22171
213.10637,1.23800
212.86530,1.25416
212.62423,1.26973
212.38316,1.28284
212.14209,1.29154
211.90102,1.29635
211.65995,1.29800
211.41888,1.29759
211.17781,1.29975
210.93674,1.30842
210.69567,1.31920
210.45460,1.32349
210.21353,1.31986
209.97245,1.31443
209.73138,1.31180
209.49031,1.30978
209.24924,1.30327
209.00817,1.29262
208.76710,1.28517
208.52603,1.28657
208.28496,1.29290
208.04389,1.29440
207.80282,1.28659
207.56175,1.27379
207.32068,1.26117
207.07961,1.24938
206.83854,1.23671
206.59747,1.22237
206.35640,1.20758
206.11533,1.19400
205.87426,1.18124
205.63318,1.16666
205.39211,1.14892
205.15104,1.13144
204.90997,1.11952
204.66890,1.11390
204.42783,1.10914
204.18676,1.09881
203.94569,1.08117
203.70462,1.05917
203.46355,1.03730
203.22248,1.02004
202.98141,1.00949
202.74034,1.00243
202.49927,0.99124
202.25820,0.97079
202.01713,0.94397
201.77606,0.91813
201.53499,0.89855
201.29391,0.88567
201.05284,0.87586
200.81177,0.86441
200.57070,0.84941
200.32963,0.83280
200.08856,0.81735
199.84749,0.80440
199.60642,0.79412
199.36535,0.78577
199.12428,0.77720
198.88321,0.76640
198.64214,0.75405
198.40107,0.74277
198.16000,0.73365
197.91893,0.72489
197.67786,0.71422
197.43679,0.70167
197.19572,0.68941
196.95464,0.67962
196.71357,0.67260
196.47250,0.66668
196.23143,0.65921
195.99036,0.64863
195.74929,0.63676
195.50822,0.62773
195.26715,0.62367
195.02608,0.62215
194.78501,0.61871
194.54394,0.61158
194.30287,0.60305
194.06180,0.59656
193.82073,0.59298
193.57966,0.59007
193.33859,0.58529
193.09752,0.57887
192.85645,0.57283
192.61537,0.56772
192.37430,0.56243
192.13323,0.55679
191.89216,0.55258
191.65109,0.55098
191.41002,0.55028
191.16895,0.54740
190.92788,0.54180
190.68681,0.53610
190.44574,0.53255
190.20467,0.53096
189.96360,0.53046
189.72253,0.53109
189.48146,0.53266
189.24039,0.53347
188.99932,0.53203
188.75825,0.52935
188.51718,0.52772
188.27610,0.52735
188.03503,0.52637
187.79396,0.52440
187.55289,0.52335
187.31182,0.52389
187.07075,0.52406
186.82968,0.52225
186.58861,0.51926
186.34754,0.51668
186.10647,0.51525
185.86540,0.51507
185.62433,0.51585
185.38326,0.51699
185.14219,0.51806
184.90112,0.51923
184.66005,0.52062
184.41898,0.52188
184.17791,0.52292
183.93683,0.52477
183.69576,0.52827
183.45469,0.53261
183.21362,0.53643
182.97255,0.53964
182.73148,0.54259
182.49041,0.54474
182.24934,0.54588
182.00827,0.54710
181.76720,0.54875
181.52613,0.54946
181.28506,0.54845
181.04399,0.54723
180.80292,0.54783
180.56185,0.55076
180.32078,0.55517
180.07971,0.55986
179.83864,0.56428
179.59756,0.56899
179.35649,0.57493
179.11542,0.58226
178.87435,0.59036
178.63328,0.59869
178.39221,0.60731
178.15114,0.61654
177.91007,0.62656
177.66900,0.63729
177.42793,0.64880
177.18686,0.66103
176.94579,0.67340
176.70472,0.68627
176.46365,0.70167
176.22258,0.72062
175.98151,0.74099
175.74044,0.76091
175.49937,0.78166
175.25829,0.80488
175.01722,0.83002
174.77615,0.85560
174.53508,0.88001
174.29401,0.90179
174.05294,0.92196
173.81187,0.94316
173.57080,0.96507
173.32973,0.98408
173.08866,0.99798
172.84759,1.00825
172.60652,1.01807
172.36545,1.02904
172.12438,1.03814
171.88331,1.04050
171.64224,1.03701
171.40117,1.03409
171.16010,1.03464
170.91902,1.03491
170.67795,1.03098
170.43688,1.02335
170.19581,1.01397
169.95474,1.00336
169.71367,0.99206
169.47260,0.98119
169.23153,0.97127
168.99046,0.96249
168.74939,0.95606
168.50832,0.95339
168.26725,0.95404
168.02618,0.95580
167.78511,0.95680
167.54404,0.95691
167.30297,0.95731
167.06190,0.95874
166.82083,0.96003
166.57975,0.95966
166.33868,0.95833
166.09761,0.95850
165.85654,0.96198
165.61547,0.96875
165.37440,0.97741
165.13333,0.98747
164.89226,1.00069
164.65119,1.01792
164.41012,1.03521
164.16905,1.04701
163.92798,1.05347
163.68691,1.06051
163.44584,1.07262
163.20477,1.08901
162.96370,1.10647
162.72263,1.12330
162.48156,1.13948
162.24048,1.15457
161.99941,1.16697
161.75834,1.17461
161.51727,1.17576
161.27620,1.17076
161.03513,1.16353
160.79406,1.15970
160.55299,1.16256
160.31192,1.17028
160.07085,1.17582
159.82978,1.17164
159.58871,1.15667
159.34764,1.13614
159.10657,1.11516
158.86550,1.09689
158.62443,1.08451
158.38336,1.07991
158.14229,1.08132
157.90121,1.08465
157.66014,1.08686
157.41907,1.08753
157.17800,1.08696
156.93693,1.08270
156.69586,1.07128
156.45479,1.05497
156.21372,1.04160
155.97265,1.03600
155.73158,1.03502
155.49051,1.03104
155.24944,1.01935
155.00837,1.00225
154.76730,0.98524
154.52623,0.97091
154.28516,0.95871
154.04409,0.94737
153.80302,0.93482
153.56194,0.91784
153.32087,0.89530
153.07980,0.87044
152.83873,0.84710
152.59766,0.82610
152.35659,0.80672
152.11552,0.78926
151.87445,0.77369
151.63338,0.75755
151.39231,0.73821
151.15124,0.71669
150.91017,0.69685
150.66910,0.68056
150.42803,0.66549
150.18696,0.64868
149.94589,0.63047
149.70482,0.61376
149.46375,0.60075
149.22267,0.59141
148.98160,0.58410
148.74053,0.57693
148.49946,0.56893
148.25839,0.56068
148.01732,0.55392
147.77625,0.54993
147.53518,0.54861
147.29411,0.54884
147.05304,0.54924
146.81197,0.54910
146.57090,0.54929
146.32983,0.55153
146.08876,0.55583
145.84769,0.55999
145.60662,0.56272
145.36555,0.56597
145.12448,0.57228
144.88340,0.58130
144.64233,0.59008
144.40126,0.59632
144.16019,0.60006
143.91912,0.60220
143.67805,0.60255
143.43698,0.60020
143.19591,0.59534
142.95484,0.58913
142.71377,0.58176
142.47270,0.57217
142.23163,0.56005
141.99056,0.54696
141.74949,0.53491
141.50842,0.52466
141.26735,0.51620
141.02628,0.51022
140.78521,0.50759
140.54413,0.50749
140.30306,0.50782
140.06199,0.50794
139.82092,0.50907
139.57985,0.51220
139.33878,0.51730
139.09771,0.52408
138.85664,0.53183
138.61557,0.53933
138.37450,0.54655
138.13343,0.55543
137.89236,0.56795
137.65129,0.58383
137.41022,0.60118
137.16915,0.61874
136.92808,0.63670
136.68701,0.65608
136.44594,0.67784
136.20486,0.70245
135.96379,0.72981
135.72272,0.75974
135.48165,0.79222
135.24058,0.82664
134.99951,0.86148
134.75844,0.89569
134.51737,0.92958
134.27630,0.96372
134.03523,0.99793
133.79416,1.03187
133.55309,1.06520
133.31202,1.09726
133.07095,1.12800
132.82988,1.15918
132.58881,1.19122
132.34774,1.21632
132.10667,1.22382
131.86559,1.21489
131.62452,1.20081
131.38345,1.18819
131.14238,1.17486
130.90131,1.15583
130.66024,1.12739
130.41917,1.08875
130.17810,1.04406
129.93703,1.00018
129.69596,0.96088
129.45489,0.92482
129.21382,0.88848
128.97275,0.85010
128.73168,0.81123
128.49061,0.77477
128.24954,0.74183
128.00847,0.71139
127.76740,0.68277
127.52632,0.65631
127.28525,0.63142
127.04418,0.60645
126.80311,0.58140
126.56204,0.55869
126.32097,0.53986
126.07990,0.52386
125.83883,0.50910
125.59776,0.49516
125.35669,0.48202
125.11562,0.46971
124.87455,0.45863
124.63348,0.44889
124.39241,0.44000
124.15134,0.43219
123.91027,0.42653
123.66920,0.42305
123.42812,0.42028
123.18705,0.41731
122.94598,0.41494
122.70491,0.41436
122.46384,0.41585
122.22277,0.41858
121.98170,0.42111
121.74063,0.42236
121.49956,0.42285
121.25849,0.42467
121.01742,0.42983
120.77635,0.43883
120.53528,0.45062
120.29421,0.46368
120.05314,0.47738
119.81207,0.49255
119.57100,0.51056
119.32993,0.53202
119.08885,0.55667
118.84778,0.58427
118.60671,0.61502
118.36564,0.64895
118.12457,0.68511
117.88350,0.72144
117.64243,0.75546
117.40136,0.78440
117.16029,0.80561
116.91922,0.81753
116.67815,0.81988
116.43708,0.81333
116.19601,0.79981
115.95494,0.78176
115.71387,0.76107
115.47280,0.74023
115.23173,0.72275
114.99066,0.71028
114.74958,0.70114
114.50851,0.69306
114.26744,0.68569
114.02637,0.67911
113.78530,0.67212
113.54423,0.66453
113.30316,0.65920
113.06209,0.65902
112.82102,0.66326
112.57995,0.66928
112.33888,0.67585
112.09781,0.68328
111.85674,0.69284
111.61567,0.70697
111.37460,0.72655
111.13353,0.74746
110.89246,0.76353
110.65139,0.77227
110.41031,0.77428
110.16924,0.76883
109.92817,0.75449
109.68710,0.73328
109.44603,0.71024
109.20496,0.68830
108.96389,0.66640
108.72282,0.64305
108.48175,0.61950
108.24068,0.59766
107.99961,0.57683
107.75854,0.55500
107.51747,0.53200
107.27640,0.50971
107.03533,0.48991
106.79426,0.47306
106.55319,0.45897
106.31212,0.44714
106.07104,0.43593
105.82997,0.42278
105.58890,0.40701
105.34783,0.39095
105.10676,0.37696
104.86569,0.36534
104.62462,0.35590
104.38355,0.34923
104.14248,0.34524
103.90141,0.34195
103.66034,0.33668
103.41927,0.32841
103.17820,0.31870
102.93713,0.31016
102.69606,0.30412
102.45499,0.30021
102.21392,0.29741
101.97285,0.29460
101.73177,0.29034
101.49070,0.28429
101.24963,0.27835
101.00856,0.27522
100.76749,0.27565
100.52642,0.27749
100.28535,0.27748
100.04428,0.27359
99.80321,0.26638
99.56214,0.25877
99.32107,0.25418
99.08000,0.25382
98.83893,0.25541
98.59786,0.25522
98.35679,0.25184
98.11572,0.24766
97.87465,0.24666
97.63358,0.25104
97.39250,0.25852
97.15143,0.26364
96.91036,0.26467
96.66929,0.26661
96.42822,0.27429
96.18715,0.28534
95.94608,0.29294
95.70501,0.29544
95.46394,0.29870
95.22287,0.30715
94.98180,0.31803
94.74073,0.32592
94.49966,0.33058
94.25859,0.33523
94.01752,0.33914
93.77645,0.33899
93.53538,0.33641
93.29431,0.33676
93.05323,0.34058
92.81216,0.34323
92.57109,0.34302
92.33002,0.34304
92.08895,0.34466
91.84788,0.34654
91.60681,0.35006
91.36574,0.35969
91.12467,0.37683
90.88360,0.39822
90.64253,0.42178
90.40146,0.45023
90.16039,0.48653
89.91932,0.53043
89.67825,0.58071
89.43718,0.63430
89.19611,0.68294
88.95504,0.71927
88.71396,0.74107
88.47289,0.74320
88.23182,0.72084
87.99075,0.68183
87.74968,0.63674
87.50861,0.58731
87.26754,0.53512
87.02647,0.48709
86.78540,0.44700
86.54433,0.41332
86.30326,0.38523
86.06219,0.36275
85.82112,0.34333
85.58005,0.32377
85.33898,0.30361
85.09791,0.28436
84.85684,0.26755
84.61577,0.25392
84.37469,0.24311
84.13362,0.23414
83.89255,0.22651
83.65148,0.22017
83.41041,0.21486
83.16934,0.21006
82.92827,0.20538
82.68720,0.20078
82.44613,0.19649
82.20506,0.19286
81.96399,0.19009
81.72292,0.18798
81.48185,0.18622
81.24078,0.18491
80.99971,0.18399
80.75864,0.18269
80.51757,0.18058
80.27650,0.17830
80.03542,0.17630
79.79435,0.17425
79.55328,0.17242
79.31221,0.17160
79.07114,0.17157
78.83007,0.17146
78.58900,0.17127
78.34793,0.17125
78.10686,0.17076
77.86579,0.16949
77.62472,0.16837
77.38365,0.16803
77.14258,0.16746
76.90151,0.16563
76.66044,0.16355
76.41937,0.16295
76.17830,0.16386
75.93723,0.16472
75.69615,0.16460
75.45508,0.16379
75.21401,0.16269
74.97294,0.16112
74.73187,0.15864
74.49080,0.15549
74.24973,0.15323
74.00866,0.15398
73.76759,0.15835
73.52652,0.16392
73.28545,0.16662
73.04438,0.16466
72.80331,0.16055
72.56224,0.15837
72.32117,0.15996
72.08010,0.16385
71.83903,0.16684
71.59796,0.16657
71.35688,0.16366
71.11581,0.16149
70.87474,0.16321
70.63367,0.16964
70.39260,0.18039
70.15153,0.19614
69.91046,0.21769
69.66939,0.24266
69.42832,0.26434
69.18725,0.27566
68.94618,0.27395
68.70511,0.26152
68.46404,0.24322
68.22297,0.22384
67.98190,0.20620
67.74083,0.19154
67.49976,0.18082
67.25869,0.17414
67.01761,0.16964
66.77654,0.16498
66.53547,0.15958
66.29440,0.15470
66.05333,0.15194
65.81226,0.15227
65.57119,0.15603
65.33012,0.16311
65.08905,0.17290
64.84798,0.18412
64.60691,0.19511
64.36584,0.20425
64.12477,0.20978
63.88370,0.20969
63.64263,0.20308
63.40156,0.19143
63.16049,0.17798
62.91942,0.16591
62.67834,0.15699
62.43727,0.15111
62.19620,0.14686
61.95513,0.14279
61.71406,0.13849
61.47299,0.13461
61.23192,0.13203
60.99085,0.13127
60.74978,0.13322
60.50871,0.13908
60.26764,0.14886
60.02657,0.16014
59.78550,0.16949
59.54443,0.17525
59.30336,0.17774
59.06229,0.17714
58.82122,0.17286
58.58015,0.16549
58.33907,0.15736
58.09800,0.15051
57.85693,0.14527
57.61586,0.14141
57.37479,0.13914
57.13372,0.13946
56.89265,0.14379
56.65158,0.15266
56.41051,0.16413
56.16944,0.17411
55.92837,0.17884
55.68730,0.17654
55.44623,0.16744
55.20516,0.15399
54.96409,0.14037
54.72302,0.13058
54.48195,0.12747
54.24088,0.13304
53.99980,0.14848
53.75873,0.17280
53.51766,0.19968
53.27659,0.21596
53.03552,0.21010
52.79445,0.18649
52.55338,0.16094
52.31231,0.14607
52.07124,0.14646
51.83017,0.16042
51.58910,0.18161
51.34803,0.19644
51.10696,0.18868
50.86589,0.16128
50.62482,0.13577
50.38375,0.12910
50.14268,0.14740
49.90161,0.18677
49.66053,0.22275
49.41946,0.21472
49.17839,0.17179
48.93732,0.14215
48.69625,0.14993
48.45518,0.18716
48.21411,0.20750
47.97304,0.17900
47.73197,0.14670
47.49090,0.14460
47.24983,0.16205
47.00876,0.16590
46.76769,0.15332
46.52662,0.15173
46.28555,0.16482
46.04448,0.17095
45.80341,0.16438
45.56234,0.16285
45.32126,0.16661
45.08019,0.16120
44.83912,0.15500
44.59805,0.16458
44.35698,0.18143
44.11591,0.19051
43.87484,0.19970
43.63377,0.21430
43.39270,0.21987
43.15163,0.21296
42.91056,0.20559
42.66949,0.20042
42.42842,0.19607
42.18735,0.19719
41.94628,0.19952
41.70521,0.19162
41.46414,0.17673
41.22307,0.16765
40.98199,0.16942
40.74092,0.17858
40.49985,0.18873
40.25878,0.19535
40.01771,0.19937
39.77664,0.20533
39.53557,0.21544
39.29450,0.22751
39.05343,0.23830
38.81236,0.24847
38.57129,0.26202
38.33022,0.27752
38.08915,0.28667
37.84808,0.28514
37.60701,0.27733
37.36594,0.27100
37.12487,0.26974
36.88380,0.27030
36.64272,0.26839
36.40165,0.26442
36.16058,0.25922
35.91951,0.25135
35.67844,0.24344
35.43737,0.24178
35.19630,0.24492
34.95523,0.24366
34.71416,0.23543
34.47309,0.22694
34.23202,0.22258
33.99095,0.21851
33.74988,0.21044
33.50881,0.20468
33.26774,0.21030
33.02667,0.22351
32.78560,0.23515
32.54453,0.24437
32.30345,0.24857
32.06238,0.23603
31.82131,0.20326
31.58024,0.16650
31.33917,0.14436
31.09810,0.13710
30.85703,0.13363
30.61596,0.12875
30.37489,0.12352
30.13382,0.11830
29.89275,0.11361
29.65168,0.10922
29.41061,0.10297
29.16954,0.09445
28.92847,0.08502
28.68740,0.07199
28.44633,0.05056
28.20526,0.02473
27.96418,0.00589
27.72311,-0.00140
27.48204,-0.00274
27.24097,-0.00641
26.99990,-0.01896
26.75883,-0.03754
26.51776,-0.04905
26.27669,-0.04857
26.03562,-0.04766
25.79455,-0.05863
25.55348,-0.08174
25.31241,-0.10897
25.07134,-0.13114
24.83027,-0.14193
24.58920,-0.14210
24.34813,-0.14196
24.10706,-0.15249
23.86599,-0.17205
23.62491,-0.19057
23.38384,-0.20518
23.14277,-0.22319
22.90170,-0.24810
22.66063,-0.27098
22.41956,-0.27742
22.17849,-0.26420
21.93742,-0.24479
21.69635,-0.23354
21.45528,-0.23458
21.21421,-0.24376
20.97314,-0.25279
20.73207,-0.25567
20.49100,-0.25631
20.24993,-0.26263
20.00886,-0.27347
19.76779,-0.28509
19.52672,-0.30008
19.28564,-0.31909
19.04457,-0.33960
18.80350,-0.35887
18.56243,-0.36957
18.32136,-0.36370
18.08029,-0.34591
17.83922,-0.33370
17.59815,-0.33752
17.35708,-0.34749
17.11601,-0.34805
16.87494,-0.33803
16.63387,-0.32536
16.39280,-0.31982
16.15173,-0.32815
15.91066,-0.35055
15.66959,-0.37740
15.42852,-0.39078
15.18745,-0.38872
14.94637,-0.38900
14.70530,-0.40328
14.46423,-0.42970
14.22316,-0.46075
13.98209,-0.49120
13.74102,-0.51221
13.49995,-0.50509
13.25888,-0.47826
13.01781,-0.45237
12.77674,-0.43276
12.53567,-0.41706
12.29460,-0.40535
12.05353,-0.39770
11.81246,-0.39468
11.57139,-0.40484
11.33032,-0.42720
11.08925,-0.44518
10.84818,-0.45109
10.60710,-0.44743
10.36603,-0.42525
10.12496,-0.40111
9.88389,-0.39350
9.64282,-0.40731
9.40175,-0.43409
9.16068,-0.45165
8.91961,-0.43023
8.67854,-0.42740
8.43747,-0.44376
8.19640,-0.46414
7.95533,-0.47451
7.71426,-0.45688
7.47319,-0.44155
7.23212,-0.43493
6.99105,-0.43408
6.74998,-0.43826
6.50891,-0.44760
6.26783,-0.45592
6.02676,-0.45794
5.78569,-0.45511
5.54462,-0.45399
5.30355,-0.46115
5.06248,-0.47260
4.82141,-0.48179
4.58034,-0.48638
4.33927,-0.47766
4.09820,-0.45542
3.85713,-0.43431
3.61606,-0.42298
3.37499,-0.41686
3.13392,-0.41316
2.89285,-0.41460
2.65178,-0.40838
2.41071,-0.39599
2.16964,-0.39742
1.92856,-0.41040
1.68749,-0.41774
1.44642,-0.42073
1.20535,-0.42206
0.96428,-0.42175
0.72321,-0.45219
0.48214,-0.53372
0.24107,-0.50759
-0.00000,-0.19475
