399.69498,1.85301
399.45391,1.89451
399.21284,1.95211
398.97177,1.96439
398.73070,1.89675
398.48963,1.81441
398.24856,1.76905
398.00749,1.75110
397.76642,1.72614
397.52535,1.68970
397.28428,1.67326
397.04321,1.69407
396.80214,1.73511
396.56107,1.75984
396.32000,1.77667
396.07892,1.84221
395.83785,1.96228
395.59678,2.04672
395.35571,2.00490
395.11464,1.89960
394.87357,1.86257
394.63250,1.89373
394.39143,1.95071
394.15036,2.03866
393.90929,2.19125
393.66822,2.29548
393.42715,2.21048
393.18608,2.09921
392.94501,2.05963
392.70394,2.05738
392.46287,2.04388
392.22180,2.04723
391.98073,2.02909
391.73965,1.98107
391.49858,1.94222
391.25751,2.05273
391.01644,2.36833
390.77537,2.14565
390.53430,1.95078
390.29323,2.01258
390.05216,2.18762
389.81109,2.10619
389.57002,1.95481
389.32895,1.92371
389.08788,1.97327
388.84681,2.00579
388.60574,1.99872
388.36467,2.00514
388.12360,2.05116
387.88253,2.13065
387.64146,2.21003
387.40038,2.19590
387.15931,2.08289
386.91824,1.96976
386.67717,2.03581
386.43610,2.32648
386.19503,2.14651
385.95396,1.98871
385.71289,1.96421
385.47182,1.99937
385.23075,2.04299
384.98968,2.06610
384.74861,2.16828
384.50754,2.06274
384.26647,1.86214
384.02540,1.86068
383.78433,2.04633
383.54326,2.30088
383.30219,2.21826
383.06111,1.95748
382.82004,1.87391
382.57897,1.89544
382.33790,1.89879
382.09683,1.90256
381.85576,1.92651
381.61469,1.80020
381.37362,1.73183
381.13255,1.80119
380.89148,1.92042
380.65041,1.97970
380.40934,1.90133
380.16827,1.92817
379.92720,2.05479
379.68613,2.22161
379.44506,2.06870
379.20399,1.92720
378.96292,1.92194
378.72184,2.04156
378.48077,2.07459
378.23970,2.02118
377.99863,1.97426
377.75756,1.95951
377.51649,2.03051
377.27542,1.97457
377.03435,1.88781
376.79328,2.00678
376.55221,2.34004
376.31114,2.27619
376.07007,2.09320
375.82900,2.07268
375.58793,2.13351
375.34686,2.26157
375.10579,2.33409
374.86472,2.11899
374.62365,2.02644
374.38257,2.17762
374.14150,2.34103
373.90043,2.14099
373.65936,1.94637
373.41829,1.90266
373.17722,1.99020
372.93615,2.12176
372.69508,2.08388
372.45401,1.90437
372.21294,1.78288
371.97187,1.75140
371.73080,1.75470
371.48973,1.75510
371.24866,1.73408
371.00759,1.72400
370.76652,1.73439
370.52545,1.72883
370.28437,1.67286
370.04330,1.59614
369.80223,1.54688
369.56116,1.54051
369.32009,1.57278
369.07902,1.60443
368.83795,1.58354
368.59688,1.51906
368.35581,1.45718
368.11474,1.41775
367.87367,1.39859
367.63260,1.39741
367.39153,1.40945
367.15046,1.42036
366.90939,1.41900
366.66832,1.41195
366.42725,1.41412
366.18618,1.43435
365.94510,1.47156
365.70403,1.51570
365.46296,1.54602
365.22189,1.54195
364.98082,1.50379
364.73975,1.44933
364.49868,1.40267
364.25761,1.38364
364.01654,1.39067
363.77547,1.40135
363.53440,1.39579
363.29333,1.37369
363.05226,1.34882
362.81119,1.33716
362.57012,1.34336
362.32905,1.35450
362.08798,1.35620
361.84691,1.35194
361.60583,1.35566
361.36476,1.37291
361.12369,1.39368
360.88262,1.40261
360.64155,1.39442
360.40048,1.37796
360.15941,1.36838
359.91834,1.37536
359.67727,1.40127
359.43620,1.43044
359.19513,1.43121
358.95406,1.40369
358.71299,1.37781
358.47192,1.36653
358.23085,1.36632
357.98978,1.37577
357.74871,1.38889
357.50764,1.39056
357.26656,1.37449
357.02549,1.35270
356.78442,1.34061
356.54335,1.34548
356.30228,1.36455
356.06121,1.38961
355.82014,1.41430
355.57907,1.43076
355.33800,1.43193
355.09693,1.42075
354.85586,1.40299
354.61479,1.38299
354.37372,1.37286
354.13265,1.38481
353.89158,1.41009
353.65051,1.42417
353.40944,1.41944
353.16837,1.40414
352.92729,1.38395
352.68622,1.36881
352.44515,1.37028
352.20408,1.38650
351.96301,1.40058
351.72194,1.40103
351.48087,1.39663
351.23980,1.39421
350.99873,1.38370
350.75766,1.36212
350.51659,1.34532
350.27552,1.34958
350.03445,1.37747
349.79338,1.41946
349.55231,1.46258
349.31124,1.49442
349.07017,1.50326
348.82910,1.48983
348.58802,1.47741
348.34695,1.48415
348.10588,1.49763
347.86481,1.48735
347.62374,1.43966
347.38267,1.38953
347.14160,1.37876
346.90053,1.41208
346.65946,1.46895
346.41839,1.52455
346.17732,1.55444
345.93625,1.55306
345.69518,1.53496
345.45411,1.51321
345.21304,1.50490
344.97197,1.52440
344.73090,1.56078
344.48983,1.58019
344.24875,1.56376
344.00768,1.53256
343.76661,1.51286
343.52554,1.51170
343.28447,1.51807
343.04340,1.51829
342.80233,1.51612
342.56126,1.52572
342.32019,1.56017
342.07912,1.61316
341.83805,1.65332
341.59698,1.66981
341.35591,1.67768
341.11484,1.67229
340.87377,1.64990
340.63270,1.61431
340.39163,1.59114
340.15056,1.61353
339.90948,1.67468
339.66841,1.73304
339.42734,1.77674
339.18627,1.82089
338.94520,1.84618
338.70413,1.84742
338.46306,1.83985
338.22199,1.84836
337.98092,1.90691
337.73985,1.97192
337.49878,1.98703
337.25771,1.98962
337.01664,1.95521
336.77557,1.87108
336.53450,1.80073
336.29343,1.77217
336.05236,1.79402
335.81129,1.85397
335.57021,1.91723
335.32914,1.95177
335.08807,1.88948
334.84700,1.77691
334.60593,1.71872
334.36486,1.72225
334.12379,1.75132
333.88272,1.77848
333.64165,1.82132
333.40058,1.87695
333.15951,1.88902
332.91844,1.84777
332.67737,1.82416
332.43630,1.82517
332.19523,1.78358
331.95416,1.69474
331.71309,1.63842
331.47202,1.63997
331.23094,1.65465
330.98987,1.64434
330.74880,1.63549
330.50773,1.64180
330.26666,1.64481
330.02559,1.64243
329.78452,1.63879
329.54345,1.62626
329.30238,1.60479
329.06131,1.58147
328.82024,1.57613
328.57917,1.59684
328.33810,1.60280
328.09703,1.57253
327.85596,1.55526
327.61489,1.58856
327.37382,1.65183
327.13275,1.69202
326.89167,1.66893
326.65060,1.58431
326.40953,1.50882
326.16846,1.49365
325.92739,1.54496
325.68632,1.62467
325.44525,1.66957
325.20418,1.67225
324.96311,1.67678
324.72204,1.68864
324.48097,1.67437
324.23990,1.65518
323.99883,1.66765
323.75776,1.70572
323.51669,1.73089
323.27562,1.72997
323.03455,1.72235
322.79348,1.72593
322.55240,1.74431
322.31133,1.78072
322.07026,1.84561
321.82919,1.91904
321.58812,1.91484
321.34705,1.81096
321.10598,1.71237
320.86491,1.68184
320.62384,1.70042
320.38277,1.74105
320.14170,1.80214
319.90063,1.93062
319.65956,2.19863
319.41849,2.47255
319.17742,2.44078
318.93635,2.30971
318.69528,2.14814
318.45421,2.07310
318.21313,2.16888
317.97206,2.28661
317.73099,2.11257
317.48992,1.99533
317.24885,1.97091
317.00778,2.05044
316.76671,2.22747
316.52564,2.24502
316.28457,2.10626
316.04350,1.92932
315.80243,1.78979
315.56136,1.73336
315.32029,1.74551
315.07922,1.76822
314.83815,1.79155
314.59708,1.85745
314.35601,1.96521
314.11494,2.07794
313.87386,2.17788
313.63279,2.19520
313.39172,2.10621
313.15065,2.15345
312.90958,2.29987
312.66851,2.33365
312.42744,2.15676
312.18637,2.01434
311.94530,1.97358
311.70423,2.00180
311.46316,2.08442
311.22209,2.16438
310.98102,2.31003
310.73995,2.10588
310.49888,2.02656
310.25781,2.23150
310.01674,2.74234
309.77567,2.34679
309.53459,2.08175
309.29352,2.05125
309.05245,2.06450
308.81138,1.99547
308.57031,1.94662
308.32924,2.01193
308.08817,2.09968
307.84710,2.09040
307.60603,2.04669
307.36496,1.92451
307.12389,1.78277
306.88282,1.66159
306.64175,1.58010
306.40068,1.55466
306.15961,1.57087
305.91854,1.58955
305.67747,1.58874
305.43640,1.57991
305.19532,1.58003
304.95425,1.59111
304.71318,1.59713
304.47211,1.58220
304.23104,1.56116
303.98997,1.55637
303.74890,1.55215
303.50783,1.52160
303.26676,1.48627
303.02569,1.46660
302.78462,1.46061
302.54355,1.45266
302.30248,1.42984
302.06141,1.39653
301.82034,1.36801
301.57927,1.35192
301.33820,1.34377
301.09713,1.33578
300.85605,1.32625
300.61498,1.32244
300.37391,1.33030
300.13284,1.34096
299.89177,1.33576
299.65070,1.30779
299.40963,1.27233
299.16856,1.24595
298.92749,1.22874
298.68642,1.21599
298.44535,1.20720
298.20428,1.20350
297.96321,1.20115
297.72214,1.19648
297.48107,1.19631
297.24000,1.20344
296.99893,1.20809
296.75786,1.20299
296.51678,1.19109
296.27571,1.17784
296.03464,1.16796
295.79357,1.16384
295.55250,1.16215
295.31143,1.15780
295.07036,1.15051
294.82929,1.14512
294.58822,1.14522
294.34715,1.14806
294.10608,1.14819
293.86501,1.14357
293.62394,1.13577
293.38287,1.12737
293.14180,1.12066
292.90073,1.11624
292.65966,1.11297
292.41859,1.10938
292.17751,1.10469
291.93644,1.09959
291.69537,1.09597
291.45430,1.09306
291.21323,1.08619
290.97216,1.07367
290.73109,1.06126
290.49002,1.05568
290.24895,1.05763
290.00788,1.06386
289.76681,1.07143
289.52574,1.07635
289.28467,1.07467
289.04360,1.06622
288.80253,1.05307
288.56146,1.03767
288.32039,1.02450
288.07932,1.01955
287.83824,1.02420
287.59717,1.03060
287.35610,1.03000
287.11503,1.02346
286.87396,1.01557
286.63289,1.00728
286.39182,1.00075
286.15075,1.00014
285.90968,1.00539
285.66861,1.01163
285.42754,1.01599
285.18647,1.01924
284.94540,1.02037
284.70433,1.01691
284.46326,1.01026
284.22219,1.00443
283.98112,1.00152
283.74005,1.00160
283.49897,1.00449
283.25790,1.00897
283.01683,1.01212
282.77576,1.01200
282.53469,1.01084
282.29362,1.01362
282.05255,1.02132
281.81148,1.02763
281.57041,1.02609
281.32934,1.01867
281.08827,1.01255
280.84720,1.01135
280.60613,1.01335
280.36506,1.01480
280.12399,1.01376
279.88292,1.01167
279.64185,1.01077
279.40078,1.01032
279.15970,1.00741
278.91863,1.00203
278.67756,0.99771
278.43649,0.99631
278.19542,0.99704
277.95435,0.99994
277.71328,1.00517
277.47221,1.01031
277.23114,1.01247
276.99007,1.01131
276.74900,1.00898
276.50793,1.00892
276.26686,1.01183
276.02579,1.01279
275.78472,1.00795
275.54365,1.00062
275.30258,0.99632
275.06151,0.99647
274.82043,0.99871
274.57936,1.00085
274.33829,1.00360
274.09722,1.00917
273.85615,1.01596
273.61508,1.01730
273.37401,1.01095
273.13294,1.00491
272.89187,1.00763
272.65080,1.01814
272.40973,1.02850
272.16866,1.03267
271.92759,1.03115
271.68652,1.02747
271.44545,1.02313
271.20438,1.01874
270.96331,1.01755
270.72224,1.02245
270.48116,1.03002
270.24009,1.03329
269.99902,1.03136
269.75795,1.03040
269.51688,1.03392
269.27581,1.04014
269.03474,1.04797
268.79367,1.05843
268.55260,1.07116
268.31153,1.08268
268.07046,1.08933
267.82939,1.09111
267.58832,1.09161
267.34725,1.09323
267.10618,1.09400
266.86511,1.09156
266.62404,1.08795
266.38297,1.08650
266.14189,1.08763
265.90082,1.09181
265.65975,1.10254
265.41868,1.11982
265.17761,1.13628
264.93654,1.14465
264.69547,1.14370
264.45440,1.13818
264.21333,1.13650
263.97226,1.14319
263.73119,1.15288
263.49012,1.15833
263.24905,1.16316
263.00798,1.17669
262.76691,1.19987
262.52584,1.22566
262.28477,1.24881
262.04370,1.26745
261.80262,1.27879
261.56155,1.28023
261.32048,1.27580
261.07941,1.27528
260.83834,1.28592
260.59727,1.30913
260.35620,1.34014
260.11513,1.36960
259.87406,1.39239
259.63299,1.41265
259.39192,1.43503
259.15085,1.45729
258.90978,1.47449
258.66871,1.48934
258.42764,1.51331
258.18657,1.54617
257.94550,1.57105
257.70443,1.57583
257.46335,1.56686
257.22228,1.56288
256.98121,1.57700
256.74014,1.61138
256.49907,1.67144
256.25800,1.77605
256.01693,1.92760
255.77586,2.04144
255.53479,1.99893
255.29372,1.87747
255.05265,1.81226
254.81158,1.83112
254.57051,1.88460
254.32944,1.91053
254.08837,1.91270
253.84730,1.94764
253.60623,2.04067
253.36516,2.15216
253.12408,2.20513
252.88301,2.18887
252.64194,2.16944
252.40087,2.18891
252.15980,2.27615
251.91873,2.34990
251.67766,2.26911
251.43659,2.16165
251.19552,2.07992
250.95445,2.01541
250.71338,1.97896
250.47231,1.99563
250.23124,2.14362
249.99017,2.37912
249.74910,2.32290
249.50803,2.28050
249.26696,2.43662
249.02589,2.81957
248.78481,2.90756
248.54374,2.58002
248.30267,2.33806
248.06160,2.29333
247.82053,2.44336
247.57946,2.60235
247.33839,2.42565
247.09732,2.22122
246.85625,2.05987
246.61518,1.96988
246.37411,1.95534
246.13304,2.00688
245.89197,2.14256
245.65090,2.31327
245.40983,2.23268
245.16876,2.01149
244.92769,1.88116
244.68661,1.82261
244.44554,1.78726
244.20447,1.74689
243.96340,1.69819
243.72233,1.64617
243.48126,1.60106
243.24019,1.56722
242.99912,1.53199
242.75805,1.48551
242.51698,1.43237
242.27591,1.37876
242.03484,1.32445
241.79377,1.26443
241.55270,1.20310
241.31163,1.15257
241.07056,1.11688
240.82949,1.08992
240.58842,1.06351
240.34734,1.03425
240.10627,1.00395
239.86520,0.97635
239.62413,0.95356
239.38306,0.93258
239.14199,0.90804
238.90092,0.88088
238.65985,0.85778
238.41878,0.84128
238.17771,0.82761
237.93664,0.81379
237.69557,0.80123
237.45450,0.79165
237.21343,0.78451
236.97236,0.77897
236.73129,0.77426
236.49022,0.76830
236.24915,0.75894
236.00807,0.74770
235.76700,0.73934
235.52593,0.73581
235.28486,0.73272
235.04379,0.72473
234.80272,0.71312
234.56165,0.70376
234.32058,0.69957
234.07951,0.69912
233.83844,0.70002
233.59737,0.69911
233.35630,0.69292
233.11523,0.68285
232.87416,0.67618
232.63309,0.67770
232.39202,0.68345
232.15095,0.68581
231.90988,0.68284
231.66880,0.67833
231.42773,0.67398
231.18666,0.66779
230.94559,0.66050
230.70452,0.65759
230.46345,0.66265
230.22238,0.67162
229.98131,0.67640
229.74024,0.67417
229.49917,0.67020
229.25810,0.67022
229.01703,0.67331
228.77596,0.67437
228.53489,0.67112
228.29382,0.66570
228.05275,0.66058
227.81168,0.65677
227.57061,0.65544
227.32953,0.65807
227.08846,0.66462
226.84739,0.67243
226.60632,0.67753
226.36525,0.67809
226.12418,0.67677
225.88311,0.67762
225.64204,0.68106
225.40097,0.68416
225.15990,0.68525
224.91883,0.68588
224.67776,0.68806
224.43669,0.69146
224.19562,0.69387
223.95455,0.69353
223.71348,0.69079
223.47241,0.68782
223.23134,0.68717
222.99026,0.69051
222.74919,0.69830
222.50812,0.70924
222.26705,0.71970
222.02598,0.72558
221.78491,0.72618
221.54384,0.72510
221.30277,0.72685
221.06170,0.73354
220.82063,0.74432
220.57956,0.75599
220.33849,0.76522
220.09742,0.77168
219.85635,0.77799
219.61528,0.78625
219.37421,0.79624
219.13314,0.80648
218.89207,0.81498
218.65099,0.82040
218.40992,0.82437
218.16885,0.83176
217.92778,0.84623
217.68671,0.86469
217.44564,0.87828
217.20457,0.88206
216.96350,0.88179
216.72243,0.88750
216.48136,0.90254
216.24029,0.92183
215.99922,0.93876
215.75815,0.95127
215.51708,0.96234
215.27601,0.97596
215.03494,0.99132
214.79387,1.00337
214.55280,1.01120
214.31172,1.02016
214.07065,1.03254
213.82958,1.04292
213.58851,1.04696
213.34744,1.04817
213.10637,1.05291
212.86530,1.06369
212.62423,1.07736
212.38316,1.08822
212.14209,1.09327
211.90102,1.09304
211.65995,1.08984
211.41888,1.08758
211.17781,1.09014
210.93674,1.09685
210.69567,1.10154
210.45460,1.10000
210.21353,1.09602
209.97245,1.09488
209.73138,1.09506
209.49031,1.09219
209.24924,1.08656
209.00817,1.08098
208.76710,1.07660
208.52603,1.07383
208.28496,1.07141
208.04389,1.06557
207.80282,1.05518
207.56175,1.04398
207.32068,1.03453
207.07961,1.02549
206.83854,1.01589
206.59747,1.00698
206.35640,0.99912
206.11533,0.99080
205.87426,0.98199
205.63318,0.97450
205.39211,0.96807
205.15104,0.96062
204.90997,0.95256
204.66890,0.94611
204.42783,0.94082
204.18676,0.93451
203.94569,0.92680
203.70462,0.91774
203.46355,0.90551
203.22248,0.88941
202.98141,0.87197
202.74034,0.85614
202.49927,0.84304
202.25820,0.83212
202.01713,0.82193
201.77606,0.81126
201.53499,0.79973
201.29391,0.78748
201.05284,0.77507
200.81177,0.76324
200.57070,0.75212
200.32963,0.74168
200.08856,0.73251
199.84749,0.72419
199.60642,0.71393
199.36535,0.70011
199.12428,0.68599
198.88321,0.67626
198.64214,0.67113
198.40107,0.66604
198.16000,0.65699
197.91893,0.64473
197.67786,0.63309
197.43679,0.62435
197.19572,0.61770
196.95464,0.61141
196.71357,0.60528
196.47250,0.59993
196.23143,0.59467
195.99036,0.58762
195.74929,0.57809
195.50822,0.56813
195.26715,0.56093
195.02608,0.55697
194.78501,0.55300
194.54394,0.54602
194.30287,0.53725
194.06180,0.53033
193.82073,0.52708
193.57966,0.52622
193.33859,0.52517
193.09752,0.52216
192.85645,0.51723
192.61537,0.51170
192.37430,0.50730
192.13323,0.50547
191.89216,0.50589
191.65109,0.50564
191.41002,0.50168
191.16895,0.49443
190.92788,0.48718
190.68681,0.48246
190.44574,0.48047
190.20467,0.47969
189.96360,0.47823
189.72253,0.47580
189.48146,0.47445
189.24039,0.47570
188.99932,0.47788
188.75825,0.47775
188.51718,0.47421
188.27610,0.46897
188.03503,0.46454
187.79396,0.46238
187.55289,0.46259
187.31182,0.46448
187.07075,0.46681
186.82968,0.46796
186.58861,0.46705
186.34754,0.46515
186.10647,0.46425
185.86540,0.46482
185.62433,0.46565
185.38326,0.46597
185.14219,0.46646
184.90112,0.46810
184.66005,0.47036
184.41898,0.47141
184.17791,0.47073
183.93683,0.47030
183.69576,0.47202
183.45469,0.47492
183.21362,0.47638
182.97255,0.47551
182.73148,0.47387
182.49041,0.47328
182.24934,0.47441
182.00827,0.47714
181.76720,0.48073
181.52613,0.48373
181.28506,0.48506
181.04399,0.48520
180.80292,0.48585
180.56185,0.48855
180.32078,0.49341
180.07971,0.49859
179.83864,0.50165
179.59756,0.50236
179.35649,0.50341
179.11542,0.50712
178.87435,0.51270
178.63328,0.51798
178.39221,0.52313
178.15114,0.53074
177.91007,0.54238
177.66900,0.55620
177.42793,0.56836
177.18686,0.57753
176.94579,0.58717
176.70472,0.60146
176.46365,0.62007
176.22258,0.63931
175.98151,0.65699
175.74044,0.67391
175.49937,0.69105
175.25829,0.70821
175.01722,0.72537
174.77615,0.74333
174.53508,0.76219
174.29401,0.78062
174.05294,0.79819
173.81187,0.81701
173.57080,0.83831
173.32973,0.85806
173.08866,0.86974
172.84759,0.87223
172.60652,0.87130
172.36545,0.87280
172.12438,0.87718
171.88331,0.88037
171.64224,0.87840
171.40117,0.87157
171.16010,0.86448
170.91902,0.86175
170.67795,0.86344
170.43688,0.86427
170.19581,0.85913
169.95474,0.84979
169.71367,0.84165
169.47260,0.83613
169.23153,0.83155
168.99046,0.82745
168.74939,0.82334
168.50832,0.81629
168.26725,0.80497
168.02618,0.79437
167.78511,0.79134
167.54404,0.79674
167.30297,0.80435
167.06190,0.80815
166.82083,0.80889
166.57975,0.81136
166.33868,0.81748
166.09761,0.82594
165.85654,0.83529
165.61547,0.84338
165.37440,0.84807
165.13333,0.85104
164.89226,0.85612
164.65119,0.86353
164.41012,0.87107
164.16905,0.87989
163.92798,0.89231
163.68691,0.90600
163.44584,0.91598
163.20477,0.92188
162.96370,0.92864
162.72263,0.94033
162.48156,0.95555
162.24048,0.96740
161.99941,0.96892
161.75834,0.96155
161.51727,0.95542
161.27620,0.95849
161.03513,0.96749
160.79406,0.97247
160.55299,0.96978
160.31192,0.96435
160.07085,0.95926
159.82978,0.95257
159.58871,0.94432
159.34764,0.93800
159.10657,0.93325
158.86550,0.92483
158.62443,0.91208
158.38336,0.90172
158.14229,0.89892
157.90121,0.90137
157.66014,0.90311
157.41907,0.90088
157.17800,0.89563
156.93693,0.89063
156.69586,0.88910
156.45479,0.89085
156.21372,0.89169
155.97265,0.88894
155.73158,0.88521
155.49051,0.88356
155.24944,0.88208
155.00837,0.87541
154.76730,0.86015
154.52623,0.83863
154.28516,0.81680
154.04409,0.79889
153.80302,0.78457
153.56194,0.77044
153.32087,0.75399
153.07980,0.73648
152.83873,0.72074
152.59766,0.70671
152.35659,0.69182
152.11552,0.67554
151.87445,0.65951
151.63338,0.64341
151.39231,0.62543
151.15124,0.60625
150.91017,0.58841
150.66910,0.57260
150.42803,0.55788
150.18696,0.54439
149.94589,0.53347
149.70482,0.52556
149.46375,0.51930
149.22267,0.51281
148.98160,0.50557
148.74053,0.49834
148.49946,0.49160
148.25839,0.48513
148.01732,0.47925
147.77625,0.47492
147.53518,0.47214
147.29411,0.46969
147.05304,0.46727
146.81197,0.46707
146.57090,0.47135
146.32983,0.47890
146.08876,0.48537
145.84769,0.48797
145.60662,0.48849
145.36555,0.49066
145.12448,0.49577
144.88340,0.50203
144.64233,0.50779
144.40126,0.51318
144.16019,0.51888
143.91912,0.52467
143.67805,0.52893
143.43698,0.52875
143.19591,0.52202
142.95484,0.51062
142.71377,0.49876
142.47270,0.48850
142.23163,0.47915
141.99056,0.47016
141.74949,0.46157
141.50842,0.45306
141.26735,0.44481
141.02628,0.43824
140.78521,0.43441
140.54413,0.43273
140.30306,0.43197
140.06199,0.43201
139.82092,0.43376
139.57985,0.43766
139.33878,0.44281
139.09771,0.44816
138.85664,0.45411
138.61557,0.46177
138.37450,0.47089
138.13343,0.47977
137.89236,0.48823
137.65129,0.49917
137.41022,0.51524
137.16915,0.53458
136.92808,0.55280
136.68701,0.56897
136.44594,0.58667
136.20486,0.60914
135.96379,0.63516
135.72272,0.66005
135.48165,0.68142
135.24058,0.70336
134.99951,0.73173
134.75844,0.76524
134.51737,0.79579
134.27630,0.81890
134.03523,0.83903
133.79416,0.86193
133.55309,0.88649
133.31202,0.90689
133.07095,0.91974
132.82988,0.92657
132.58881,0.93126
132.34774,0.93626
132.10667,0.94015
131.86559,0.93954
131.62452,0.93415
131.38345,0.92632
131.14238,0.91630
130.90131,0.90269
130.66024,0.88502
130.41917,0.86483
130.17810,0.84523
129.93703,0.82673
129.69596,0.80422
129.45489,0.77254
129.21382,0.73355
128.97275,0.69296
128.73168,0.65481
128.49061,0.62199
128.24954,0.59649
128.00847,0.57639
127.76740,0.55677
127.52632,0.53563
127.28525,0.51506
127.04418,0.49629
126.80311,0.47827
126.56204,0.46104
126.32097,0.44630
126.07990,0.43369
125.83883,0.42067
125.59776,0.40672
125.35669,0.39447
125.11562,0.38533
124.87455,0.37716
124.63348,0.36784
124.39241,0.35856
124.15134,0.35187
123.91027,0.34810
123.66920,0.34529
123.42812,0.34166
123.18705,0.33750
122.94598,0.33463
122.70491,0.33434
122.46384,0.33621
122.22277,0.33876
121.98170,0.34047
121.74063,0.34058
121.49956,0.33995
121.25849,0.34096
121.01742,0.34578
120.77635,0.35466
120.53528,0.36595
120.29421,0.37746
120.05314,0.38808
119.81207,0.39879
119.57100,0.41230
119.32993,0.43114
119.08885,0.45531
118.84778,0.48194
118.60671,0.50795
118.36564,0.53253
118.12457,0.55637
117.88350,0.57892
117.64243,0.59853
117.40136,0.61469
117.16029,0.62814
116.91922,0.63877
116.67815,0.64526
116.43708,0.64650
116.19601,0.64179
115.95494,0.63094
115.71387,0.61515
115.47280,0.59641
115.23173,0.57603
114.99066,0.55569
114.74958,0.53929
114.50851,0.53057
114.26744,0.52837
114.02637,0.52817
113.78530,0.52782
113.54423,0.52763
113.30316,0.52681
113.06209,0.52481
112.82102,0.52454
112.57995,0.52982
112.33888,0.53981
112.09781,0.54977
111.85674,0.55723
111.61567,0.56420
111.37460,0.57337
111.13353,0.58416
110.89246,0.59233
110.65139,0.59314
110.41031,0.58601
110.16924,0.57470
109.92817,0.56279
109.68710,0.55078
109.44603,0.53726
109.20496,0.52146
108.96389,0.50444
108.72282,0.48808
108.48175,0.47272
108.24068,0.45644
107.99961,0.43736
107.75854,0.41640
107.51747,0.39690
107.27640,0.38183
107.03533,0.37107
106.79426,0.36144
106.55319,0.34993
106.31212,0.33675
106.07104,0.32495
105.82997,0.31755
105.58890,0.31451
105.34783,0.31202
105.10676,0.30523
104.86569,0.29269
104.62462,0.27793
104.38355,0.26633
104.14248,0.26038
103.90141,0.25785
103.66034,0.25469
103.41927,0.24932
103.17820,0.24303
102.93713,0.23711
102.69606,0.23163
102.45499,0.22677
102.21392,0.22316
101.97285,0.22081
101.73177,0.21883
101.49070,0.21619
101.24963,0.21246
101.00856,0.20834
100.76749,0.20504
100.52642,0.20306
100.28535,0.20170
100.04428,0.19997
99.80321,0.19725
99.56214,0.19337
99.32107,0.18884
99.08000,0.18478
98.83893,0.18222
98.59786,0.18159
98.35679,0.18247
98.11572,0.18335
97.87465,0.18309
97.63358,0.18294
97.39250,0.18516
97.15143,0.18975
96.91036,0.19515
96.66929,0.20122
96.42822,0.20853
96.18715,0.21568
95.94608,0.22063
95.70501,0.22417
95.46394,0.22955
95.22287,0.23831
94.98180,0.24794
94.74073,0.25454
94.49966,0.25761
94.25859,0.25997
94.01752,0.26296
93.77645,0.26482
93.53538,0.26439
93.29431,0.26314
93.05323,0.26267
92.81216,0.26286
92.57109,0.26320
92.33002,0.26422
92.08895,0.26669
91.84788,0.27042
91.60681,0.27499
91.36574,0.28120
91.12467,0.29098
90.88360,0.30590
90.64253,0.32623
90.40146,0.35153
90.16039,0.38170
89.91932,0.41729
89.67825,0.45812
89.43718,0.50080
89.19611,0.53782
88.95504,0.56138
88.71396,0.56942
88.47289,0.56511
88.23182,0.55085
87.99075,0.52686
87.74968,0.49449
87.50861,0.45751
87.26754,0.41981
87.02647,0.38389
86.78540,0.35145
86.54433,0.32385
86.30326,0.30102
86.06219,0.28071
85.82112,0.26056
85.58005,0.24054
85.33898,0.22236
85.09791,0.20751
84.85684,0.19644
84.61577,0.18814
84.37469,0.18058
84.13362,0.17294
83.89255,0.16667
83.65148,0.16258
83.41041,0.15852
83.16934,0.15212
82.92827,0.14405
82.68720,0.13723
82.44613,0.13382
82.20506,0.13356
81.96399,0.13404
81.72292,0.13307
81.48185,0.13075
81.24078,0.12848
80.99971,0.12683
80.75864,0.12525
80.51757,0.12323
80.27650,0.12085
80.03542,0.11852
79.79435,0.11661
79.55328,0.11508
79.31221,0.11394
79.07114,0.11361
78.83007,0.11442
78.58900,0.11594
78.34793,0.11672
78.10686,0.11542
77.86579,0.11259
77.62472,0.11023
77.38365,0.10914
77.14258,0.10848
76.90151,0.10744
76.66044,0.10559
76.41937,0.10260
76.17830,0.09937
75.93723,0.09803
75.69615,0.09892
75.45508,0.09969
75.21401,0.09844
74.97294,0.09589
74.73187,0.09379
74.49080,0.09318
74.24973,0.09447
74.00866,0.09730
73.76759,0.10032
73.52652,0.10209
73.28545,0.10191
73.04438,0.09978
72.80331,0.09662
72.56224,0.09454
72.32117,0.09524
72.08010,0.09818
71.83903,0.10126
71.59796,0.10317
71.35688,0.10440
71.11581,0.10614
70.87474,0.10943
70.63367,0.11523
70.39260,0.12410
70.15153,0.13510
69.91046,0.14612
69.66939,0.15597
69.42832,0.16490
69.18725,0.17207
68.94618,0.17458
68.70511,0.17038
68.46404,0.16052
68.22297,0.14778
67.98190,0.13478
67.74083,0.12324
67.49976,0.11369
67.25869,0.10635
67.01761,0.10253
66.77654,0.10299
66.53547,0.10516
66.29440,0.10509
66.05333,0.10234
65.81226,0.10039
65.57119,0.10217
65.33012,0.10699
65.08905,0.11145
64.84798,0.11289
64.60691,0.11233
64.36584,0.11323
64.12477,0.11675
63.88370,0.12018
63.64263,0.12084
63.40156,0.11907
63.16049,0.11618
62.91942,0.11225
62.67834,0.10718
62.43727,0.10201
62.19620,0.09784
61.95513,0.09466
61.71406,0.09205
61.47299,0.08976
61.23192,0.08712
60.99085,0.08361
60.74978,0.08041
60.50871,0.07933
60.26764,0.08008
60.02657,0.08097
59.78550,0.08182
59.54443,0.08318
59.30336,0.08357
59.06229,0.08086
58.82122,0.07651
58.58015,0.07454
58.33907,0.07633
58.09800,0.07918
57.85693,0.08027
57.61586,0.07958
57.37479,0.07851
57.13372,0.07756
56.89265,0.07628
56.65158,0.07387
56.41051,0.06977
56.16944,0.06533
55.92837,0.06367
55.68730,0.06651
55.44623,0.07218
55.20516,0.07728
54.96409,0.07908
54.72302,0.07726
54.48195,0.07436
54.24088,0.07351
53.99980,0.07515
53.75873,0.07727
53.51766,0.07856
53.27659,0.07915
53.03552,0.07920
52.79445,0.07887
52.55338,0.07922
52.31231,0.08163
52.07124,0.08582
51.83017,0.08820
51.58910,0.08407
51.34803,0.07375
51.10696,0.06428
50.86589,0.06130
50.62482,0.06273
50.38375,0.06419
50.14268,0.06567
49.90161,0.06888
49.66053,0.07181
49.41946,0.07110
49.17839,0.06701
48.93732,0.06127
48.69625,0.05489
48.45518,0.05103
48.21411,0.05345
47.97304,0.05996
47.73197,0.06366
47.49090,0.06169
47.24983,0.05640
47.00876,0.04948
46.76769,0.04259
46.52662,0.04162
46.28555,0.05153
46.04448,0.06666
45.80341,0.07315
45.56234,0.06428
45.32126,0.04897
45.08019,0.04152
44.83912,0.04612
44.59805,0.05536
44.35698,0.06076
44.11591,0.05989
43.87484,0.05594
43.63377,0.05389
43.39270,0.05540
43.15163,0.05681
42.91056,0.05432
42.66949,0.05035
42.42842,0.05059
42.18735,0.05617
41.94628,0.06269
41.70521,0.06589
41.46414,0.06692
41.22307,0.07232
40.98199,0.08680
40.74092,0.10518
40.49985,0.11447
40.25878,0.10905
40.01771,0.10089
39.77664,0.10494
39.53557,0.11893
39.29450,0.12874
39.05343,0.12826
38.81236,0.12362
38.57129,0.12130
38.33022,0.12155
38.08915,0.12153
37.84808,0.11803
37.60701,0.10994
37.36594,0.10204
37.12487,0.10322
36.88380,0.11607
36.64272,0.13131
36.40165,0.13750
36.16058,0.13355
35.91951,0.12937
35.67844,0.13203
35.43737,0.13601
35.19630,0.13323
34.95523,0.12607
34.71416,0.12511
34.47309,0.13447
34.23202,0.14683
33.99095,0.15497
33.74988,0.16093
33.50881,0.17187
33.26774,0.18946
33.02667,0.20563
32.78560,0.21050
32.54453,0.20368
32.30345,0.19339
32.06238,0.18605
31.82131,0.18186
31.58024,0.17772
31.33917,0.17279
31.09810,0.16839
30.85703,0.16739
30.61596,0.17098
30.37489,0.17317
30.13382,0.16461
29.89275,0.14926
29.65168,0.14392
29.41061,0.15183
29.16954,0.15817
28.92847,0.15535
28.68740,0.15291
28.44633,0.16162
28.20526,0.18224
27.96418,0.21894
27.72311,0.25815
27.48204,0.27398
27.24097,0.27930
26.99990,0.29772
26.75883,0.30722
26.51776,0.30390
26.27669,0.31081
26.03562,0.32922
25.79455,0.34995
25.55348,0.36387
25.31241,0.36289
25.07134,0.35445
24.83027,0.34067
24.58920,0.32350
24.34813,0.32660
24.10706,0.36920
23.86599,0.44664
23.62491,0.54278
23.38384,0.64458
23.14277,0.67259
22.90170,0.59315
22.66063,0.49993
22.41956,0.45089
22.17849,0.43945
21.93742,0.44606
21.69635,0.46277
21.45528,0.48900
21.21421,0.51772
20.97314,0.53571
20.73207,0.51927
20.49100,0.48158
20.24993,0.50694
20.00886,0.66258
19.76779,0.85350
19.52672,0.75508
19.28564,0.52831
19.04457,0.39882
18.80350,0.39701
18.56243,0.50700
18.32136,0.71096
18.08029,0.88093
17.83922,0.79723
17.59815,0.69050
17.35708,0.66280
17.11601,0.67629
16.87494,0.75170
16.63387,0.97729
16.39280,1.20844
16.15173,0.91102
15.91066,0.80214
15.66959,0.86853
15.42852,0.83681
15.18745,0.84469
14.94637,0.91573
14.70530,0.85026
14.46423,0.65945
14.22316,0.53581
13.98209,0.54029
13.74102,0.59799
13.49995,0.64142
13.25888,0.70165
13.01781,0.85603
12.77674,1.17924
12.53567,1.13894
12.29460,0.88607
12.05353,0.84724
11.81246,0.97512
11.57139,1.17878
11.33032,1.07655
11.08925,0.85733
10.84818,0.76475
10.60710,0.76318
10.36603,0.82902
10.12496,0.93420
9.88389,1.02452
9.64282,0.97702
9.40175,0.85336
9.16068,0.67863
8.91961,0.53850
8.67854,0.50492
8.43747,0.59439
8.19640,0.75222
7.95533,0.82217
7.71426,0.76313
7.47319,0.73539
7.23212,0.80132
6.99105,0.86020
6.74998,0.88197
6.50891,0.77687
6.26783,0.57639
6.02676,0.48639
5.78569,0.57970
5.54462,0.86221
5.30355,1.20007
5.06248,1.17570
4.82141,0.96192
4.58034,1.04327
4.33927,1.46596
4.09820,0.93796
3.85713,0.62732
3.61606,0.64935
3.37499,0.89710
3.13392,1.01081
2.89285,0.58498
2.65178,0.38186
2.41071,0.42918
2.16964,0.66114
1.92856,0.87770
1.68749,0.77345
1.44642,0.70474
1.20535,0.62834
0.96428,0.55451
0.72321,0.49742
0.48214,0.45092
0.24107,0.39715
-0.00000,-0.01170
