399.69498,1.50196
399.45391,1.51109
399.21284,1.50444
398.97177,1.48795
398.73070,1.47560
398.48963,1.47318
398.24856,1.47609
398.00749,1.47804
397.76642,1.47646
397.52535,1.47249
397.28428,1.47109
397.04321,1.47791
396.80214,1.49227
396.56107,1.50532
396.32000,1.50823
396.07892,1.50130
395.83785,1.49312
395.59678,1.49177
395.35571,1.49722
395.11464,1.50510
394.87357,1.51399
394.63250,1.51957
394.39143,1.50864
394.15036,1.48142
393.90929,1.46224
393.66822,1.47007
393.42715,1.49579
393.18608,1.51180
392.94501,1.50420
392.70394,1.48562
392.46287,1.47343
392.22180,1.47356
391.98073,1.48299
391.73965,1.49755
391.49858,1.51356
391.25751,1.52523
391.01644,1.53201
390.77537,1.53986
390.53430,1.54753
390.29323,1.54598
390.05216,1.53348
389.81109,1.52121
389.57002,1.52072
389.32895,1.52964
389.08788,1.53610
388.84681,1.53490
388.60574,1.53089
388.36467,1.52772
388.12360,1.51627
387.88253,1.48878
387.64146,1.45959
387.40038,1.44641
387.15931,1.44729
386.91824,1.44741
386.67717,1.44134
386.43610,1.43773
386.19503,1.43589
385.95396,1.42369
385.71289,1.40191
385.47182,1.38163
385.23075,1.36609
384.98968,1.35351
384.74861,1.34693
384.50754,1.35073
384.26647,1.35848
384.02540,1.35781
383.78433,1.34924
383.54326,1.34458
383.30219,1.34492
383.06111,1.33996
382.82004,1.32954
382.57897,1.32562
382.33790,1.32960
382.09683,1.32721
381.85576,1.31244
381.61469,1.29217
381.37362,1.27031
381.13255,1.25407
380.89148,1.25867
380.65041,1.28418
380.40934,1.30519
380.16827,1.30125
379.92720,1.27995
379.68613,1.25907
379.44506,1.25074
379.20399,1.26187
378.96292,1.28875
378.72184,1.31118
378.48077,1.31225
378.23970,1.30017
377.99863,1.29251
377.75756,1.29395
377.51649,1.30006
377.27542,1.30851
377.03435,1.31763
376.79328,1.32652
376.55221,1.33520
376.31114,1.34104
376.07007,1.34270
375.82900,1.34308
375.58793,1.34471
375.34686,1.35035
375.10579,1.36721
374.86472,1.39778
374.62365,1.42669
374.38257,1.43028
374.14150,1.40840
373.90043,1.38565
373.65936,1.37854
373.41829,1.38223
373.17722,1.38066
372.93615,1.36914
372.69508,1.35841
372.45401,1.35263
372.21294,1.34561
371.97187,1.33565
371.73080,1.32853
371.48973,1.32657
371.24866,1.32436
371.00759,1.31818
370.76652,1.30997
370.52545,1.30110
370.28437,1.29307
370.04330,1.29056
369.80223,1.29481
369.56116,1.29784
369.32009,1.29075
369.07902,1.27492
368.83795,1.25804
368.59688,1.24486
368.35581,1.23486
368.11474,1.22542
367.87367,1.21589
367.63260,1.20818
367.39153,1.20338
367.15046,1.19925
366.90939,1.19234
366.66832,1.18377
366.42725,1.17996
366.18618,1.18491
365.94510,1.19585
365.70403,1.20668
365.46296,1.21205
365.22189,1.21036
364.98082,1.20448
364.73975,1.19800
364.49868,1.19177
364.25761,1.18567
364.01654,1.18100
363.77547,1.17802
363.53440,1.17564
363.29333,1.17404
363.05226,1.17439
362.81119,1.17593
362.57012,1.17468
362.32905,1.16895
362.08798,1.16197
361.84691,1.15558
361.60583,1.14960
361.36476,1.14639
361.12369,1.14857
360.88262,1.15336
360.64155,1.15427
360.40048,1.14903
360.15941,1.14239
359.91834,1.13919
359.67727,1.13833
359.43620,1.13524
359.19513,1.12941
358.95406,1.12595
358.71299,1.12823
358.47192,1.13314
358.23085,1.13577
357.98978,1.13664
357.74871,1.13917
357.50764,1.14184
357.26656,1.14063
357.02549,1.13720
356.78442,1.13689
356.54335,1.14024
356.30228,1.14256
356.06121,1.14097
355.82014,1.13765
355.57907,1.13650
355.33800,1.13943
355.09693,1.14446
354.85586,1.14582
354.61479,1.13942
354.37372,1.12975
354.13265,1.12480
353.89158,1.12464
353.65051,1.12264
353.40944,1.11682
353.16837,1.11245
352.92729,1.11431
352.68622,1.12229
352.44515,1.13295
352.20408,1.14270
351.96301,1.15031
351.72194,1.15680
351.48087,1.16290
351.23980,1.16610
350.99873,1.16248
350.75766,1.15233
350.51659,1.14059
350.27552,1.13221
350.03445,1.12866
349.79338,1.12960
349.55231,1.13598
349.31124,1.14835
349.07017,1.16277
348.82910,1.17154
348.58802,1.17095
348.34695,1.16686
348.10588,1.16778
347.86481,1.17462
347.62374,1.18147
347.38267,1.18462
347.14160,1.18580
346.90053,1.18831
346.65946,1.19408
346.41839,1.20260
346.17732,1.21088
345.93625,1.21619
345.69518,1.21856
345.45411,1.21993
345.21304,1.22210
344.97197,1.22665
344.73090,1.23439
344.48983,1.24201
344.24875,1.24286
344.00768,1.23559
343.76661,1.22729
343.52554,1.22475
343.28447,1.22844
343.04340,1.23479
342.80233,1.24101
342.56126,1.24741
342.32019,1.25578
342.07912,1.26619
341.83805,1.27549
341.59698,1.28257
341.35591,1.29137
341.11484,1.30313
340.87377,1.31109
340.63270,1.30972
340.39163,1.30466
340.15056,1.30515
339.90948,1.31257
339.66841,1.32287
339.42734,1.33275
339.18627,1.34018
338.94520,1.34500
338.70413,1.34769
338.46306,1.35049
338.22199,1.35593
337.98092,1.36130
337.73985,1.36071
337.49878,1.35507
337.25771,1.35454
337.01664,1.36746
336.77557,1.39085
336.53450,1.41166
336.29343,1.42031
336.05236,1.41981
335.81129,1.41425
335.57021,1.39958
335.32914,1.37584
335.08807,1.35561
334.84700,1.35221
334.60593,1.36577
334.36486,1.37949
334.12379,1.37745
333.88272,1.36378
333.64165,1.35292
333.40058,1.35050
333.15951,1.35275
332.91844,1.35735
332.67737,1.36382
332.43630,1.36514
332.19523,1.35205
331.95416,1.32924
331.71309,1.31240
331.47202,1.30631
331.23094,1.30280
330.98987,1.29571
330.74880,1.28635
330.50773,1.27707
330.26666,1.26920
330.02559,1.26337
329.78452,1.25655
329.54345,1.24745
329.30238,1.24328
329.06131,1.25084
328.82024,1.26618
328.57917,1.27879
328.33810,1.27969
328.09703,1.26463
327.85596,1.23978
327.61489,1.22255
327.37382,1.22391
327.13275,1.23580
326.89167,1.24355
326.65060,1.24496
326.40953,1.24957
326.16846,1.26295
325.92739,1.28144
325.68632,1.29545
325.44525,1.29451
325.20418,1.27870
324.96311,1.25978
324.72204,1.24746
324.48097,1.24473
324.23990,1.25033
323.99883,1.25832
323.75776,1.26120
323.51669,1.25683
323.27562,1.25105
323.03455,1.25121
322.79348,1.25799
322.55240,1.26719
322.31133,1.27760
322.07026,1.29405
321.82919,1.32023
321.58812,1.34787
321.34705,1.35854
321.10598,1.34864
320.86491,1.33573
320.62384,1.33068
320.38277,1.32924
320.14170,1.32723
319.90063,1.33025
319.65956,1.34094
319.41849,1.34803
319.17742,1.34363
318.93635,1.33693
318.69528,1.33788
318.45421,1.34096
318.21313,1.33305
317.97206,1.31639
317.73099,1.30421
317.48992,1.29960
317.24885,1.29588
317.00778,1.29334
316.76671,1.30116
316.52564,1.32154
316.28457,1.34221
316.04350,1.34838
315.80243,1.33986
315.56136,1.33055
315.32029,1.33426
315.07922,1.35272
314.83815,1.37190
314.59708,1.37552
314.35601,1.36676
314.11494,1.36016
313.87386,1.35836
313.63279,1.35473
313.39172,1.34808
313.15065,1.34304
312.90958,1.34245
312.66851,1.34641
312.42744,1.35434
312.18637,1.36583
311.94530,1.38157
311.70423,1.39959
311.46316,1.41151
311.22209,1.40960
310.98102,1.39408
310.73995,1.37336
310.49888,1.35759
310.25781,1.35387
310.01674,1.36363
309.77567,1.37811
309.53459,1.38526
309.29352,1.38055
309.05245,1.37046
308.81138,1.36710
308.57031,1.37232
308.32924,1.37691
308.08817,1.37515
307.84710,1.36994
307.60603,1.36747
307.36496,1.37350
307.12389,1.38949
306.88282,1.41024
306.64175,1.42924
306.40068,1.44085
306.15961,1.43740
305.91854,1.41934
305.67747,1.40096
305.43640,1.39388
305.19532,1.39292
304.95425,1.38527
304.71318,1.36935
304.47211,1.35512
304.23104,1.35299
303.98997,1.36426
303.74890,1.37344
303.50783,1.36000
303.26676,1.32679
303.02569,1.30106
302.78462,1.30334
302.54355,1.32697
302.30248,1.34538
302.06141,1.33986
301.82034,1.31831
301.57927,1.30021
301.33820,1.29359
301.09713,1.29521
300.85605,1.29983
300.61498,1.30093
300.37391,1.29264
300.13284,1.27651
299.89177,1.25997
299.65070,1.24732
299.40963,1.23710
299.16856,1.22684
298.92749,1.21601
298.68642,1.20636
298.44535,1.20070
298.20428,1.19932
297.96321,1.19920
297.72214,1.19828
297.48107,1.19753
297.24000,1.19652
296.99893,1.19096
296.75786,1.17872
296.51678,1.16437
296.27571,1.15493
296.03464,1.15377
295.79357,1.15869
295.55250,1.16331
295.31143,1.16181
295.07036,1.15499
294.82929,1.14958
294.58822,1.14989
294.34715,1.15187
294.10608,1.14756
293.86501,1.13605
293.62394,1.12586
293.38287,1.12466
293.14180,1.12981
292.90073,1.13150
292.65966,1.12468
292.41859,1.11478
292.17751,1.10972
291.93644,1.11024
291.69537,1.11063
291.45430,1.10662
291.21323,1.09904
290.97216,1.09065
290.73109,1.08321
290.49002,1.07705
290.24895,1.07185
290.00788,1.06805
289.76681,1.06736
289.52574,1.07107
289.28467,1.07799
289.04360,1.08377
288.80253,1.08309
288.56146,1.07454
288.32039,1.06313
288.07932,1.05518
287.83824,1.05189
287.59717,1.05009
287.35610,1.04855
287.11503,1.04991
286.87396,1.05513
286.63289,1.06098
286.39182,1.06499
286.15075,1.06741
285.90968,1.06756
285.66861,1.06249
285.42754,1.05190
285.18647,1.04135
284.94540,1.03761
284.70433,1.04212
284.46326,1.04929
284.22219,1.05192
283.98112,1.04940
283.74005,1.04650
283.49897,1.04494
283.25790,1.04218
283.01683,1.03780
282.77576,1.03463
282.53469,1.03370
282.29362,1.03364
282.05255,1.03421
281.81148,1.03614
281.57041,1.03854
281.32934,1.04001
281.08827,1.04113
280.84720,1.04326
280.60613,1.04621
280.36506,1.04830
280.12399,1.04770
279.88292,1.04372
279.64185,1.03799
279.40078,1.03375
279.15970,1.03310
278.91863,1.03537
278.67756,1.03876
278.43649,1.04241
278.19542,1.04598
277.95435,1.04875
277.71328,1.05040
277.47221,1.05122
277.23114,1.05169
276.99007,1.05211
276.74900,1.05211
276.50793,1.05027
276.26686,1.04595
276.02579,1.04115
275.78472,1.03849
275.54365,1.03850
275.30258,1.04107
275.06151,1.04671
274.82043,1.05362
274.57936,1.05764
274.33829,1.05783
274.09722,1.05748
273.85615,1.05920
273.61508,1.06312
273.37401,1.06819
273.13294,1.07243
272.89187,1.07488
272.65080,1.07792
272.40973,1.08304
272.16866,1.08671
271.92759,1.08580
271.68652,1.08324
271.44545,1.08361
271.20438,1.08698
270.96331,1.09019
270.72224,1.09198
270.48116,1.09388
270.24009,1.09721
269.99902,1.10136
269.75795,1.10540
269.51688,1.10999
269.27581,1.11620
269.03474,1.12359
268.79367,1.13112
268.55260,1.13750
268.31153,1.14001
268.07046,1.13734
267.82939,1.13428
267.58832,1.13836
267.34725,1.15131
267.10618,1.16667
266.86511,1.17688
266.62404,1.18123
266.38297,1.18457
266.14189,1.19033
265.90082,1.19839
265.65975,1.20803
265.41868,1.21864
265.17761,1.22871
264.93654,1.23835
264.69547,1.25020
264.45440,1.26477
264.21333,1.27900
263.97226,1.29118
263.73119,1.30267
263.49012,1.31451
263.24905,1.32755
263.00798,1.34498
262.76691,1.36898
262.52584,1.39490
262.28477,1.41347
262.04370,1.42221
261.80262,1.43131
261.56155,1.45282
261.32048,1.48589
261.07941,1.51871
260.83834,1.54516
260.59727,1.56997
260.35620,1.59798
260.11513,1.62696
259.87406,1.65010
259.63299,1.66621
259.39192,1.68354
259.15085,1.70880
258.90978,1.74113
258.66871,1.77460
258.42764,1.80290
258.18657,1.82360
257.94550,1.83520
257.70443,1.83609
257.46335,1.83528
257.22228,1.83837
256.98121,1.83182
256.74014,1.80630
256.49907,1.77718
256.25800,1.76642
256.01693,1.77959
255.77586,1.79813
255.53479,1.79343
255.29372,1.76403
255.05265,1.73598
254.81158,1.72729
254.57051,1.73197
254.32944,1.73119
254.08837,1.71979
253.84730,1.70052
253.60623,1.67014
253.36516,1.63257
253.12408,1.60042
252.88301,1.58309
252.64194,1.58196
252.40087,1.59010
252.15980,1.59450
251.91873,1.58677
251.67766,1.57123
251.43659,1.55682
251.19552,1.55010
250.95445,1.55024
250.71338,1.54763
250.47231,1.53627
250.23124,1.52210
249.99017,1.51396
249.74910,1.51492
249.50803,1.52355
249.26696,1.53545
249.02589,1.54490
248.78481,1.55072
248.54374,1.55524
248.30267,1.55993
248.06160,1.56566
247.82053,1.57059
247.57946,1.56936
247.33839,1.56348
247.09732,1.56740
246.85625,1.59159
246.61518,1.62387
246.37411,1.63951
246.13304,1.63323
245.89197,1.62168
245.65090,1.61607
245.40983,1.61513
245.16876,1.61670
244.92769,1.62527
244.68661,1.64897
244.44554,1.69288
244.20447,1.75252
243.96340,1.81222
243.72233,1.85729
243.48126,1.88402
243.24019,1.90082
242.99912,1.93134
242.75805,1.94827
242.51698,1.83970
242.27591,1.73668
242.03484,1.65525
241.79377,1.56854
241.55270,1.47739
241.31163,1.40144
241.07056,1.35004
240.82949,1.31249
240.58842,1.27357
240.34734,1.22895
240.10627,1.18411
239.86520,1.14372
239.62413,1.10664
239.38306,1.07049
239.14199,1.03606
238.90092,1.00586
238.65985,0.98148
238.41878,0.96286
238.17771,0.94797
237.93664,0.93425
237.69557,0.92099
237.45450,0.90884
237.21343,0.89722
236.97236,0.88454
236.73129,0.87058
236.49022,0.85716
236.24915,0.84641
236.00807,0.83929
235.76700,0.83463
235.52593,0.82906
235.28486,0.82021
235.04379,0.81015
234.80272,0.80316
234.56165,0.80016
234.32058,0.79801
234.07951,0.79421
233.83844,0.78903
233.59737,0.78375
233.35630,0.78008
233.11523,0.77978
232.87416,0.78218
232.63309,0.78395
232.39202,0.78279
232.15095,0.77869
231.90988,0.77241
231.66880,0.76529
231.42773,0.75932
231.18666,0.75576
230.94559,0.75475
230.70452,0.75579
230.46345,0.75733
230.22238,0.75731
229.98131,0.75522
229.74024,0.75227
229.49917,0.74978
229.25810,0.74901
229.01703,0.75113
228.77596,0.75521
228.53489,0.75773
228.29382,0.75612
228.05275,0.75167
227.81168,0.74727
227.57061,0.74477
227.32953,0.74493
227.08846,0.74760
226.84739,0.75125
226.60632,0.75415
226.36525,0.75588
226.12418,0.75668
225.88311,0.75644
225.64204,0.75569
225.40097,0.75610
225.15990,0.75832
224.91883,0.76037
224.67776,0.76024
224.43669,0.75950
224.19562,0.76179
223.95455,0.76762
223.71348,0.77374
223.47241,0.77802
223.23134,0.78166
222.99026,0.78607
222.74919,0.79138
222.50812,0.79709
222.26705,0.80196
222.02598,0.80505
221.78491,0.80838
221.54384,0.81531
221.30277,0.82591
221.06170,0.83682
220.82063,0.84519
220.57956,0.85112
220.33849,0.85668
220.09742,0.86320
219.85635,0.87079
219.61528,0.87996
219.37421,0.89130
219.13314,0.90372
218.89207,0.91561
218.65099,0.92765
218.40992,0.94222
218.16885,0.96042
217.92778,0.98096
217.68671,1.00058
217.44564,1.01522
217.20457,1.02307
216.96350,1.02667
216.72243,1.03180
216.48136,1.04430
216.24029,1.06624
215.99922,1.09372
215.75815,1.11812
215.51708,1.13186
215.27601,1.13508
215.03494,1.13572
214.79387,1.14176
214.55280,1.15498
214.31172,1.17385
214.07065,1.19867
213.82958,1.22737
213.58851,1.24853
213.34744,1.25174
213.10637,1.24413
212.86530,1.24048
212.62423,1.24636
212.38316,1.25891
212.14209,1.27437
211.90102,1.28881
211.65995,1.29662
211.41888,1.29638
211.17781,1.29390
210.93674,1.29602
210.69567,1.30556
210.45460,1.32048
210.21353,1.33463
209.97245,1.34096
209.73138,1.33655
209.49031,1.32556
209.24924,1.31577
209.00817,1.31175
208.76710,1.31416
208.52603,1.32104
208.28496,1.32706
208.04389,1.32477
207.80282,1.31023
207.56175,1.28987
207.32068,1.27501
207.07961,1.26795
206.83854,1.25972
206.59747,1.24214
206.35640,1.21833
206.11533,1.19854
205.87426,1.18889
205.63318,1.18549
205.39211,1.17704
205.15104,1.15642
204.90997,1.12981
204.66890,1.10882
204.42783,1.09806
204.18676,1.09220
203.94569,1.08221
203.70462,1.06438
203.46355,1.04330
203.22248,1.02561
202.98141,1.01322
202.74034,1.00292
202.49927,0.98993
202.25820,0.97182
202.01713,0.95040
201.77606,0.92978
201.53499,0.91316
201.29391,0.90051
201.05284,0.88829
200.81177,0.87357
200.57070,0.85767
200.32963,0.84398
200.08856,0.83403
199.84749,0.82568
199.60642,0.81522
199.36535,0.80193
199.12428,0.78909
198.88321,0.77985
198.64214,0.77361
198.40107,0.76685
198.16000,0.75629
197.91893,0.74225
197.67786,0.72844
197.43679,0.71768
197.19572,0.70938
196.95464,0.70129
196.71357,0.69235
196.47250,0.68334
196.23143,0.67487
195.99036,0.66604
195.74929,0.65569
195.50822,0.64461
195.26715,0.63522
195.02608,0.62878
194.78501,0.62406
194.54394,0.61872
194.30287,0.61166
194.06180,0.60424
193.82073,0.59912
193.57966,0.59702
193.33859,0.59502
193.09752,0.58983
192.85645,0.58288
192.61537,0.57901
192.37430,0.57977
192.13323,0.58082
191.89216,0.57696
191.65109,0.56903
191.41002,0.56239
191.16895,0.55958
190.92788,0.55795
190.68681,0.55455
190.44574,0.55047
190.20467,0.54843
189.96360,0.54814
189.72253,0.54690
189.48146,0.54399
189.24039,0.54119
188.99932,0.53919
188.75825,0.53722
188.51718,0.53576
188.27610,0.53593
188.03503,0.53669
187.79396,0.53598
187.55289,0.53399
187.31182,0.53248
187.07075,0.53197
186.82968,0.53155
186.58861,0.53050
186.34754,0.52934
186.10647,0.52913
185.86540,0.53008
185.62433,0.53145
185.38326,0.53309
185.14219,0.53544
184.90112,0.53765
184.66005,0.53863
184.41898,0.53955
184.17791,0.54203
183.93683,0.54486
183.69576,0.54624
183.45469,0.54730
183.21362,0.54958
182.97255,0.55194
182.73148,0.55351
182.49041,0.55615
182.24934,0.56033
182.00827,0.56326
181.76720,0.56373
181.52613,0.56370
181.28506,0.56392
181.04399,0.56319
180.80292,0.56233
180.56185,0.56392
180.32078,0.56807
180.07971,0.57205
179.83864,0.57451
179.59756,0.57739
179.35649,0.58261
179.11542,0.58913
178.87435,0.59548
178.63328,0.60291
178.39221,0.61253
178.15114,0.62262
177.91007,0.63235
177.66900,0.64398
177.42793,0.65811
177.18686,0.67165
176.94579,0.68303
176.70472,0.69496
176.46365,0.71027
176.22258,0.72859
175.98151,0.74777
175.74044,0.76654
175.49937,0.78564
175.25829,0.80672
175.01722,0.83075
174.77615,0.85791
174.53508,0.88749
174.29401,0.91701
174.05294,0.94323
173.81187,0.96507
173.57080,0.98343
173.32973,0.99844
173.08866,1.00906
172.84759,1.01591
172.60652,1.02168
172.36545,1.02705
172.12438,1.02977
171.88331,1.02979
171.64224,1.02957
171.40117,1.02881
171.16010,1.02566
170.91902,1.02261
170.67795,1.02359
170.43688,1.02624
170.19581,1.02368
169.95474,1.01373
169.71367,1.00078
169.47260,0.99020
169.23153,0.98389
168.99046,0.97994
168.74939,0.97571
168.50832,0.97143
168.26725,0.96942
168.02618,0.97005
167.78511,0.97057
167.54404,0.96823
167.30297,0.96251
167.06190,0.95463
166.82083,0.94737
166.57975,0.94489
166.33868,0.94982
166.09761,0.95994
165.85654,0.96989
165.61547,0.97736
165.37440,0.98568
165.13333,0.99913
164.89226,1.01704
164.65119,1.03349
164.41012,1.04380
164.16905,1.04905
163.92798,1.05290
163.68691,1.05775
163.44584,1.06615
163.20477,1.08245
162.96370,1.10828
162.72263,1.13638
162.48156,1.15335
162.24048,1.15336
161.99941,1.14480
161.75834,1.13883
161.51727,1.13927
161.27620,1.14536
161.03513,1.15664
160.79406,1.16986
160.55299,1.17653
160.31192,1.17090
160.07085,1.15628
159.82978,1.14072
159.58871,1.13105
159.34764,1.12921
159.10657,1.13147
158.86550,1.13219
158.62443,1.12915
158.38336,1.12432
158.14229,1.11951
157.90121,1.11449
157.66014,1.10969
157.41907,1.10648
157.17800,1.10271
156.93693,1.09240
156.69586,1.07385
156.45479,1.05462
156.21372,1.04406
155.97265,1.04331
155.73158,1.04476
155.49051,1.03960
155.24944,1.02488
155.00837,1.00483
154.76730,0.98626
154.52623,0.97204
154.28516,0.95963
154.04409,0.94573
153.80302,0.92958
153.56194,0.91201
153.32087,0.89375
153.07980,0.87605
152.83873,0.85976
152.59766,0.84228
152.35659,0.82014
152.11552,0.79470
151.87445,0.77136
151.63338,0.75387
151.39231,0.74141
151.15124,0.72983
150.91017,0.71501
150.66910,0.69595
150.42803,0.67517
150.18696,0.65658
149.94589,0.64219
149.70482,0.63024
149.46375,0.61790
149.22267,0.60520
148.98160,0.59456
148.74053,0.58704
148.49946,0.58071
148.25839,0.57313
148.01732,0.56477
147.77625,0.55884
147.53518,0.55768
147.29411,0.55994
147.05304,0.56181
146.81197,0.56089
146.57090,0.55842
146.32983,0.55737
146.08876,0.55940
145.84769,0.56381
145.60662,0.56893
145.36555,0.57432
145.12448,0.58106
144.88340,0.58927
144.64233,0.59652
144.40126,0.60085
144.16019,0.60399
143.91912,0.60845
143.67805,0.61277
143.43698,0.61307
143.19591,0.60858
142.95484,0.60162
142.71377,0.59286
142.47270,0.58118
142.23163,0.56740
141.99056,0.55433
141.74949,0.54386
141.50842,0.53600
141.26735,0.53007
141.02628,0.52526
140.78521,0.52115
140.54413,0.51836
140.30306,0.51795
140.06199,0.51985
139.82092,0.52292
139.57985,0.52616
139.33878,0.52938
139.09771,0.53298
138.85664,0.53745
138.61557,0.54300
138.37450,0.54972
138.13343,0.55825
137.89236,0.56949
137.65129,0.58355
137.41022,0.60029
137.16915,0.62055
136.92808,0.64490
136.68701,0.67149
136.44594,0.69752
136.20486,0.72226
135.96379,0.74671
135.72272,0.77178
135.48165,0.79909
135.24058,0.83088
134.99951,0.86687
134.75844,0.90355
134.51737,0.93850
134.27630,0.97282
134.03523,1.00762
133.79416,1.04146
133.55309,1.07293
133.31202,1.10351
133.07095,1.13497
132.82988,1.16423
132.58881,1.18515
132.34774,1.19714
132.10667,1.20443
131.86559,1.20900
131.62452,1.20899
131.38345,1.19982
131.14238,1.17814
130.90131,1.14731
130.66024,1.11489
130.41917,1.08444
130.17810,1.05294
129.93703,1.01563
129.69596,0.97172
129.45489,0.92469
129.21382,0.87829
128.97275,0.83433
128.73168,0.79375
128.49061,0.75767
128.24954,0.72624
128.00847,0.69776
127.76740,0.67037
127.52632,0.64417
127.28525,0.62052
127.04418,0.59967
126.80311,0.58051
126.56204,0.56252
126.32097,0.54626
126.07990,0.53160
125.83883,0.51751
125.59776,0.50386
125.35669,0.49156
125.11562,0.48079
124.87455,0.47073
124.63348,0.46058
124.39241,0.44981
124.15134,0.43869
123.91027,0.42900
123.66920,0.42277
123.42812,0.41998
123.18705,0.41847
122.94598,0.41620
122.70491,0.41311
122.46384,0.41130
122.22277,0.41326
121.98170,0.41901
121.74063,0.42574
121.49956,0.43084
121.25849,0.43466
121.01742,0.43943
120.77635,0.44680
120.53528,0.45711
120.29421,0.46991
120.05314,0.48422
119.81207,0.49907
119.57100,0.51496
119.32993,0.53442
119.08885,0.55990
118.84778,0.59115
118.60671,0.62558
118.36564,0.66136
118.12457,0.69853
117.88350,0.73576
117.64243,0.76831
117.40136,0.79178
117.16029,0.80613
116.91922,0.81297
116.67815,0.81139
116.43708,0.80070
116.19601,0.78433
115.95494,0.76752
115.71387,0.75253
115.47280,0.73802
115.23173,0.72329
114.99066,0.71061
114.74958,0.70221
114.50851,0.69695
114.26744,0.69138
114.02637,0.68363
113.78530,0.67418
113.54423,0.66414
113.30316,0.65519
113.06209,0.64977
112.82102,0.64936
112.57995,0.65390
112.33888,0.66334
112.09781,0.67706
111.85674,0.69258
111.61567,0.70771
111.37460,0.72288
111.13353,0.73843
110.89246,0.75157
110.65139,0.75741
110.41031,0.75224
110.16924,0.73656
109.92817,0.71546
109.68710,0.69573
109.44603,0.68241
109.20496,0.67667
108.96389,0.67416
108.72282,0.66501
108.48175,0.64036
108.24068,0.60404
107.99961,0.56776
107.75854,0.53759
107.51747,0.51466
107.27640,0.50015
107.03533,0.49345
106.79426,0.48840
106.55319,0.47660
106.31212,0.45593
106.07104,0.43164
105.82997,0.40986
105.58890,0.39422
105.34783,0.38637
105.10676,0.38498
104.86569,0.38468
104.62462,0.37914
104.38355,0.36693
104.14248,0.35299
103.90141,0.34334
103.66034,0.33917
103.41927,0.33601
103.17820,0.32911
102.93713,0.31903
102.69606,0.31009
102.45499,0.30546
102.21392,0.30516
101.97285,0.30624
101.73177,0.30426
101.49070,0.29716
101.24963,0.28848
101.00856,0.28400
100.76749,0.28539
100.52642,0.28787
100.28535,0.28504
100.04428,0.27619
99.80321,0.26669
99.56214,0.26228
99.32107,0.26466
99.08000,0.26979
98.83893,0.27012
98.59786,0.26283
98.35679,0.25371
98.11572,0.25034
97.87465,0.25420
97.63358,0.25941
97.39250,0.26006
97.15143,0.25876
96.91036,0.26263
96.66929,0.27224
96.42822,0.27992
96.18715,0.28119
95.94608,0.28202
95.70501,0.28950
95.46394,0.30192
95.22287,0.31214
94.98180,0.31870
94.74073,0.32712
94.49966,0.33915
94.25859,0.34777
94.01752,0.34659
93.77645,0.34106
93.53538,0.34067
93.29431,0.34553
93.05323,0.34844
92.81216,0.34792
92.57109,0.34904
92.33002,0.35211
92.08895,0.35331
91.84788,0.35451
91.60681,0.36010
91.36574,0.36898
91.12467,0.37989
90.88360,0.39744
90.64253,0.42366
90.40146,0.45486
90.16039,0.49217
89.91932,0.54118
89.67825,0.59786
89.43718,0.64985
89.19611,0.69284
88.95504,0.72892
88.71396,0.75334
88.47289,0.75786
88.23182,0.74116
87.99075,0.70783
87.74968,0.66204
87.50861,0.60748
87.26754,0.55103
87.02647,0.49949
86.78540,0.45488
86.54433,0.41668
86.30326,0.38552
86.06219,0.36117
85.82112,0.34031
85.58005,0.32023
85.33898,0.30148
85.09791,0.28504
84.85684,0.27047
84.61577,0.25705
84.37469,0.24461
84.13362,0.23390
83.89255,0.22595
83.65148,0.22039
83.41041,0.21566
83.16934,0.21101
82.92827,0.20644
82.68720,0.20183
82.44613,0.19756
82.20506,0.19439
81.96399,0.19231
81.72292,0.19098
81.48185,0.19081
81.24078,0.19230
80.99971,0.19472
80.75864,0.19636
80.51757,0.19604
80.27650,0.19413
80.03542,0.19177
79.79435,0.18929
79.55328,0.18622
79.31221,0.18250
79.07114,0.17892
78.83007,0.17640
78.58900,0.17549
78.34793,0.17573
78.10686,0.17541
77.86579,0.17305
77.62472,0.16923
77.38365,0.16592
77.14258,0.16399
76.90151,0.16275
76.66044,0.16186
76.41937,0.16202
76.17830,0.16341
75.93723,0.16469
75.69615,0.16397
75.45508,0.16053
75.21401,0.15590
74.97294,0.15280
74.73187,0.15254
74.49080,0.15415
74.24973,0.15671
74.00866,0.16059
73.76759,0.16523
73.52652,0.16819
73.28545,0.16777
73.04438,0.16545
72.80331,0.16456
72.56224,0.16703
72.32117,0.17182
72.08010,0.17607
71.83903,0.17759
71.59796,0.17598
71.35688,0.17215
71.11581,0.16844
70.87474,0.16859
70.63367,0.17562
70.39260,0.18974
70.15153,0.20928
69.91046,0.23289
69.66939,0.25931
69.42832,0.28430
69.18725,0.29904
68.94618,0.29570
68.70511,0.27572
68.46404,0.24779
68.22297,0.21965
67.98190,0.19606
67.74083,0.17983
67.49976,0.17055
67.25869,0.16440
67.01761,0.15774
66.77654,0.14999
66.53547,0.14275
66.29440,0.13770
66.05333,0.13623
65.81226,0.13926
65.57119,0.14646
65.33012,0.15660
65.08905,0.16893
64.84798,0.18307
64.60691,0.19784
64.36584,0.21113
64.12477,0.22057
63.88370,0.22391
63.64263,0.21988
63.40156,0.20975
63.16049,0.19706
62.91942,0.18512
62.67834,0.17464
62.43727,0.16386
62.19620,0.15153
61.95513,0.13928
61.71406,0.12983
61.47299,0.12329
61.23192,0.11792
60.99085,0.11420
60.74978,0.11546
60.50871,0.12412
60.26764,0.13882
60.02657,0.15563
59.78550,0.17123
59.54443,0.18431
59.30336,0.19389
59.06229,0.19721
58.82122,0.19082
58.58015,0.17466
58.33907,0.15387
58.09800,0.13542
57.85693,0.12416
57.61586,0.12136
57.37479,0.12523
57.13372,0.13259
56.89265,0.14176
56.65158,0.15414
56.41051,0.17185
56.16944,0.19189
55.92837,0.20225
55.68730,0.19212
55.44623,0.16628
55.20516,0.13712
54.96409,0.11427
54.72302,0.10499
54.48195,0.11488
54.24088,0.14587
53.99980,0.19226
53.75873,0.23136
53.51766,0.22670
53.27659,0.18188
53.03552,0.13690
52.79445,0.11376
52.55338,0.11846
52.31231,0.15199
52.07124,0.20106
51.83017,0.22146
51.58910,0.18721
51.34803,0.14235
51.10696,0.12164
50.86589,0.13072
50.62482,0.16011
50.38375,0.17958
50.14268,0.16071
49.90161,0.12722
49.66053,0.11782
49.41946,0.14823
49.17839,0.19307
48.93732,0.18651
48.69625,0.13798
48.45518,0.11201
48.21411,0.13131
47.97304,0.17439
47.73197,0.18028
47.49090,0.14593
47.24983,0.13252
47.00876,0.15231
46.76769,0.16011
46.52662,0.13139
46.28555,0.11778
46.04448,0.13966
45.80341,0.15469
45.56234,0.13804
45.32126,0.12534
45.08019,0.13265
44.83912,0.14099
44.59805,0.14458
44.35698,0.15425
44.11591,0.16442
43.87484,0.16693
43.63377,0.17157
43.39270,0.18240
43.15163,0.18797
42.91056,0.18203
42.66949,0.17440
42.42842,0.17512
42.18735,0.18240
41.94628,0.18859
41.70521,0.19234
41.46414,0.19391
41.22307,0.18671
40.98199,0.17215
40.74092,0.16461
40.49985,0.16975
40.25878,0.17858
40.01771,0.18537
39.77664,0.19219
39.53557,0.19629
39.29450,0.19491
39.05343,0.19430
38.81236,0.20086
38.57129,0.21379
38.33022,0.22521
38.08915,0.22666
37.84808,0.22019
37.60701,0.21695
37.36594,0.22421
37.12487,0.23899
36.88380,0.25217
36.64272,0.25592
36.40165,0.24906
36.16058,0.23520
35.91951,0.21825
35.67844,0.20405
35.43737,0.19612
35.19630,0.18745
34.95523,0.17196
34.71416,0.15670
34.47309,0.14413
34.23202,0.12901
33.99095,0.11711
33.74988,0.12387
33.50881,0.15186
33.26774,0.17979
33.02667,0.18272
32.78560,0.16791
32.54453,0.16732
32.30345,0.18660
32.06238,0.19808
31.82131,0.18495
31.58024,0.16242
31.33917,0.15020
31.09810,0.14508
30.85703,0.13205
30.61596,0.10862
30.37489,0.08559
30.13382,0.07219
29.89275,0.07128
29.65168,0.08058
29.41061,0.09318
29.16954,0.09734
28.92847,0.08560
28.68740,0.06421
28.44633,0.04828
28.20526,0.04711
27.96418,0.05280
27.72311,0.04715
27.48204,0.02174
27.24097,-0.01237
26.99990,-0.03527
26.75883,-0.03728
26.51776,-0.03174
26.27669,-0.04369
26.03562,-0.07487
25.79455,-0.09942
25.55348,-0.10052
25.31241,-0.08796
25.07134,-0.07705
24.83027,-0.07397
24.58920,-0.07922
24.34813,-0.09391
24.10706,-0.12092
23.86599,-0.16117
23.62491,-0.20703
23.38384,-0.24288
23.14277,-0.26177
22.90170,-0.27194
22.66063,-0.27679
22.41956,-0.26428
22.17849,-0.23008
21.93742,-0.19106
21.69635,-0.16737
21.45528,-0.16368
21.21421,-0.16620
20.97314,-0.16065
20.73207,-0.15131
20.49100,-0.15222
20.24993,-0.17415
20.00886,-0.21904
19.76779,-0.27134
19.52672,-0.30119
19.28564,-0.30288
19.04457,-0.28919
18.80350,-0.27574
18.56243,-0.27227
18.32136,-0.27468
18.08029,-0.27291
17.83922,-0.26388
17.59815,-0.25236
17.35708,-0.23576
17.11601,-0.21121
16.87494,-0.18536
16.63387,-0.16756
16.39280,-0.16514
16.15173,-0.17995
15.91066,-0.20276
15.66959,-0.22066
15.42852,-0.22826
15.18745,-0.22726
14.94637,-0.22024
14.70530,-0.20785
14.46423,-0.19896
14.22316,-0.19967
13.98209,-0.20189
13.74102,-0.19072
13.49995,-0.16525
13.25888,-0.14830
13.01781,-0.15980
12.77674,-0.19382
12.53567,-0.22513
12.29460,-0.23099
12.05353,-0.21811
11.81246,-0.21229
11.57139,-0.21822
11.33032,-0.22159
11.08925,-0.21492
10.84818,-0.20592
10.60710,-0.20681
10.36603,-0.21762
10.12496,-0.22657
9.88389,-0.22736
9.64282,-0.22468
9.40175,-0.22030
9.16068,-0.21105
8.91961,-0.19871
8.67854,-0.18953
8.43747,-0.19279
8.19640,-0.20924
7.95533,-0.21996
7.71426,-0.21420
7.47319,-0.20513
7.23212,-0.20543
6.99105,-0.21305
6.74998,-0.22074
6.50891,-0.22518
6.26783,-0.22376
6.02676,-0.21336
5.78569,-0.19478
5.54462,-0.17677
5.30355,-0.17067
5.06248,-0.17618
4.82141,-0.18974
4.58034,-0.21465
4.33927,-0.24378
4.09820,-0.26122
3.85713,-0.26698
3.61606,-0.26940
3.37499,-0.26268
3.13392,-0.24144
2.89285,-0.21344
2.65178,-0.19515
2.41071,-0.19904
2.16964,-0.22439
1.92856,-0.24964
1.68749,-0.25740
1.44642,-0.25760
1.20535,-0.26367
0.96428,-0.27035
0.72321,-0.25653
0.48214,-0.23580
0.24107,-0.21658
-0.00000,-0.17496
