399.69498,1.52600
399.45391,1.53290
399.21284,1.54151
398.97177,1.54864
398.73070,1.55746
398.48963,1.56657
398.24856,1.56343
398.00749,1.54343
397.76642,1.52012
397.52535,1.50815
397.28428,1.51053
397.04321,1.52418
396.80214,1.54374
396.56107,1.55972
396.32000,1.56538
396.07892,1.56152
395.83785,1.54948
395.59678,1.53036
395.35571,1.51187
395.11464,1.50203
394.87357,1.50210
394.63250,1.51226
394.39143,1.53417
394.15036,1.56019
393.90929,1.57054
393.66822,1.55600
393.42715,1.53412
393.18608,1.52898
392.94501,1.54378
392.70394,1.56047
392.46287,1.55808
392.22180,1.53068
391.98073,1.49295
391.73965,1.46770
391.49858,1.46805
391.25751,1.49072
391.01644,1.52140
390.77537,1.54553
390.53430,1.55462
390.29323,1.54653
390.05216,1.52794
389.81109,1.51090
389.57002,1.50207
389.32895,1.50137
389.08788,1.50849
388.84681,1.52302
388.60574,1.53594
388.36467,1.53036
388.12360,1.50303
387.88253,1.47463
387.64146,1.46517
387.40038,1.47301
387.15931,1.48280
386.91824,1.48620
386.67717,1.48432
386.43610,1.47421
386.19503,1.45072
385.95396,1.41629
385.71289,1.38516
385.47182,1.36801
385.23075,1.36247
384.98968,1.36474
384.74861,1.36978
384.50754,1.36548
384.26647,1.34741
384.02540,1.32916
383.78433,1.32346
383.54326,1.33077
383.30219,1.34748
383.06111,1.36484
382.82004,1.36679
382.57897,1.34740
382.33790,1.32053
382.09683,1.30236
381.85576,1.29717
381.61469,1.30461
381.37362,1.31828
381.13255,1.32441
380.89148,1.31742
380.65041,1.30167
380.40934,1.28755
380.16827,1.28822
379.92720,1.30697
379.68613,1.33027
379.44506,1.34025
379.20399,1.33371
378.96292,1.32195
378.72184,1.31310
378.48077,1.30711
378.23970,1.30793
377.99863,1.32438
377.75756,1.35510
377.51649,1.38442
377.27542,1.39901
377.03435,1.40144
376.79328,1.40023
376.55221,1.39699
376.31114,1.38688
376.07007,1.36994
375.82900,1.35920
375.58793,1.36865
375.34686,1.39648
375.10579,1.42493
374.86472,1.43569
374.62365,1.42595
374.38257,1.41058
374.14150,1.40626
373.90043,1.41369
373.65936,1.42016
373.41829,1.41970
373.17722,1.42064
372.93615,1.42757
372.69508,1.43029
372.45401,1.42025
372.21294,1.40315
371.97187,1.38784
371.73080,1.37632
371.48973,1.36730
371.24866,1.36060
371.00759,1.35779
370.76652,1.36130
370.52545,1.37029
370.28437,1.37774
370.04330,1.37609
369.80223,1.36612
369.56116,1.35429
369.32009,1.34252
369.07902,1.32989
368.83795,1.31853
368.59688,1.31303
368.35581,1.31538
368.11474,1.32221
367.87367,1.32650
367.63260,1.32109
367.39153,1.30417
367.15046,1.28254
366.90939,1.26765
366.66832,1.26706
366.42725,1.27815
366.18618,1.29069
365.94510,1.29748
365.70403,1.29868
365.46296,1.29656
365.22189,1.28998
364.98082,1.27621
364.73975,1.25830
364.49868,1.24509
364.25761,1.24082
364.01654,1.24123
363.77547,1.24241
363.53440,1.24574
363.29333,1.25240
363.05226,1.25914
362.81119,1.26158
362.57012,1.25870
362.32905,1.25270
362.08798,1.24710
361.84691,1.24460
361.60583,1.24469
361.36476,1.24366
361.12369,1.23796
360.88262,1.22905
360.64155,1.22222
360.40048,1.22039
360.15941,1.22158
359.91834,1.22231
359.67727,1.22351
359.43620,1.22997
359.19513,1.24170
358.95406,1.24981
358.71299,1.24587
358.47192,1.23356
358.23085,1.22300
357.98978,1.21962
357.74871,1.22481
357.50764,1.23749
357.26656,1.24986
357.02549,1.25110
356.78442,1.24146
356.54335,1.23204
356.30228,1.23034
356.06121,1.23515
355.82014,1.24144
355.57907,1.24375
355.33800,1.23821
355.09693,1.22676
354.85586,1.21656
354.61479,1.21317
354.37372,1.21557
354.13265,1.21874
353.89158,1.22070
353.65051,1.22488
353.40944,1.23417
353.16837,1.24579
352.92729,1.25288
352.68622,1.25021
352.44515,1.23894
352.20408,1.22667
351.96301,1.22183
351.72194,1.22692
351.48087,1.23682
351.23980,1.24387
350.99873,1.24459
350.75766,1.24130
350.51659,1.23874
350.27552,1.24054
350.03445,1.24551
349.79338,1.24968
349.55231,1.25169
349.31124,1.25426
349.07017,1.26020
348.82910,1.26879
348.58802,1.27668
348.34695,1.27983
348.10588,1.27614
347.86481,1.26942
347.62374,1.26748
347.38267,1.27411
347.14160,1.28541
346.90053,1.29430
346.65946,1.29669
346.41839,1.29398
346.17732,1.28957
345.93625,1.28489
345.69518,1.28020
345.45411,1.27773
345.21304,1.28105
344.97197,1.28875
344.73090,1.29506
344.48983,1.29791
344.24875,1.30185
344.00768,1.31550
343.76661,1.33885
343.52554,1.35703
343.28447,1.35551
343.04340,1.33626
342.80233,1.31328
342.56126,1.29998
342.32019,1.30364
342.07912,1.32256
341.83805,1.34571
341.59698,1.36237
341.35591,1.37304
341.11484,1.38368
340.87377,1.39550
340.63270,1.40639
340.39163,1.41194
340.15056,1.40720
339.90948,1.39481
339.66841,1.38397
339.42734,1.38138
339.18627,1.38601
338.94520,1.39218
338.70413,1.39627
338.46306,1.39763
338.22199,1.39535
337.98092,1.38849
337.73985,1.38406
337.49878,1.39312
337.25771,1.41689
337.01664,1.44526
336.77557,1.46582
336.53450,1.47221
336.29343,1.46876
336.05236,1.46313
335.81129,1.45532
335.57021,1.44084
335.32914,1.42339
335.08807,1.41609
334.84700,1.42670
334.60593,1.44594
334.36486,1.45607
334.12379,1.44707
333.88272,1.42169
333.64165,1.39201
333.40058,1.36987
333.15951,1.35909
332.91844,1.35597
332.67737,1.35260
332.43630,1.34219
332.19523,1.32914
331.95416,1.32685
331.71309,1.34015
331.47202,1.35901
331.23094,1.37005
330.98987,1.36866
330.74880,1.35996
330.50773,1.34807
330.26666,1.33379
330.02559,1.31788
329.78452,1.30273
329.54345,1.29221
329.30238,1.28980
329.06131,1.29481
328.82024,1.30152
328.57917,1.30542
328.33810,1.30709
328.09703,1.30816
327.85596,1.30834
327.61489,1.30860
327.37382,1.31217
327.13275,1.31835
326.89167,1.32045
326.65060,1.31406
326.40953,1.30201
326.16846,1.29208
325.92739,1.29148
325.68632,1.29948
325.44525,1.31047
325.20418,1.32236
324.96311,1.33298
324.72204,1.33351
324.48097,1.31692
324.23990,1.28946
323.99883,1.26514
323.75776,1.25645
323.51669,1.27044
323.27562,1.30619
323.03455,1.35041
322.79348,1.37712
322.55240,1.36768
322.31133,1.33713
322.07026,1.31045
321.82919,1.29080
321.58812,1.27684
321.34705,1.27765
321.10598,1.29548
320.86491,1.31465
320.62384,1.32217
320.38277,1.31849
320.14170,1.30803
319.90063,1.29853
319.65956,1.29667
319.41849,1.30331
319.17742,1.31203
318.93635,1.31162
318.69528,1.30178
318.45421,1.29922
318.21313,1.31460
317.97206,1.33759
317.73099,1.35212
317.48992,1.35276
317.24885,1.34224
317.00778,1.32391
316.76671,1.30690
316.52564,1.30633
316.28457,1.32667
316.04350,1.35080
315.80243,1.35625
315.56136,1.34335
315.32029,1.33160
315.07922,1.33329
314.83815,1.34608
314.59708,1.36240
314.35601,1.37542
314.11494,1.38037
313.87386,1.37863
313.63279,1.38027
313.39172,1.39179
313.15065,1.40407
312.90958,1.40596
312.66851,1.39973
312.42744,1.39257
312.18637,1.39124
311.94530,1.40273
311.70423,1.42150
311.46316,1.43164
311.22209,1.42622
310.98102,1.40941
310.73995,1.38880
310.49888,1.37350
310.25781,1.37103
310.01674,1.38181
309.77567,1.39954
309.53459,1.41758
309.29352,1.43114
309.05245,1.43661
308.81138,1.43593
308.57031,1.43590
308.32924,1.44119
308.08817,1.44974
307.84710,1.45153
307.60603,1.43893
307.36496,1.41839
307.12389,1.40642
306.88282,1.41414
306.64175,1.43680
306.40068,1.45924
306.15961,1.46874
305.91854,1.46300
305.67747,1.44630
305.43640,1.42431
305.19532,1.40560
304.95425,1.39878
304.71318,1.40285
304.47211,1.40564
304.23104,1.39605
303.98997,1.38002
303.74890,1.37481
303.50783,1.38732
303.26676,1.40488
303.02569,1.40661
302.78462,1.38763
302.54355,1.36487
302.30248,1.35298
302.06141,1.35048
301.82034,1.34788
301.57927,1.34004
301.33820,1.33138
301.09713,1.32552
300.85605,1.31991
300.61498,1.31397
300.37391,1.31094
300.13284,1.31060
299.89177,1.30835
299.65070,1.30258
299.40963,1.29624
299.16856,1.29123
298.92749,1.28699
298.68642,1.28223
298.44535,1.27477
298.20428,1.26370
297.96321,1.25265
297.72214,1.24643
297.48107,1.24335
297.24000,1.23642
296.99893,1.22578
296.75786,1.22092
296.51678,1.22755
296.27571,1.23894
296.03464,1.24211
295.79357,1.23318
295.55250,1.22245
295.31143,1.21972
295.07036,1.22239
294.82929,1.21949
294.58822,1.20657
294.34715,1.19264
294.10608,1.18825
293.86501,1.19176
293.62394,1.19278
293.38287,1.18754
293.14180,1.18199
292.90073,1.18146
292.65966,1.18421
292.41859,1.18468
292.17751,1.18044
291.93644,1.17328
291.69537,1.16595
291.45430,1.16025
291.21323,1.15707
290.97216,1.15589
290.73109,1.15475
290.49002,1.15317
290.24895,1.15401
290.00788,1.15931
289.76681,1.16508
289.52574,1.16444
289.28467,1.15670
289.04360,1.14846
288.80253,1.14439
288.56146,1.14212
288.32039,1.13788
288.07932,1.13311
287.83824,1.13246
287.59717,1.13691
287.35610,1.14193
287.11503,1.14310
286.87396,1.14027
286.63289,1.13561
286.39182,1.13071
286.15075,1.12655
285.90968,1.12393
285.66861,1.12323
285.42754,1.12439
285.18647,1.12638
284.94540,1.12692
284.70433,1.12478
284.46326,1.12140
284.22219,1.11861
283.98112,1.11695
283.74005,1.11689
283.49897,1.11924
283.25790,1.12310
283.01683,1.12540
282.77576,1.12414
282.53469,1.12139
282.29362,1.12180
282.05255,1.12771
281.81148,1.13641
281.57041,1.14246
281.32934,1.14322
281.08827,1.14047
280.84720,1.13572
280.60613,1.12839
280.36506,1.12009
280.12399,1.11552
279.88292,1.11713
279.64185,1.12286
279.40078,1.12974
279.15970,1.13599
278.91863,1.13951
278.67756,1.13817
278.43649,1.13299
278.19542,1.12732
277.95435,1.12376
277.71328,1.12299
277.47221,1.12406
277.23114,1.12518
276.99007,1.12457
276.74900,1.12206
276.50793,1.12095
276.26686,1.12544
276.02579,1.13458
275.78472,1.14209
275.54365,1.14435
275.30258,1.14416
275.06151,1.14541
274.82043,1.14879
274.57936,1.15285
274.33829,1.15540
274.09722,1.15512
273.85615,1.15378
273.61508,1.15485
273.37401,1.15865
273.13294,1.16074
272.89187,1.15771
272.65080,1.15210
272.40973,1.14872
272.16866,1.14976
271.92759,1.15418
271.68652,1.16007
271.44545,1.16632
271.20438,1.17129
270.96331,1.17292
270.72224,1.17156
270.48116,1.17125
270.24009,1.17672
269.99902,1.18888
269.75795,1.20294
269.51688,1.21225
269.27581,1.21552
269.03474,1.21812
268.79367,1.22456
268.55260,1.23294
268.31153,1.23910
268.07046,1.24287
267.82939,1.24646
267.58832,1.25054
267.34725,1.25603
267.10618,1.26419
266.86511,1.27214
266.62404,1.27514
266.38297,1.27423
266.14189,1.27465
265.90082,1.27906
265.65975,1.28757
265.41868,1.30144
265.17761,1.32119
264.93654,1.34219
264.69547,1.35724
264.45440,1.36439
264.21333,1.36734
263.97226,1.37061
263.73119,1.37868
263.49012,1.39466
263.24905,1.41590
263.00798,1.43563
262.76691,1.45157
262.52584,1.46854
262.28477,1.49183
262.04370,1.52144
261.80262,1.54941
261.56155,1.56545
261.32048,1.57082
261.07941,1.57547
260.83834,1.58607
260.59727,1.60620
260.35620,1.63845
260.11513,1.68013
259.87406,1.71762
259.63299,1.73532
259.39192,1.73736
259.15085,1.74419
258.90978,1.76598
258.66871,1.79169
258.42764,1.80889
258.18657,1.82573
257.94550,1.85836
257.70443,1.89440
257.46335,1.90558
257.22228,1.88282
256.98121,1.83767
256.74014,1.78642
256.49907,1.74350
256.25800,1.72032
256.01693,1.71961
255.77586,1.73420
255.53479,1.74986
255.29372,1.75115
255.05265,1.72952
254.81158,1.68923
254.57051,1.64644
254.32944,1.61787
254.08837,1.60975
253.84730,1.61554
253.60623,1.61982
253.36516,1.61618
253.12408,1.61394
252.88301,1.61849
252.64194,1.62429
252.40087,1.62494
252.15980,1.61872
251.91873,1.60678
251.67766,1.59090
251.43659,1.57264
251.19552,1.55607
250.95445,1.54971
250.71338,1.55772
250.47231,1.57179
250.23124,1.58019
249.99017,1.58085
249.74910,1.57881
249.50803,1.57662
249.26696,1.57153
249.02589,1.56469
248.78481,1.56306
248.54374,1.56510
248.30267,1.56073
248.06160,1.54896
247.82053,1.54072
247.57946,1.54314
247.33839,1.55018
247.09732,1.55230
246.85625,1.55181
246.61518,1.55611
246.37411,1.56359
246.13304,1.56805
245.89197,1.56833
245.65090,1.56728
245.40983,1.56985
245.16876,1.58321
244.92769,1.61203
244.68661,1.65271
244.44554,1.69601
244.20447,1.73831
243.96340,1.77744
243.72233,1.80393
243.48126,1.82032
243.24019,1.84884
242.99912,1.90551
242.75805,1.98407
242.51698,2.03350
242.27591,1.93623
242.03484,1.81025
241.79377,1.69257
241.55270,1.58676
241.31163,1.50067
241.07056,1.43203
240.82949,1.36943
240.58842,1.30872
240.34734,1.25631
240.10627,1.21517
239.86520,1.17987
239.62413,1.14641
239.38306,1.11636
239.14199,1.09151
238.90092,1.07131
238.65985,1.05399
238.41878,1.03685
238.17771,1.01740
237.93664,0.99496
237.69557,0.97042
237.45450,0.94556
237.21343,0.92318
236.97236,0.90630
236.73129,0.89594
236.49022,0.89012
236.24915,0.88539
236.00807,0.87947
235.76700,0.87216
235.52593,0.86392
235.28486,0.85546
235.04379,0.84866
234.80272,0.84526
234.56165,0.84454
234.32058,0.84415
234.07951,0.84280
233.83844,0.84056
233.59737,0.83745
233.35630,0.83319
233.11523,0.82735
232.87416,0.81996
232.63309,0.81279
232.39202,0.80911
232.15095,0.81008
231.90988,0.81241
231.66880,0.81169
231.42773,0.80778
231.18666,0.80455
230.94559,0.80415
230.70452,0.80468
230.46345,0.80379
230.22238,0.80157
229.98131,0.79901
229.74024,0.79660
229.49917,0.79539
229.25810,0.79706
229.01703,0.80104
228.77596,0.80393
228.53489,0.80374
228.29382,0.80206
228.05275,0.80077
227.81168,0.79918
227.57061,0.79591
227.32953,0.79143
227.08846,0.78732
226.84739,0.78488
226.60632,0.78507
226.36525,0.78836
226.12418,0.79393
225.88311,0.79974
225.64204,0.80396
225.40097,0.80587
225.15990,0.80495
224.91883,0.80126
224.67776,0.79763
224.43669,0.79759
224.19562,0.80065
223.95455,0.80432
223.71348,0.80950
223.47241,0.81751
223.23134,0.82440
222.99026,0.82593
222.74919,0.82462
222.50812,0.82556
222.26705,0.83044
222.02598,0.83886
221.78491,0.85037
221.54384,0.86284
221.30277,0.87291
221.06170,0.87988
220.82063,0.88590
220.57956,0.89315
220.33849,0.90312
220.09742,0.91624
219.85635,0.93069
219.61528,0.94310
219.37421,0.95138
219.13314,0.95682
218.89207,0.96380
218.65099,0.97687
218.40992,0.99669
218.16885,1.01966
217.92778,1.04197
217.68671,1.06153
217.44564,1.07584
217.20457,1.08282
216.96350,1.08512
216.72243,1.09084
216.48136,1.10630
216.24029,1.12910
215.99922,1.15061
215.75815,1.16628
215.51708,1.17936
215.27601,1.19388
215.03494,1.21169
214.79387,1.23564
214.55280,1.26565
214.31172,1.29117
214.07065,1.30063
213.82958,1.29856
213.58851,1.29845
213.34744,1.30689
213.10637,1.32478
212.86530,1.35118
212.62423,1.37708
212.38316,1.38623
212.14209,1.37399
211.90102,1.35508
211.65995,1.34568
211.41888,1.35156
211.17781,1.36891
210.93674,1.39049
210.69567,1.40850
210.45460,1.41354
210.21353,1.40482
209.97245,1.39769
209.73138,1.40498
209.49031,1.42077
209.24924,1.42902
209.00817,1.42234
208.76710,1.40708
208.52603,1.39471
208.28496,1.38958
208.04389,1.38653
207.80282,1.37903
207.56175,1.36505
207.32068,1.34566
207.07961,1.32271
206.83854,1.30088
206.59747,1.28511
206.35640,1.27586
206.11533,1.27025
205.87426,1.26373
205.63318,1.25119
205.39211,1.22978
205.15104,1.20234
204.90997,1.17766
204.66890,1.16358
204.42783,1.15799
204.18676,1.14892
203.94569,1.12764
203.70462,1.09907
203.46355,1.07442
203.22248,1.05936
202.98141,1.05130
202.74034,1.04269
202.49927,1.02750
202.25820,1.00670
202.01713,0.98606
201.77606,0.96964
201.53499,0.95705
201.29391,0.94511
201.05284,0.93030
200.81177,0.91127
200.57070,0.89019
200.32963,0.87101
200.08856,0.85628
199.84749,0.84538
199.60642,0.83549
199.36535,0.82403
199.12428,0.81098
198.88321,0.79887
198.64214,0.78957
198.40107,0.78038
198.16000,0.76673
197.91893,0.74997
197.67786,0.73729
197.43679,0.73283
197.19572,0.73209
196.95464,0.72650
196.71357,0.71413
196.47250,0.70129
196.23143,0.69280
195.99036,0.68662
195.74929,0.67847
195.50822,0.66876
195.26715,0.66097
195.02608,0.65580
194.78501,0.65122
194.54394,0.64622
194.30287,0.64155
194.06180,0.63735
193.82073,0.63233
193.57966,0.62569
193.33859,0.61812
193.09752,0.61064
192.85645,0.60360
192.61537,0.59744
192.37430,0.59290
192.13323,0.58996
191.89216,0.58754
191.65109,0.58477
191.41002,0.58192
191.16895,0.57960
190.92788,0.57755
190.68681,0.57485
190.44574,0.57100
190.20467,0.56642
189.96360,0.56227
189.72253,0.55979
189.48146,0.55937
189.24039,0.55990
188.99932,0.55959
188.75825,0.55791
188.51718,0.55588
188.27610,0.55440
188.03503,0.55319
187.79396,0.55215
187.55289,0.55195
187.31182,0.55248
187.07075,0.55199
186.82968,0.54950
186.58861,0.54659
186.34754,0.54538
186.10647,0.54600
185.86540,0.54725
185.62433,0.54840
185.38326,0.54894
185.14219,0.54846
184.90112,0.54808
184.66005,0.55031
184.41898,0.55548
184.17791,0.56000
183.93683,0.56070
183.69576,0.55929
183.45469,0.55938
183.21362,0.56149
182.97255,0.56371
182.73148,0.56523
182.49041,0.56665
182.24934,0.56840
182.00827,0.57048
181.76720,0.57307
181.52613,0.57588
181.28506,0.57729
181.04399,0.57614
180.80292,0.57443
180.56185,0.57526
180.32078,0.57855
180.07971,0.58215
179.83864,0.58625
179.59756,0.59265
179.35649,0.60150
179.11542,0.61169
178.87435,0.62204
178.63328,0.63066
178.39221,0.63743
178.15114,0.64576
177.91007,0.65750
177.66900,0.66978
177.42793,0.68047
177.18686,0.69181
176.94579,0.70561
176.70472,0.72083
176.46365,0.73710
176.22258,0.75544
175.98151,0.77583
175.74044,0.79830
175.49937,0.82481
175.25829,0.85545
175.01722,0.88521
174.77615,0.90892
174.53508,0.92738
174.29401,0.94400
174.05294,0.95935
173.81187,0.97331
173.57080,0.98748
173.32973,1.00353
173.08866,1.02235
172.84759,1.04339
172.60652,1.06292
172.36545,1.07612
172.12438,1.08236
171.88331,1.08554
171.64224,1.08827
171.40117,1.08937
171.16010,1.08697
170.91902,1.08111
170.67795,1.07259
170.43688,1.06140
170.19581,1.04890
169.95474,1.03912
169.71367,1.03437
169.47260,1.03234
169.23153,1.02916
168.99046,1.02273
168.74939,1.01278
168.50832,1.00112
168.26725,0.99116
168.02618,0.98544
167.78511,0.98446
167.54404,0.98721
167.30297,0.99204
167.06190,0.99652
166.82083,0.99821
166.57975,0.99776
166.33868,0.99805
166.09761,1.00028
165.85654,1.00473
165.61547,1.01305
165.37440,1.02715
165.13333,1.04569
164.89226,1.06428
164.65119,1.07980
164.41012,1.09179
164.16905,1.10063
163.92798,1.10850
163.68691,1.11971
163.44584,1.13644
163.20477,1.15591
162.96370,1.17338
162.72263,1.18545
162.48156,1.19279
162.24048,1.19987
161.99941,1.20966
161.75834,1.22232
161.51727,1.23636
161.27620,1.24751
161.03513,1.24799
160.79406,1.23355
160.55299,1.21394
160.31192,1.20556
160.07085,1.21156
159.82978,1.21727
159.58871,1.20951
159.34764,1.19264
159.10657,1.17752
158.86550,1.16854
158.62443,1.16564
158.38336,1.16724
158.14229,1.16726
157.90121,1.15809
157.66014,1.13984
157.41907,1.12104
157.17800,1.11142
156.93693,1.11569
156.69586,1.12906
156.45479,1.13843
156.21372,1.13342
155.97265,1.11493
155.73158,1.08988
155.49051,1.06491
155.24944,1.04581
155.00837,1.03498
154.76730,1.02842
154.52623,1.01797
154.28516,0.99886
154.04409,0.97450
153.80302,0.95136
153.56194,0.93179
153.32087,0.91319
153.07980,0.89268
152.83873,0.87020
152.59766,0.84735
152.35659,0.82519
152.11552,0.80442
151.87445,0.78596
151.63338,0.76966
151.39231,0.75317
151.15124,0.73452
150.91017,0.71497
150.66910,0.69724
150.42803,0.68197
150.18696,0.66738
149.94589,0.65172
149.70482,0.63569
149.46375,0.62244
149.22267,0.61460
148.98160,0.61034
148.74053,0.60365
148.49946,0.59102
148.25839,0.57641
148.01732,0.56638
147.77625,0.56254
147.53518,0.56109
147.29411,0.55870
147.05304,0.55642
146.81197,0.55656
146.57090,0.55867
146.32983,0.56081
146.08876,0.56302
145.84769,0.56745
145.60662,0.57496
145.36555,0.58341
145.12448,0.58996
144.88340,0.59431
144.64233,0.59841
144.40126,0.60356
144.16019,0.60936
143.91912,0.61484
143.67805,0.61820
143.43698,0.61698
143.19591,0.61052
142.95484,0.60127
142.71377,0.59186
142.47270,0.58226
142.23163,0.57126
141.99056,0.55916
141.74949,0.54787
141.50842,0.53925
141.26735,0.53359
141.02628,0.52958
140.78521,0.52589
140.54413,0.52270
140.30306,0.52107
140.06199,0.52111
139.82092,0.52206
139.57985,0.52398
139.33878,0.52816
139.09771,0.53544
138.85664,0.54492
138.61557,0.55475
138.37450,0.56417
138.13343,0.57415
137.89236,0.58582
137.65129,0.59905
137.41022,0.61325
137.16915,0.62909
136.92808,0.64800
136.68701,0.67023
136.44594,0.69490
136.20486,0.72161
135.96379,0.75055
135.72272,0.78214
135.48165,0.81830
135.24058,0.86095
134.99951,0.90653
134.75844,0.94655
134.51737,0.97851
134.27630,1.00968
134.03523,1.04519
133.79416,1.08064
133.55309,1.10972
133.31202,1.13303
133.07095,1.15559
132.82988,1.17919
132.58881,1.20012
132.34774,1.21485
132.10667,1.22569
131.86559,1.23570
131.62452,1.24037
131.38345,1.23314
131.14238,1.21501
130.90131,1.19044
130.66024,1.16050
130.41917,1.12426
130.17810,1.08181
129.93703,1.03562
129.69596,0.99081
129.45489,0.95100
129.21382,0.91417
128.97275,0.87484
128.73168,0.83055
128.49061,0.78490
128.24954,0.74303
128.00847,0.70620
127.76740,0.67295
127.52632,0.64291
127.28525,0.61711
127.04418,0.59503
126.80311,0.57437
126.56204,0.55377
126.32097,0.53413
126.07990,0.51708
125.83883,0.50301
125.59776,0.49063
125.35669,0.47836
125.11562,0.46610
124.87455,0.45497
124.63348,0.44545
124.39241,0.43689
124.15134,0.42929
123.91027,0.42382
123.66920,0.42093
123.42812,0.41913
123.18705,0.41670
122.94598,0.41364
122.70491,0.41124
122.46384,0.41076
122.22277,0.41265
121.98170,0.41658
121.74063,0.42203
121.49956,0.42842
121.25849,0.43499
121.01742,0.44114
120.77635,0.44738
120.53528,0.45519
120.29421,0.46559
120.05314,0.47858
119.81207,0.49408
119.57100,0.51257
119.32993,0.53454
119.08885,0.55986
118.84778,0.58760
118.60671,0.61647
118.36564,0.64615
118.12457,0.67833
117.88350,0.71467
117.64243,0.75385
117.40136,0.79247
117.16029,0.82698
116.91922,0.85199
116.67815,0.86005
116.43708,0.84901
116.19601,0.82607
115.95494,0.80020
115.71387,0.77469
115.47280,0.74902
115.23173,0.72309
114.99066,0.69951
114.74958,0.68263
114.50851,0.67478
114.26744,0.67461
114.02637,0.67851
113.78530,0.68144
113.54423,0.67804
113.30316,0.66745
113.06209,0.65538
112.82102,0.64895
112.57995,0.65204
112.33888,0.66489
112.09781,0.68586
111.85674,0.71194
111.61567,0.73612
111.37460,0.74853
111.13353,0.74569
110.89246,0.73562
110.65139,0.72788
110.41031,0.72354
110.16924,0.71997
109.92817,0.71899
109.68710,0.72181
109.44603,0.71947
109.20496,0.69991
108.96389,0.66518
108.72282,0.62882
108.48175,0.60095
108.24068,0.58340
107.99961,0.57186
107.75854,0.55891
107.51747,0.53903
107.27640,0.51306
107.03533,0.48591
106.79426,0.46191
106.55319,0.44374
106.31212,0.43152
106.07104,0.42157
105.82997,0.40891
105.58890,0.39187
105.34783,0.37346
105.10676,0.35853
104.86569,0.34986
104.62462,0.34611
104.38355,0.34257
104.14248,0.33495
103.90141,0.32303
103.66034,0.31022
103.41927,0.30070
103.17820,0.29682
102.93713,0.29700
102.69606,0.29618
102.45499,0.29029
102.21392,0.28067
101.97285,0.27245
101.73177,0.26916
101.49070,0.27030
101.24963,0.27256
101.00856,0.27217
100.76749,0.26720
100.52642,0.25956
100.28535,0.25419
100.04428,0.25448
99.80321,0.25767
99.56214,0.25637
99.32107,0.24801
99.08000,0.23936
98.83893,0.23796
98.59786,0.24252
98.35679,0.24402
98.11572,0.23834
97.87465,0.23279
97.63358,0.23441
97.39250,0.24022
97.15143,0.24295
96.91036,0.24274
96.66929,0.24603
96.42822,0.25468
96.18715,0.26427
95.94608,0.27208
95.70501,0.28024
95.46394,0.28971
95.22287,0.29812
94.98180,0.30503
94.74073,0.31320
94.49966,0.32229
94.25859,0.32753
94.01752,0.32714
93.77645,0.32501
93.53538,0.32413
93.29431,0.32415
93.05323,0.32500
92.81216,0.32729
92.57109,0.32966
92.33002,0.33013
92.08895,0.32972
91.84788,0.33203
91.60681,0.33878
91.36574,0.34868
91.12467,0.36201
90.88360,0.38239
90.64253,0.41064
90.40146,0.44354
90.16039,0.48292
89.91932,0.53451
89.67825,0.59412
89.43718,0.65051
89.19611,0.70305
88.95504,0.75053
88.71396,0.77579
88.47289,0.77222
88.23182,0.75297
87.99075,0.71948
87.74968,0.66558
87.50861,0.60196
87.26754,0.54403
87.02647,0.49447
86.78540,0.44936
86.54433,0.40822
86.30326,0.37380
86.06219,0.34745
85.82112,0.32709
85.58005,0.30838
85.33898,0.28788
85.09791,0.26551
84.85684,0.24393
84.61577,0.22583
84.37469,0.21216
84.13362,0.20232
83.89255,0.19513
83.65148,0.18910
83.41041,0.18275
83.16934,0.17584
82.92827,0.16990
82.68720,0.16648
82.44613,0.16534
82.20506,0.16504
81.96399,0.16449
81.72292,0.16349
81.48185,0.16238
81.24078,0.16169
80.99971,0.16197
80.75864,0.16343
80.51757,0.16561
80.27650,0.16712
80.03542,0.16627
79.79435,0.16289
79.55328,0.15905
79.31221,0.15714
79.07114,0.15721
78.83007,0.15747
78.58900,0.15684
78.34793,0.15575
78.10686,0.15448
77.86579,0.15242
77.62472,0.14874
77.38365,0.14348
77.14258,0.13774
76.90151,0.13339
76.66044,0.13180
76.41937,0.13298
76.17830,0.13555
75.93723,0.13733
75.69615,0.13596
75.45508,0.13034
75.21401,0.12230
74.97294,0.11587
74.73187,0.11461
74.49080,0.11907
74.24973,0.12599
74.00866,0.13045
73.76759,0.13000
73.52652,0.12659
73.28545,0.12419
73.04438,0.12531
72.80331,0.12959
72.56224,0.13463
72.32117,0.13804
72.08010,0.13928
71.83903,0.13944
71.59796,0.13963
71.35688,0.14021
71.11581,0.14177
70.87474,0.14558
70.63367,0.15283
70.39260,0.16438
70.15153,0.18140
69.91046,0.20500
69.66939,0.23363
69.42832,0.26057
69.18725,0.27558
68.94618,0.27173
68.70511,0.25108
68.46404,0.22250
68.22297,0.19480
67.98190,0.17303
67.74083,0.15821
67.49976,0.14818
67.25869,0.14001
67.01761,0.13233
66.77654,0.12494
66.53547,0.11771
66.29440,0.11109
66.05333,0.10691
65.81226,0.10719
65.57119,0.11217
65.33012,0.11997
65.08905,0.12859
64.84798,0.13760
64.60691,0.14767
64.36584,0.15854
64.12477,0.16788
63.88370,0.17249
63.64263,0.17114
63.40156,0.16545
63.16049,0.15768
62.91942,0.14937
62.67834,0.14162
62.43727,0.13474
62.19620,0.12852
61.95513,0.12389
61.71406,0.12260
61.47299,0.12416
61.23192,0.12507
60.99085,0.12210
60.74978,0.11545
60.50871,0.10818
60.26764,0.10298
60.02657,0.09981
59.78550,0.09690
59.54443,0.09296
59.30336,0.08775
59.06229,0.08178
58.82122,0.07714
58.58015,0.07804
58.33907,0.08888
58.09800,0.11133
57.85693,0.14285
57.61586,0.17643
57.37479,0.19751
57.13372,0.18683
56.89265,0.14718
56.65158,0.10497
56.41051,0.07734
56.16944,0.06672
55.92837,0.07129
55.68730,0.08988
55.44623,0.11946
55.20516,0.14819
54.96409,0.15503
54.72302,0.13217
54.48195,0.09848
54.24088,0.07606
53.99980,0.07541
53.75873,0.09631
53.51766,0.12905
53.27659,0.15233
53.03552,0.14539
52.79445,0.11706
52.55338,0.09410
52.31231,0.09263
52.07124,0.11344
51.83017,0.14366
51.58910,0.15768
51.34803,0.13626
51.10696,0.09614
50.86589,0.06987
50.62482,0.07768
50.38375,0.12060
50.14268,0.15842
49.90161,0.12847
49.66053,0.06819
49.41946,0.04305
49.17839,0.07165
48.93732,0.12244
48.69625,0.12141
48.45518,0.07873
48.21411,0.05998
47.97304,0.07573
47.73197,0.09245
47.49090,0.08091
47.24983,0.06400
47.00876,0.06537
46.76769,0.06870
46.52662,0.05814
46.28555,0.05345
46.04448,0.06459
45.80341,0.07009
45.56234,0.06403
45.32126,0.06667
45.08019,0.07766
44.83912,0.07584
44.59805,0.06744
44.35698,0.07197
44.11591,0.07731
43.87484,0.07012
43.63377,0.06572
43.39270,0.06877
43.15163,0.06606
42.91056,0.06139
42.66949,0.06594
42.42842,0.06985
42.18735,0.06110
41.94628,0.05071
41.70521,0.05144
41.46414,0.05783
41.22307,0.05893
40.98199,0.05262
40.74092,0.04260
40.49985,0.03437
40.25878,0.03453
40.01771,0.04836
39.77664,0.07093
39.53557,0.08640
39.29450,0.08803
39.05343,0.08696
38.81236,0.09467
38.57129,0.10877
38.33022,0.11638
38.08915,0.10869
37.84808,0.09509
37.60701,0.09105
37.36594,0.09414
37.12487,0.09203
36.88380,0.08351
36.64272,0.07631
36.40165,0.07280
36.16058,0.06822
35.91951,0.06348
35.67844,0.06752
35.43737,0.07990
35.19630,0.08674
34.95523,0.08185
34.71416,0.07384
34.47309,0.06479
34.23202,0.04823
33.99095,0.02567
33.74988,0.00552
33.50881,-0.00650
33.26774,-0.00807
33.02667,0.00382
32.78560,0.02817
32.54453,0.05513
32.30345,0.07057
32.06238,0.06549
31.82131,0.04958
31.58024,0.03890
31.33917,0.02955
31.09810,0.00776
30.85703,-0.02622
30.61596,-0.05539
30.37489,-0.06722
30.13382,-0.06475
29.89275,-0.05439
29.65168,-0.04023
29.41061,-0.02977
29.16954,-0.03320
28.92847,-0.05102
28.68740,-0.07276
28.44633,-0.08738
28.20526,-0.08631
27.96418,-0.07083
27.72311,-0.05698
27.48204,-0.05522
27.24097,-0.06440
26.99990,-0.08471
26.75883,-0.11088
26.51776,-0.13093
26.27669,-0.13858
26.03562,-0.13709
25.79455,-0.13714
25.55348,-0.14642
25.31241,-0.16337
25.07134,-0.18713
24.83027,-0.21793
24.58920,-0.24135
24.34813,-0.23610
24.10706,-0.20981
23.86599,-0.19660
23.62491,-0.21272
23.38384,-0.23935
23.14277,-0.25354
22.90170,-0.25869
22.66063,-0.28162
22.41956,-0.34171
22.17849,-0.39828
21.93742,-0.40013
21.69635,-0.39414
21.45528,-0.40558
21.21421,-0.42944
20.97314,-0.44287
20.73207,-0.44884
20.49100,-0.45226
20.24993,-0.41818
20.00886,-0.36118
19.76779,-0.31126
19.52672,-0.28751
19.28564,-0.28588
19.04457,-0.27565
18.80350,-0.24737
18.56243,-0.21845
18.32136,-0.19302
18.08029,-0.17283
17.83922,-0.17445
17.59815,-0.20488
17.35708,-0.24561
17.11601,-0.26994
16.87494,-0.26859
16.63387,-0.25416
16.39280,-0.24157
16.15173,-0.23869
15.91066,-0.24801
15.66959,-0.26035
15.42852,-0.26019
15.18745,-0.24641
14.94637,-0.23841
14.70530,-0.24984
14.46423,-0.26210
14.22316,-0.24728
13.98209,-0.21297
13.74102,-0.18601
13.49995,-0.18048
13.25888,-0.19455
13.01781,-0.21282
12.77674,-0.21949
12.53567,-0.22029
12.29460,-0.23359
12.05353,-0.25528
11.81246,-0.25960
11.57139,-0.23901
11.33032,-0.21005
11.08925,-0.19730
10.84818,-0.21117
10.60710,-0.24467
10.36603,-0.27906
10.12496,-0.29314
9.88389,-0.28388
9.64282,-0.27505
9.40175,-0.28311
9.16068,-0.29786
8.91961,-0.30611
8.67854,-0.30363
8.43747,-0.29041
8.19640,-0.26709
7.95533,-0.23651
7.71426,-0.21452
7.47319,-0.21722
7.23212,-0.23971
6.99105,-0.27160
6.74998,-0.30471
6.50891,-0.31915
6.26783,-0.29666
6.02676,-0.25431
5.78569,-0.22702
5.54462,-0.22771
5.30355,-0.24202
5.06248,-0.24924
4.82141,-0.24462
4.58034,-0.23885
4.33927,-0.23793
4.09820,-0.23675
3.85713,-0.23513
3.61606,-0.22807
3.37499,-0.20430
3.13392,-0.17123
2.89285,-0.15786
2.65178,-0.17481
2.41071,-0.20458
2.16964,-0.22633
1.92856,-0.22711
1.68749,-0.21656
1.44642,-0.21251
1.20535,-0.22187
0.96428,-0.25037
0.72321,-0.33139
0.48214,-0.47945
0.24107,-0.49386
-0.00000,-0.44504
