399.69498,1.54887
399.45391,1.54280
399.21284,1.56363
398.97177,1.60078
398.73070,1.62718
398.48963,1.62918
398.24856,1.62077
398.00749,1.61853
397.76642,1.61650
397.52535,1.60231
397.28428,1.58139
397.04321,1.56862
396.80214,1.56786
396.56107,1.56918
396.32000,1.56365
396.07892,1.55523
395.83785,1.55317
395.59678,1.55909
395.35571,1.56861
395.11464,1.57907
394.87357,1.58958
394.63250,1.59637
394.39143,1.59764
394.15036,1.59625
393.90929,1.59178
393.66822,1.58579
393.42715,1.58453
393.18608,1.59043
392.94501,1.60046
392.70394,1.60922
392.46287,1.60925
392.22180,1.59890
391.98073,1.58502
391.73965,1.57110
391.49858,1.56106
391.25751,1.55868
391.01644,1.55997
390.77537,1.55808
390.53430,1.54849
390.29323,1.53159
390.05216,1.51426
389.81109,1.50938
389.57002,1.52345
389.32895,1.54128
389.08788,1.54447
388.84681,1.53883
388.60574,1.53756
388.36467,1.53474
388.12360,1.51845
387.88253,1.49377
387.64146,1.47141
387.40038,1.45161
387.15931,1.43435
386.91824,1.42769
386.67717,1.43921
386.43610,1.46582
386.19503,1.49510
385.95396,1.51502
385.71289,1.51653
385.47182,1.49626
385.23075,1.46793
384.98968,1.45065
384.74861,1.45179
384.50754,1.45505
384.26647,1.43479
384.02540,1.39530
383.78433,1.35889
383.54326,1.33538
383.30219,1.32588
383.06111,1.32844
382.82004,1.33603
382.57897,1.34047
382.33790,1.33614
382.09683,1.32530
381.85576,1.31717
381.61469,1.31480
381.37362,1.31131
381.13255,1.30326
380.89148,1.29980
380.65041,1.30790
380.40934,1.32595
380.16827,1.35095
379.92720,1.37689
379.68613,1.39563
379.44506,1.40225
379.20399,1.40225
378.96292,1.39675
378.72184,1.38031
378.48077,1.35782
378.23970,1.33901
377.99863,1.33390
377.75756,1.34907
377.51649,1.37783
377.27542,1.40307
377.03435,1.41814
376.79328,1.42957
376.55221,1.43771
376.31114,1.44067
376.07007,1.44836
375.82900,1.46971
375.58793,1.49339
375.34686,1.50129
375.10579,1.49292
374.86472,1.47961
374.62365,1.46935
374.38257,1.46442
374.14150,1.46553
373.90043,1.47444
373.65936,1.48838
373.41829,1.49571
373.17722,1.49021
372.93615,1.48093
372.69508,1.47512
372.45401,1.46394
372.21294,1.43830
371.97187,1.40663
371.73080,1.38265
371.48973,1.37143
371.24866,1.36832
371.00759,1.36540
370.76652,1.35736
370.52545,1.34267
370.28437,1.32494
370.04330,1.31241
369.80223,1.31041
369.56116,1.31618
369.32009,1.32490
369.07902,1.33623
368.83795,1.35008
368.59688,1.35592
368.35581,1.34191
368.11474,1.31528
367.87367,1.29547
367.63260,1.29181
367.39153,1.29778
367.15046,1.30195
366.90939,1.30013
366.66832,1.29647
366.42725,1.29690
366.18618,1.30303
365.94510,1.30977
365.70403,1.31123
365.46296,1.30776
365.22189,1.30397
364.98082,1.30113
364.73975,1.29675
364.49868,1.28979
364.25761,1.28149
364.01654,1.27195
363.77547,1.26034
363.53440,1.24715
363.29333,1.23523
363.05226,1.23023
362.81119,1.23618
362.57012,1.24749
362.32905,1.25214
362.08798,1.24744
361.84691,1.24243
361.60583,1.24392
361.36476,1.25168
361.12369,1.26036
360.88262,1.26089
360.64155,1.25053
360.40048,1.24109
360.15941,1.24534
359.91834,1.25869
359.67727,1.26491
359.43620,1.26006
359.19513,1.25607
358.95406,1.26029
358.71299,1.26678
358.47192,1.26655
358.23085,1.25757
357.98978,1.24590
357.74871,1.24073
357.50764,1.24581
357.26656,1.25551
357.02549,1.26204
356.78442,1.26447
356.54335,1.26546
356.30228,1.26507
356.06121,1.26289
355.82014,1.26049
355.57907,1.25990
355.33800,1.26166
355.09693,1.26299
354.85586,1.25923
354.61479,1.25096
354.37372,1.24448
354.13265,1.24232
353.89158,1.24124
353.65051,1.23990
353.40944,1.24189
353.16837,1.25037
352.92729,1.26386
352.68622,1.27712
352.44515,1.28394
352.20408,1.27992
351.96301,1.26540
351.72194,1.24592
351.48087,1.22911
351.23980,1.22125
350.99873,1.22541
350.75766,1.23868
350.51659,1.25225
350.27552,1.25939
350.03445,1.26144
349.79338,1.26188
349.55231,1.26069
349.31124,1.25760
349.07017,1.25482
348.82910,1.25594
348.58802,1.26492
348.34695,1.28165
348.10588,1.29639
347.86481,1.29688
347.62374,1.28527
347.38267,1.27799
347.14160,1.28618
346.90053,1.30259
346.65946,1.30993
346.41839,1.30209
346.17732,1.29101
345.93625,1.29171
345.69518,1.30701
345.45411,1.32670
345.21304,1.33709
344.97197,1.33304
344.73090,1.32403
344.48983,1.32345
344.24875,1.33260
344.00768,1.34120
343.76661,1.34134
343.52554,1.33660
343.28447,1.33587
343.04340,1.34191
342.80233,1.34989
342.56126,1.35538
342.32019,1.35854
342.07912,1.36007
341.83805,1.36125
341.59698,1.36404
341.35591,1.36711
341.11484,1.36661
340.87377,1.36242
340.63270,1.36078
340.39163,1.36684
340.15056,1.38062
339.90948,1.39751
339.66841,1.41191
339.42734,1.42314
339.18627,1.43341
338.94520,1.44375
338.70413,1.45757
338.46306,1.47724
338.22199,1.49172
337.98092,1.48742
337.73985,1.47254
337.49878,1.46781
337.25771,1.48204
337.01664,1.50422
336.77557,1.51624
336.53450,1.50995
336.29343,1.49172
336.05236,1.47025
335.81129,1.45471
335.57021,1.44781
335.32914,1.44116
335.08807,1.43140
334.84700,1.42778
334.60593,1.43989
334.36486,1.46253
334.12379,1.47666
333.88272,1.47091
333.64165,1.45694
333.40058,1.45115
333.15951,1.45173
332.91844,1.44636
332.67737,1.43332
332.43630,1.41966
332.19523,1.40780
331.95416,1.39200
331.71309,1.37017
331.47202,1.35303
331.23094,1.35157
330.98987,1.36129
330.74880,1.36671
330.50773,1.36081
330.26666,1.35307
330.02559,1.35637
329.78452,1.37152
329.54345,1.38409
329.30238,1.37868
329.06131,1.35985
328.82024,1.34693
328.57917,1.34786
328.33810,1.35152
328.09703,1.34606
327.85596,1.33388
327.61489,1.32340
327.37382,1.31884
327.13275,1.31840
326.89167,1.31678
326.65060,1.31351
326.40953,1.31407
326.16846,1.32078
325.92739,1.33180
325.68632,1.34223
325.44525,1.34392
325.20418,1.33918
324.96311,1.33912
324.72204,1.34664
324.48097,1.35647
324.23990,1.36476
323.99883,1.36970
323.75776,1.36573
323.51669,1.35059
323.27562,1.33310
323.03455,1.32031
322.79348,1.31088
322.55240,1.30824
322.31133,1.31966
322.07026,1.34557
321.82919,1.37935
321.58812,1.40952
321.34705,1.42394
321.10598,1.41694
320.86491,1.39373
320.62384,1.37174
320.38277,1.36562
320.14170,1.36979
319.90063,1.36691
319.65956,1.35386
319.41849,1.34354
319.17742,1.34431
318.93635,1.35611
318.69528,1.37802
318.45421,1.40277
318.21313,1.41533
317.97206,1.41170
317.73099,1.39769
317.48992,1.37442
317.24885,1.34521
317.00778,1.32390
316.76671,1.32304
316.52564,1.34106
316.28457,1.36579
316.04350,1.38623
315.80243,1.39989
315.56136,1.40792
315.32029,1.40532
315.07922,1.38882
314.83815,1.37187
314.59708,1.36965
314.35601,1.38231
314.11494,1.40050
313.87386,1.41902
313.63279,1.43417
313.39172,1.43304
313.15065,1.41251
312.90958,1.38807
312.66851,1.37412
312.42744,1.37471
312.18637,1.38749
311.94530,1.40433
311.70423,1.41507
311.46316,1.41966
311.22209,1.42030
310.98102,1.41469
310.73995,1.40342
310.49888,1.39429
310.25781,1.39521
310.01674,1.40576
309.77567,1.42113
309.53459,1.43758
309.29352,1.45070
309.05245,1.45846
308.81138,1.45993
308.57031,1.45251
308.32924,1.44212
308.08817,1.43817
307.84710,1.44225
307.60603,1.45453
307.36496,1.47376
307.12389,1.48939
306.88282,1.49007
306.64175,1.47936
306.40068,1.47014
306.15961,1.46762
305.91854,1.46449
305.67747,1.45248
305.43640,1.43518
305.19532,1.42149
304.95425,1.41628
304.71318,1.41819
304.47211,1.42293
304.23104,1.42988
303.98997,1.43898
303.74890,1.44132
303.50783,1.43072
303.26676,1.41588
303.02569,1.40772
302.78462,1.40600
302.54355,1.40593
302.30248,1.40728
302.06141,1.40720
301.82034,1.39876
301.57927,1.38264
301.33820,1.36981
301.09713,1.36467
300.85605,1.35704
300.61498,1.33873
300.37391,1.31510
300.13284,1.29666
299.89177,1.28879
299.65070,1.28922
299.40963,1.29203
299.16856,1.29430
298.92749,1.29696
298.68642,1.29876
298.44535,1.29482
298.20428,1.28324
297.96321,1.26971
297.72214,1.26118
297.48107,1.25700
297.24000,1.25152
296.99893,1.24393
296.75786,1.23900
296.51678,1.23796
296.27571,1.23524
296.03464,1.22765
295.79357,1.21997
295.55250,1.21932
295.31143,1.22641
295.07036,1.23184
294.82929,1.22540
294.58822,1.20911
294.34715,1.19546
294.10608,1.19354
293.86501,1.19999
293.62394,1.20450
293.38287,1.20248
293.14180,1.19783
292.90073,1.19472
292.65966,1.19374
292.41859,1.19448
292.17751,1.19617
291.93644,1.19661
291.69537,1.19383
291.45430,1.18802
291.21323,1.18035
290.97216,1.17207
290.73109,1.16548
290.49002,1.16299
290.24895,1.16475
290.00788,1.16785
289.76681,1.16801
289.52574,1.16314
289.28467,1.15502
289.04360,1.14747
288.80253,1.14232
288.56146,1.13820
288.32039,1.13365
288.07932,1.12997
287.83824,1.12973
287.59717,1.13316
287.35610,1.13825
287.11503,1.14341
286.87396,1.14798
286.63289,1.15115
286.39182,1.15237
286.15075,1.15202
285.90968,1.15007
285.66861,1.14585
285.42754,1.13966
285.18647,1.13360
284.94540,1.13078
284.70433,1.13273
284.46326,1.13651
284.22219,1.13679
283.98112,1.13321
283.74005,1.13102
283.49897,1.13270
283.25790,1.13476
283.01683,1.13475
282.77576,1.13551
282.53469,1.13916
282.29362,1.14253
282.05255,1.14195
281.81148,1.13795
281.57041,1.13277
281.32934,1.12722
281.08827,1.12223
280.84720,1.11970
280.60613,1.12064
280.36506,1.12435
280.12399,1.12917
279.88292,1.13232
279.64185,1.13076
279.40078,1.12487
279.15970,1.11947
278.91863,1.11946
278.67756,1.12605
278.43649,1.13618
278.19542,1.14354
277.95435,1.14311
277.71328,1.13577
277.47221,1.12710
277.23114,1.12256
276.99007,1.12462
276.74900,1.13201
276.50793,1.13976
276.26686,1.14170
276.02579,1.13616
275.78472,1.12881
275.54365,1.12705
275.30258,1.13219
275.06151,1.13905
274.82043,1.14288
274.57936,1.14391
274.33829,1.14418
274.09722,1.14357
273.85615,1.14146
273.61508,1.13993
273.37401,1.14240
273.13294,1.14949
272.89187,1.15809
272.65080,1.16450
272.40973,1.16759
272.16866,1.16948
271.92759,1.17380
271.68652,1.18176
271.44545,1.18983
271.20438,1.19357
270.96331,1.19296
270.72224,1.19092
270.48116,1.18885
270.24009,1.18703
269.99902,1.18740
269.75795,1.19197
269.51688,1.19939
269.27581,1.20715
269.03474,1.21550
268.79367,1.22443
268.55260,1.23134
268.31153,1.23530
268.07046,1.23906
267.82939,1.24467
267.58832,1.25074
267.34725,1.25587
267.10618,1.26107
266.86511,1.26676
266.62404,1.27181
266.38297,1.27639
266.14189,1.28165
265.90082,1.28745
265.65975,1.29245
265.41868,1.29691
265.17761,1.30334
264.93654,1.31457
264.69547,1.33168
264.45440,1.35254
264.21333,1.37106
263.97226,1.38050
263.73119,1.38190
263.49012,1.38469
263.24905,1.39539
263.00798,1.41141
262.76691,1.42763
262.52584,1.44423
262.28477,1.46296
262.04370,1.48039
261.80262,1.49384
261.56155,1.50915
261.32048,1.53528
261.07941,1.57336
260.83834,1.61386
260.59727,1.64518
260.35620,1.66648
260.11513,1.68665
259.87406,1.71110
259.63299,1.73622
259.39192,1.75568
259.15085,1.77027
258.90978,1.78107
258.66871,1.78804
258.42764,1.80052
258.18657,1.82446
257.94550,1.85009
257.70443,1.87390
257.46335,1.89679
257.22228,1.89505
256.98121,1.86783
256.74014,1.84749
256.49907,1.84435
256.25800,1.84065
256.01693,1.82681
255.77586,1.81389
255.53479,1.80580
255.29372,1.78634
255.05265,1.74425
254.81158,1.69900
254.57051,1.67456
254.32944,1.66585
254.08837,1.65494
253.84730,1.64329
253.60623,1.64329
253.36516,1.65197
253.12408,1.65200
252.88301,1.63642
252.64194,1.62021
252.40087,1.61651
252.15980,1.62141
251.91873,1.62021
251.67766,1.60219
251.43659,1.57475
251.19552,1.55588
250.95445,1.55407
250.71338,1.56170
250.47231,1.56731
250.23124,1.56917
249.99017,1.57038
249.74910,1.57073
249.50803,1.57074
249.26696,1.57345
249.02589,1.58024
248.78481,1.59062
248.54374,1.59911
248.30267,1.59776
248.06160,1.58820
247.82053,1.57758
247.57946,1.57075
247.33839,1.57031
247.09732,1.57454
246.85625,1.57657
246.61518,1.57154
246.37411,1.56525
246.13304,1.57039
245.89197,1.59142
245.65090,1.61903
245.40983,1.64374
245.16876,1.66971
244.92769,1.70519
244.68661,1.74449
244.44554,1.77781
244.20447,1.81068
243.96340,1.85465
243.72233,1.90330
243.48126,1.93791
243.24019,1.96381
242.99912,1.99955
242.75805,2.01259
242.51698,1.92866
242.27591,1.79606
242.03484,1.69630
241.79377,1.62623
241.55270,1.56082
241.31163,1.49286
241.07056,1.42868
240.82949,1.37118
240.58842,1.31668
240.34734,1.26288
240.10627,1.21407
239.86520,1.17649
239.62413,1.15038
239.38306,1.12912
239.14199,1.10607
238.90092,1.07995
238.65985,1.05232
238.41878,1.02396
238.17771,0.99643
237.93664,0.97322
237.69557,0.95681
237.45450,0.94571
237.21343,0.93567
236.97236,0.92377
236.73129,0.91009
236.49022,0.89570
236.24915,0.88195
236.00807,0.87115
235.76700,0.86530
235.52593,0.86357
235.28486,0.86238
235.04379,0.85913
234.80272,0.85447
234.56165,0.85032
234.32058,0.84719
234.07951,0.84396
233.83844,0.83920
233.59737,0.83247
233.35630,0.82555
233.11523,0.82171
232.87416,0.82222
232.63309,0.82442
232.39202,0.82457
232.15095,0.82197
231.90988,0.81834
231.66880,0.81448
231.42773,0.81036
231.18666,0.80736
230.94559,0.80697
230.70452,0.80784
230.46345,0.80711
230.22238,0.80384
229.98131,0.79951
229.74024,0.79613
229.49917,0.79533
229.25810,0.79735
229.01703,0.80031
228.77596,0.80213
228.53489,0.80307
228.29382,0.80406
228.05275,0.80424
227.81168,0.80265
227.57061,0.80050
227.32953,0.79907
227.08846,0.79737
226.84739,0.79457
226.60632,0.79237
226.36525,0.79249
226.12418,0.79404
225.88311,0.79505
225.64204,0.79483
225.40097,0.79417
225.15990,0.79380
224.91883,0.79328
224.67776,0.79247
224.43669,0.79346
224.19562,0.79855
223.95455,0.80659
223.71348,0.81425
223.47241,0.82025
223.23134,0.82526
222.99026,0.82974
222.74919,0.83444
222.50812,0.84048
222.26705,0.84793
222.02598,0.85556
221.78491,0.86136
221.54384,0.86403
221.30277,0.86554
221.06170,0.87025
220.82063,0.88002
220.57956,0.89281
220.33849,0.90591
220.09742,0.91807
219.85635,0.92874
219.61528,0.93779
219.37421,0.94600
219.13314,0.95469
218.89207,0.96494
218.65099,0.97636
218.40992,0.98761
218.16885,0.99918
217.92778,1.01372
217.68671,1.03297
217.44564,1.05524
217.20457,1.07625
216.96350,1.09234
216.72243,1.10314
216.48136,1.11073
216.24029,1.11733
215.99922,1.12605
215.75815,1.14179
215.51708,1.16674
215.27601,1.19608
215.03494,1.22225
214.79387,1.24172
214.55280,1.25468
214.31172,1.26172
214.07065,1.26593
213.82958,1.27554
213.58851,1.29729
213.34744,1.32690
213.10637,1.35125
212.86530,1.36022
212.62423,1.35407
212.38316,1.34143
212.14209,1.33048
211.90102,1.32555
211.65995,1.32751
211.41888,1.33412
211.17781,1.34390
210.93674,1.35535
210.69567,1.36506
210.45460,1.36959
210.21353,1.36647
209.97245,1.35885
209.73138,1.35540
209.49031,1.35930
209.24924,1.36359
209.00817,1.36204
208.76710,1.35721
208.52603,1.35217
208.28496,1.34566
208.04389,1.34125
207.80282,1.34586
207.56175,1.35581
207.32068,1.35598
207.07961,1.33792
206.83854,1.31038
206.59747,1.28575
206.35640,1.26879
206.11533,1.25914
205.87426,1.25341
205.63318,1.24338
205.39211,1.22286
205.15104,1.19638
204.90997,1.17409
204.66890,1.16100
204.42783,1.15265
204.18676,1.14069
203.94569,1.12194
203.70462,1.10051
203.46355,1.08281
203.22248,1.07288
202.98141,1.06873
202.74034,1.06129
202.49927,1.04184
202.25820,1.01347
202.01713,0.98730
201.77606,0.96884
201.53499,0.95513
201.29391,0.94167
201.05284,0.92724
200.81177,0.91194
200.57070,0.89485
200.32963,0.87570
200.08856,0.85683
199.84749,0.84126
199.60642,0.82957
199.36535,0.81977
199.12428,0.81041
198.88321,0.80252
198.64214,0.79766
198.40107,0.79461
198.16000,0.78907
197.91893,0.77745
197.67786,0.76139
197.43679,0.74710
197.19572,0.73859
196.95464,0.73231
196.71357,0.72098
196.47250,0.70417
196.23143,0.68943
195.99036,0.68241
195.74929,0.68054
195.50822,0.67667
195.26715,0.66765
195.02608,0.65721
194.78501,0.65037
194.54394,0.64776
194.30287,0.64557
194.06180,0.63991
193.82073,0.63101
193.57966,0.62261
193.33859,0.61775
193.09752,0.61580
192.85645,0.61334
192.61537,0.60887
192.37430,0.60490
192.13323,0.60358
191.89216,0.60297
191.65109,0.59950
191.41002,0.59313
191.16895,0.58699
190.92788,0.58217
190.68681,0.57681
190.44574,0.57087
190.20467,0.56756
189.96360,0.56793
189.72253,0.56840
189.48146,0.56643
189.24039,0.56460
188.99932,0.56549
188.75825,0.56681
188.51718,0.56547
188.27610,0.56291
188.03503,0.56189
187.79396,0.56151
187.55289,0.55929
187.31182,0.55564
187.07075,0.55282
186.82968,0.55133
186.58861,0.54967
186.34754,0.54704
186.10647,0.54487
185.86540,0.54563
185.62433,0.55026
185.38326,0.55657
185.14219,0.56114
184.90112,0.56306
184.66005,0.56467
184.41898,0.56763
184.17791,0.57030
183.93683,0.57089
183.69576,0.57050
183.45469,0.57068
183.21362,0.57105
182.97255,0.57154
182.73148,0.57320
182.49041,0.57528
182.24934,0.57572
182.00827,0.57486
181.76720,0.57496
181.52613,0.57648
181.28506,0.57847
181.04399,0.58094
180.80292,0.58400
180.56185,0.58687
180.32078,0.58947
180.07971,0.59251
179.83864,0.59588
179.59756,0.59931
179.35649,0.60344
179.11542,0.60867
178.87435,0.61481
178.63328,0.62206
178.39221,0.63078
178.15114,0.64123
177.91007,0.65372
177.66900,0.66739
177.42793,0.68037
177.18686,0.69325
176.94579,0.70936
176.70472,0.72955
176.46365,0.75077
176.22258,0.77023
175.98151,0.78700
175.74044,0.80137
175.49937,0.81636
175.25829,0.83655
175.01722,0.86227
174.77615,0.88865
174.53508,0.91211
174.29401,0.93441
174.05294,0.95886
173.81187,0.98553
173.57080,1.01178
173.32973,1.03576
173.08866,1.05733
172.84759,1.07568
172.60652,1.08801
172.36545,1.09145
172.12438,1.08665
171.88331,1.07891
171.64224,1.07314
171.40117,1.06914
171.16010,1.06492
170.91902,1.06133
170.67795,1.05974
170.43688,1.05895
170.19581,1.05715
169.95474,1.05392
169.71367,1.04886
169.47260,1.04132
169.23153,1.03206
168.99046,1.02277
168.74939,1.01422
168.50832,1.00594
168.26725,0.99792
168.02618,0.99182
167.78511,0.98945
167.54404,0.99062
167.30297,0.99357
167.06190,0.99669
166.82083,0.99951
166.57975,1.00233
166.33868,1.00477
166.09761,1.00553
165.85654,1.00431
165.61547,1.00350
165.37440,1.00662
165.13333,1.01567
164.89226,1.03010
164.65119,1.04837
164.41012,1.06987
164.16905,1.09419
163.92798,1.11862
163.68691,1.13800
163.44584,1.14915
163.20477,1.15463
162.96370,1.15970
162.72263,1.16685
162.48156,1.17578
162.24048,1.18804
161.99941,1.20596
161.75834,1.22445
161.51727,1.23101
161.27620,1.22048
161.03513,1.20139
160.79406,1.18562
160.55299,1.17955
160.31192,1.18248
160.07085,1.18996
159.82978,1.19843
159.58871,1.20481
159.34764,1.20253
159.10657,1.18531
158.86550,1.15799
158.62443,1.13373
158.38336,1.12099
158.14229,1.11955
157.90121,1.12403
157.66014,1.12665
157.41907,1.12105
157.17800,1.10739
156.93693,1.09210
156.69586,1.08311
156.45479,1.08454
156.21372,1.09260
155.97265,1.09576
155.73158,1.08434
155.49051,1.06062
155.24944,1.03464
155.00837,1.01470
154.76730,1.00353
154.52623,0.99812
154.28516,0.99129
154.04409,0.97712
153.80302,0.95635
153.56194,0.93410
153.32087,0.91392
153.07980,0.89556
152.83873,0.87643
152.59766,0.85450
152.35659,0.83013
152.11552,0.80588
151.87445,0.78468
151.63338,0.76737
151.39231,0.75206
151.15124,0.73631
150.91017,0.71904
150.66910,0.69982
150.42803,0.67925
150.18696,0.66038
149.94589,0.64647
149.70482,0.63658
149.46375,0.62667
149.22267,0.61518
148.98160,0.60451
148.74053,0.59684
148.49946,0.59148
148.25839,0.58605
148.01732,0.57923
147.77625,0.57219
147.53518,0.56733
147.29411,0.56584
147.05304,0.56659
146.81197,0.56757
146.57090,0.56819
146.32983,0.56995
146.08876,0.57401
145.84769,0.57894
145.60662,0.58211
145.36555,0.58322
145.12448,0.58474
144.88340,0.58935
144.64233,0.59788
144.40126,0.60838
144.16019,0.61729
143.91912,0.62244
143.67805,0.62367
143.43698,0.62108
143.19591,0.61466
142.95484,0.60585
142.71377,0.59660
142.47270,0.58685
142.23163,0.57576
141.99056,0.56426
141.74949,0.55424
141.50842,0.54579
141.26735,0.53770
141.02628,0.53029
140.78521,0.52583
140.54413,0.52541
140.30306,0.52702
140.06199,0.52807
139.82092,0.52842
139.57985,0.52998
139.33878,0.53409
139.09771,0.54034
138.85664,0.54743
138.61557,0.55488
138.37450,0.56382
138.13343,0.57573
137.89236,0.59054
137.65129,0.60717
137.41022,0.62563
137.16915,0.64629
136.92808,0.66744
136.68701,0.68642
136.44594,0.70347
136.20486,0.72196
135.96379,0.74489
135.72272,0.77333
135.48165,0.80680
135.24058,0.84332
134.99951,0.88043
134.75844,0.91707
134.51737,0.95374
134.27630,0.99190
134.03523,1.03275
133.79416,1.07435
133.55309,1.11212
133.31202,1.14529
133.07095,1.17769
132.82988,1.20864
132.58881,1.23070
132.34774,1.24046
132.10667,1.24430
131.86559,1.24954
131.62452,1.25384
131.38345,1.24406
131.14238,1.21363
130.90131,1.17605
130.66024,1.14469
130.41917,1.11653
130.17810,1.08218
129.93703,1.03991
129.69596,0.99353
129.45489,0.94547
129.21382,0.89686
128.97275,0.85073
128.73168,0.81045
128.49061,0.77597
128.24954,0.74464
128.00847,0.71480
127.76740,0.68663
127.52632,0.66032
127.28525,0.63514
127.04418,0.61064
126.80311,0.58810
126.56204,0.56928
126.32097,0.55371
126.07990,0.53867
125.83883,0.52216
125.59776,0.50494
125.35669,0.48922
125.11562,0.47615
124.87455,0.46518
124.63348,0.45531
124.39241,0.44672
124.15134,0.44030
123.91027,0.43572
123.66920,0.43156
123.42812,0.42744
123.18705,0.42418
122.94598,0.42194
122.70491,0.42020
122.46384,0.41927
122.22277,0.41964
121.98170,0.42064
121.74063,0.42184
121.49956,0.42463
121.25849,0.43032
121.01742,0.43803
120.77635,0.44639
120.53528,0.45606
120.29421,0.46860
120.05314,0.48398
119.81207,0.50106
119.57100,0.51948
119.32993,0.54018
119.08885,0.56488
118.84778,0.59520
118.60671,0.63141
118.36564,0.67104
118.12457,0.70895
117.88350,0.74023
117.64243,0.76382
117.40136,0.78197
117.16029,0.79681
116.91922,0.80807
116.67815,0.81375
116.43708,0.81264
116.19601,0.80679
115.95494,0.80007
115.71387,0.79359
115.47280,0.78470
115.23173,0.77137
114.99066,0.75444
114.74958,0.73532
114.50851,0.71475
114.26744,0.69428
114.02637,0.67609
113.78530,0.66152
113.54423,0.65156
113.30316,0.64801
113.06209,0.65203
112.82102,0.66193
112.57995,0.67440
112.33888,0.68815
112.09781,0.70388
111.85674,0.72062
111.61567,0.73422
111.37460,0.74007
111.13353,0.73746
110.89246,0.73142
110.65139,0.72913
110.41031,0.73391
110.16924,0.74363
109.92817,0.75402
109.68710,0.75873
109.44603,0.74817
109.20496,0.71687
108.96389,0.67156
108.72282,0.62614
108.48175,0.59101
108.24068,0.56855
107.99961,0.55540
107.75854,0.54690
107.51747,0.53901
107.27640,0.52752
107.03533,0.50863
106.79426,0.48261
106.55319,0.45457
106.31212,0.43009
106.07104,0.41282
105.82997,0.40356
105.58890,0.40003
105.34783,0.39837
105.10676,0.39401
104.86569,0.38290
104.62462,0.36572
104.38355,0.34893
104.14248,0.33862
103.90141,0.33470
103.66034,0.33205
103.41927,0.32576
103.17820,0.31487
102.93713,0.30262
102.69606,0.29360
102.45499,0.29033
102.21392,0.29160
101.97285,0.29307
101.73177,0.29015
101.49070,0.28158
101.24963,0.27144
101.00856,0.26658
100.76749,0.27010
100.52642,0.27719
100.28535,0.27884
100.04428,0.27162
99.80321,0.26122
99.56214,0.25507
99.32107,0.25541
99.08000,0.25859
98.83893,0.25846
98.59786,0.25260
98.35679,0.24520
98.11572,0.24230
97.87465,0.24535
97.63358,0.24967
97.39250,0.24976
97.15143,0.24731
96.91036,0.24967
96.66929,0.25982
96.42822,0.27145
96.18715,0.27532
95.94608,0.27319
95.70501,0.27712
95.46394,0.29228
95.22287,0.30968
94.98180,0.31927
94.74073,0.32399
94.49966,0.32996
94.25859,0.33404
94.01752,0.33185
93.77645,0.32861
93.53538,0.33082
93.29431,0.33537
93.05323,0.33605
92.81216,0.33454
92.57109,0.33548
92.33002,0.33811
92.08895,0.34017
91.84788,0.34314
91.60681,0.34848
91.36574,0.35629
91.12467,0.36938
90.88360,0.39017
90.64253,0.41575
90.40146,0.44474
90.16039,0.48237
89.91932,0.53020
89.67825,0.58238
89.43718,0.63658
89.19611,0.69280
88.95504,0.74118
88.71396,0.76896
88.47289,0.77332
88.23182,0.75594
87.99075,0.71947
87.74968,0.66890
87.50861,0.60966
87.26754,0.54910
87.02647,0.49544
86.78540,0.45157
86.54433,0.41517
86.30326,0.38407
86.06219,0.35716
85.82112,0.33295
85.58005,0.31056
85.33898,0.28991
85.09791,0.27060
84.85684,0.25255
84.61577,0.23652
84.37469,0.22290
84.13362,0.21137
83.89255,0.20169
83.65148,0.19393
83.41041,0.18815
83.16934,0.18401
82.92827,0.18128
82.68720,0.18078
82.44613,0.18276
82.20506,0.18456
81.96399,0.18284
81.72292,0.17835
81.48185,0.17526
81.24078,0.17600
80.99971,0.17883
80.75864,0.18036
80.51757,0.17914
80.27650,0.17649
80.03542,0.17385
79.79435,0.17125
79.55328,0.16898
79.31221,0.16844
79.07114,0.17001
78.83007,0.17188
78.58900,0.17199
78.34793,0.16982
78.10686,0.16589
77.86579,0.16056
77.62472,0.15410
77.38365,0.14735
77.14258,0.14182
76.90151,0.13889
76.66044,0.13877
76.41937,0.14032
76.17830,0.14227
75.93723,0.14436
75.69615,0.14644
75.45508,0.14724
75.21401,0.14574
74.97294,0.14259
74.73187,0.13885
74.49080,0.13487
74.24973,0.13144
74.00866,0.13015
73.76759,0.13141
73.52652,0.13388
73.28545,0.13635
73.04438,0.13876
72.80331,0.14116
72.56224,0.14340
72.32117,0.14586
72.08010,0.14913
71.83903,0.15284
71.59796,0.15596
71.35688,0.15818
71.11581,0.15981
70.87474,0.16151
70.63367,0.16547
70.39260,0.17560
70.15153,0.19469
69.91046,0.22209
69.66939,0.25364
69.42832,0.28161
69.18725,0.29605
68.94618,0.29140
68.70511,0.27163
68.46404,0.24551
68.22297,0.21897
67.98190,0.19381
67.74083,0.17073
67.49976,0.15120
67.25869,0.13668
67.01761,0.12726
66.77654,0.12180
66.53547,0.11940
66.29440,0.12001
66.05333,0.12371
65.81226,0.13042
65.57119,0.13985
65.33012,0.15120
65.08905,0.16320
64.84798,0.17518
64.60691,0.18737
64.36584,0.19939
64.12477,0.20899
63.88370,0.21308
63.64263,0.20975
63.40156,0.19888
63.16049,0.18213
62.91942,0.16284
62.67834,0.14459
62.43727,0.12951
62.19620,0.11853
61.95513,0.11233
61.71406,0.11061
61.47299,0.11161
61.23192,0.11380
60.99085,0.11752
60.74978,0.12412
60.50871,0.13412
60.26764,0.14638
60.02657,0.15773
59.78550,0.16318
59.54443,0.15921
59.30336,0.14807
59.06229,0.13592
58.82122,0.12643
58.58015,0.11965
58.33907,0.11564
58.09800,0.11528
57.85693,0.11893
57.61586,0.12701
57.37479,0.14026
57.13372,0.15718
56.89265,0.17271
56.65158,0.18033
56.41051,0.17547
56.16944,0.15893
55.92837,0.13663
55.68730,0.11531
55.44623,0.09994
55.20516,0.09356
54.96409,0.09775
54.72302,0.11392
54.48195,0.14382
54.24088,0.18315
53.99980,0.20866
53.75873,0.19369
53.51766,0.15336
53.27659,0.11637
53.03552,0.09468
52.79445,0.09348
52.55338,0.11766
52.31231,0.16490
52.07124,0.20734
51.83017,0.19767
51.58910,0.14837
51.34803,0.10820
51.10696,0.09786
50.86589,0.11897
50.62482,0.15984
50.38375,0.18455
50.14268,0.16188
49.90161,0.12176
49.66053,0.10564
49.41946,0.13004
49.17839,0.18064
48.93732,0.19131
48.69625,0.13953
48.45518,0.10013
48.21411,0.10933
47.97304,0.15300
47.73197,0.16567
47.49090,0.12900
47.24983,0.11133
47.00876,0.13085
46.76769,0.14583
46.52662,0.12515
46.28555,0.10824
46.04448,0.11530
45.80341,0.12095
45.56234,0.11343
45.32126,0.10968
45.08019,0.11267
44.83912,0.11386
44.59805,0.11894
44.35698,0.13245
44.11591,0.14719
43.87484,0.16178
43.63377,0.17529
43.39270,0.17410
43.15163,0.15813
42.91056,0.14934
42.66949,0.15661
42.42842,0.16731
42.18735,0.17017
41.94628,0.16615
41.70521,0.16070
41.46414,0.15717
41.22307,0.15350
40.98199,0.14629
40.74092,0.13946
40.49985,0.14047
40.25878,0.14980
40.01771,0.16163
39.77664,0.17206
39.53557,0.18262
39.29450,0.19469
39.05343,0.20315
38.81236,0.20249
38.57129,0.19547
38.33022,0.18745
38.08915,0.18135
37.84808,0.17993
37.60701,0.18310
37.36594,0.18688
37.12487,0.19075
36.88380,0.19762
36.64272,0.20450
36.40165,0.20738
36.16058,0.20975
35.91951,0.21312
35.67844,0.21411
35.43737,0.21265
35.19630,0.21166
34.95523,0.21260
34.71416,0.21543
34.47309,0.22132
34.23202,0.23334
33.99095,0.24815
33.74988,0.25138
33.50881,0.23307
33.26774,0.20649
33.02667,0.19681
32.78560,0.21323
32.54453,0.24090
32.30345,0.25438
32.06238,0.24303
31.82131,0.21993
31.58024,0.19782
31.33917,0.18115
31.09810,0.16926
30.85703,0.15634
30.61596,0.13748
30.37489,0.11697
30.13382,0.10285
29.89275,0.09917
29.65168,0.10205
29.41061,0.09854
29.16954,0.07698
28.92847,0.04323
28.68740,0.02181
28.44633,0.03148
28.20526,0.06152
27.96418,0.08504
27.72311,0.08548
27.48204,0.06298
27.24097,0.02914
26.99990,0.00036
26.75883,-0.01041
26.51776,-0.00827
26.27669,-0.01536
26.03562,-0.03576
25.79455,-0.05085
25.55348,-0.04823
25.31241,-0.03224
25.07134,-0.01627
24.83027,-0.01106
24.58920,-0.01457
24.34813,-0.01895
24.10706,-0.02708
23.86599,-0.04678
23.62491,-0.07207
23.38384,-0.08998
23.14277,-0.10593
22.90170,-0.13221
22.66063,-0.15250
22.41956,-0.13556
22.17849,-0.08760
21.93742,-0.04997
21.69635,-0.05543
21.45528,-0.09187
21.21421,-0.11724
20.97314,-0.11297
20.73207,-0.09791
20.49100,-0.09563
20.24993,-0.11403
20.00886,-0.15031
19.76779,-0.19962
19.52672,-0.24810
19.28564,-0.27547
19.04457,-0.28066
18.80350,-0.28994
18.56243,-0.31112
18.32136,-0.31399
18.08029,-0.29042
17.83922,-0.26828
17.59815,-0.26928
17.35708,-0.27845
17.11601,-0.26976
16.87494,-0.24945
16.63387,-0.23868
16.39280,-0.23907
16.15173,-0.23896
15.91066,-0.23475
15.66959,-0.24141
15.42852,-0.28061
15.18745,-0.35049
14.94637,-0.40481
14.70530,-0.38975
14.46423,-0.32331
14.22316,-0.26681
13.98209,-0.25104
13.74102,-0.27301
13.49995,-0.31050
13.25888,-0.32473
13.01781,-0.30851
12.77674,-0.29156
12.53567,-0.28505
12.29460,-0.30257
12.05353,-0.35106
11.81246,-0.39087
11.57139,-0.37956
11.33032,-0.34835
11.08925,-0.35051
10.84818,-0.38872
10.60710,-0.42382
10.36603,-0.41530
10.12496,-0.35521
9.88389,-0.29181
9.64282,-0.26630
9.40175,-0.28420
9.16068,-0.31997
8.91961,-0.33210
8.67854,-0.31763
8.43747,-0.30237
8.19640,-0.29086
7.95533,-0.27393
7.71426,-0.25601
7.47319,-0.25823
7.23212,-0.28747
6.99105,-0.32312
6.74998,-0.34415
6.50891,-0.35429
6.26783,-0.38021
6.02676,-0.42284
5.78569,-0.44296
5.54462,-0.42274
5.30355,-0.40160
5.06248,-0.41055
4.82141,-0.42898
4.58034,-0.42876
4.33927,-0.40340
4.09820,-0.37874
3.85713,-0.37706
3.61606,-0.39448
3.37499,-0.41553
3.13392,-0.42504
2.89285,-0.41708
2.65178,-0.41262
2.41071,-0.42579
2.16964,-0.44242
1.92856,-0.46697
1.68749,-0.44150
1.44642,-0.37838
1.20535,-0.35372
0.96428,-0.38311
0.72321,-0.42480
0.48214,-0.47763
0.24107,-0.44365
-0.00000,-0.08532
