399.69498,1.72251
399.45391,1.80067
399.21284,1.88282
398.97177,1.90235
398.73070,1.83815
398.48963,1.80995
398.24856,1.87249
398.00749,1.95878
397.76642,1.96430
397.52535,1.91870
397.28428,1.90527
397.04321,1.93201
396.80214,1.94484
396.56107,1.90272
396.32000,1.83394
396.07892,1.80347
395.83785,1.85003
395.59678,1.93425
395.35571,1.95414
395.11464,1.89014
394.87357,1.81436
394.63250,1.79251
394.39143,1.83275
394.15036,1.88955
393.90929,1.92118
393.66822,1.94782
393.42715,2.00745
393.18608,2.08846
392.94501,2.07582
392.70394,2.00844
392.46287,1.94441
392.22180,1.88167
391.98073,1.81787
391.73965,1.82583
391.49858,1.88114
391.25751,1.88517
391.01644,1.85901
390.77537,1.85393
390.53430,1.88558
390.29323,1.93709
390.05216,1.98343
389.81109,2.01965
389.57002,2.06343
389.32895,2.16102
389.08788,2.24023
388.84681,2.10283
388.60574,1.99610
388.36467,1.98812
388.12360,1.95348
387.88253,2.07746
387.64146,2.28312
387.40038,2.23334
387.15931,2.09417
386.91824,2.04323
386.67717,2.23266
386.43610,2.49798
386.19503,2.36959
385.95396,2.22445
385.71289,2.13541
385.47182,2.08914
385.23075,2.12205
384.98968,2.14719
384.74861,1.97837
384.50754,1.86298
384.26647,1.84865
384.02540,1.83727
383.78433,1.79195
383.54326,1.79425
383.30219,1.89799
383.06111,2.03794
382.82004,2.11002
382.57897,2.10768
382.33790,2.00280
382.09683,1.98305
381.85576,1.98887
381.61469,1.87377
381.37362,1.73427
381.13255,1.72114
380.89148,1.84853
380.65041,1.95747
380.40934,1.87890
380.16827,1.74225
379.92720,1.64771
379.68613,1.68301
379.44506,1.85133
379.20399,2.09423
378.96292,2.19681
378.72184,2.17110
378.48077,2.05643
378.23970,1.86450
377.99863,1.69685
377.75756,1.65186
377.51649,1.75051
377.27542,1.92079
377.03435,2.00693
376.79328,1.99322
376.55221,1.94418
376.31114,1.93392
376.07007,2.06738
375.82900,2.37375
375.58793,2.55552
375.34686,2.56842
375.10579,2.23919
374.86472,2.03599
374.62365,1.96757
374.38257,2.01290
374.14150,2.04665
373.90043,1.97454
373.65936,1.91410
373.41829,1.88467
373.17722,1.92069
372.93615,2.03716
372.69508,2.08953
372.45401,1.95782
372.21294,1.80023
371.97187,1.71762
371.73080,1.69427
371.48973,1.69527
371.24866,1.70327
371.00759,1.70362
370.76652,1.68174
370.52545,1.64680
370.28437,1.62204
370.04330,1.61005
369.80223,1.60190
369.56116,1.57963
369.32009,1.53975
369.07902,1.50892
368.83795,1.50919
368.59688,1.53119
368.35581,1.53389
368.11474,1.49391
367.87367,1.44242
367.63260,1.42479
367.39153,1.45263
367.15046,1.49133
366.90939,1.49461
366.66832,1.46561
366.42725,1.44272
366.18618,1.44554
365.94510,1.46070
365.70403,1.46141
365.46296,1.43974
365.22189,1.41354
364.98082,1.40419
364.73975,1.41339
364.49868,1.42965
364.25761,1.44413
364.01654,1.44807
363.77547,1.43478
363.53440,1.41164
363.29333,1.39222
363.05226,1.37494
362.81119,1.35090
362.57012,1.32589
362.32905,1.31488
362.08798,1.32379
361.84691,1.34684
361.60583,1.37441
361.36476,1.39661
361.12369,1.41065
360.88262,1.41431
360.64155,1.39836
360.40048,1.36197
360.15941,1.32347
359.91834,1.30759
359.67727,1.32390
359.43620,1.36023
359.19513,1.39194
358.95406,1.40171
358.71299,1.39406
358.47192,1.38546
358.23085,1.38383
357.98978,1.38667
357.74871,1.39285
357.50764,1.40478
357.26656,1.42165
357.02549,1.43410
356.78442,1.42995
356.54335,1.41138
356.30228,1.39511
356.06121,1.39625
355.82014,1.41890
355.57907,1.44331
355.33800,1.43510
355.09693,1.39499
354.85586,1.35858
354.61479,1.35118
354.37372,1.37344
354.13265,1.40364
353.89158,1.40936
353.65051,1.38126
353.40944,1.34472
353.16837,1.32857
352.92729,1.33601
352.68622,1.34757
352.44515,1.35099
352.20408,1.35493
351.96301,1.36766
351.72194,1.38127
351.48087,1.38680
351.23980,1.39007
350.99873,1.39737
350.75766,1.40408
350.51659,1.40453
350.27552,1.40049
350.03445,1.39542
349.79338,1.38882
349.55231,1.38212
349.31124,1.37787
349.07017,1.37627
348.82910,1.38382
348.58802,1.41256
348.34695,1.46123
348.10588,1.50349
347.86481,1.51331
347.62374,1.50053
347.38267,1.49360
347.14160,1.50021
346.90053,1.50310
346.65946,1.49175
346.41839,1.47456
346.17732,1.45779
345.93625,1.44210
345.69518,1.43077
345.45411,1.42933
345.21304,1.44218
344.97197,1.46488
344.73090,1.48718
344.48983,1.50719
344.24875,1.53309
344.00768,1.56583
343.76661,1.59095
343.52554,1.60320
343.28447,1.61184
343.04340,1.61996
342.80233,1.62419
342.56126,1.61430
342.32019,1.59728
342.07912,1.60178
341.83805,1.63724
341.59698,1.68667
341.35591,1.72339
341.11484,1.72702
340.87377,1.70597
340.63270,1.69382
340.39163,1.70816
340.15056,1.73843
339.90948,1.76860
339.66841,1.78327
339.42734,1.76337
339.18627,1.72433
338.94520,1.71521
338.70413,1.76362
338.46306,1.84791
338.22199,1.91004
337.98092,1.92797
337.73985,1.92282
337.49878,1.90173
337.25771,1.89766
337.01664,1.94864
336.77557,1.96613
336.53450,1.91229
336.29343,1.87045
336.05236,1.83367
335.81129,1.78125
335.57021,1.73039
335.32914,1.70285
335.08807,1.72543
334.84700,1.77391
334.60593,1.77184
334.36486,1.72295
334.12379,1.68817
333.88272,1.68174
333.64165,1.68004
333.40058,1.68591
333.15951,1.71900
332.91844,1.78146
332.67737,1.85547
332.43630,1.88997
332.19523,1.85065
331.95416,1.78256
331.71309,1.70965
331.47202,1.65018
331.23094,1.60831
330.98987,1.57788
330.74880,1.56118
330.50773,1.54500
330.26666,1.51377
330.02559,1.48182
329.78452,1.47397
329.54345,1.49739
329.30238,1.53372
329.06131,1.54777
328.82024,1.53211
328.57917,1.50580
328.33810,1.47734
328.09703,1.45146
327.85596,1.44246
327.61489,1.47424
327.37382,1.56073
327.13275,1.67597
326.89167,1.77082
326.65060,1.83998
326.40953,1.89831
326.16846,1.90872
325.92739,1.82573
325.68632,1.71637
325.44525,1.65036
325.20418,1.64197
324.96311,1.66224
324.72204,1.68332
324.48097,1.70318
324.23990,1.71911
323.99883,1.74520
323.75776,1.78768
323.51669,1.81912
323.27562,1.82900
323.03455,1.87428
322.79348,1.97802
322.55240,2.08137
322.31133,2.11211
322.07026,2.06672
321.82919,1.99532
321.58812,1.94273
321.34705,1.92674
321.10598,2.00526
320.86491,2.13200
320.62384,2.03531
320.38277,1.88891
320.14170,1.91130
319.90063,2.02175
319.65956,2.00753
319.41849,2.01010
319.17742,2.05565
318.93635,2.09809
318.69528,2.08997
318.45421,2.05785
318.21313,2.03146
317.97206,1.91721
317.73099,1.89814
317.48992,1.97112
317.24885,2.05633
317.00778,2.06310
316.76671,2.07096
316.52564,2.06650
316.28457,1.95498
316.04350,1.80935
315.80243,1.73370
315.56136,1.73992
315.32029,1.79985
315.07922,1.91458
314.83815,2.05734
314.59708,2.05051
314.35601,1.95031
314.11494,1.84686
313.87386,1.78864
313.63279,1.79308
313.39172,1.87675
313.15065,1.97260
312.90958,1.95448
312.66851,1.95227
312.42744,2.06879
312.18637,2.23020
311.94530,2.05773
311.70423,1.96124
311.46316,2.01268
311.22209,2.06011
310.98102,2.00785
310.73995,1.97488
310.49888,2.03354
310.25781,2.15628
310.01674,2.24586
309.77567,2.32426
309.53459,2.18212
309.29352,2.03132
309.05245,1.94524
308.81138,1.93779
308.57031,2.06881
308.32924,2.31801
308.08817,2.43358
307.84710,2.24334
307.60603,2.00474
307.36496,1.87491
307.12389,1.82679
306.88282,1.81523
306.64175,1.79353
306.40068,1.73568
306.15961,1.67849
305.91854,1.64502
305.67747,1.62034
305.43640,1.59154
305.19532,1.57223
304.95425,1.58322
304.71318,1.62446
304.47211,1.66555
304.23104,1.66690
303.98997,1.62927
303.74890,1.58790
303.50783,1.55571
303.26676,1.51926
303.02569,1.47179
302.78462,1.42700
302.54355,1.39626
302.30248,1.37026
302.06141,1.33759
301.82034,1.30731
301.57927,1.29303
301.33820,1.29148
301.09713,1.28960
300.85605,1.28648
300.61498,1.28649
300.37391,1.28290
300.13284,1.27063
299.89177,1.25695
299.65070,1.24793
299.40963,1.24431
299.16856,1.24856
298.92749,1.25909
298.68642,1.26477
298.44535,1.25477
298.20428,1.23335
297.96321,1.21358
297.72214,1.20160
297.48107,1.19632
297.24000,1.19504
296.99893,1.19477
296.75786,1.19160
296.51678,1.18795
296.27571,1.18721
296.03464,1.18276
295.79357,1.16918
295.55250,1.15171
295.31143,1.14022
295.07036,1.13914
294.82929,1.14459
294.58822,1.15018
294.34715,1.15272
294.10608,1.15125
293.86501,1.14492
293.62394,1.13546
293.38287,1.12793
293.14180,1.12598
292.90073,1.12990
292.65966,1.13679
292.41859,1.13944
292.17751,1.13155
291.93644,1.11535
291.69537,1.09691
291.45430,1.07896
291.21323,1.06502
290.97216,1.06135
290.73109,1.06844
290.49002,1.07675
290.24895,1.07802
290.00788,1.07554
289.76681,1.07551
289.52574,1.07682
289.28467,1.07583
289.04360,1.07397
288.80253,1.07374
288.56146,1.07175
288.32039,1.06270
288.07932,1.04761
287.83824,1.03393
287.59717,1.02813
287.35610,1.03194
287.11503,1.04147
286.87396,1.04738
286.63289,1.04375
286.39182,1.03600
286.15075,1.03297
285.90968,1.03613
285.66861,1.04014
285.42754,1.03926
285.18647,1.03216
284.94540,1.02359
284.70433,1.02055
284.46326,1.02474
284.22219,1.03142
283.98112,1.03492
283.74005,1.03267
283.49897,1.02517
283.25790,1.01547
283.01683,1.00922
282.77576,1.01064
282.53469,1.01757
282.29362,1.02349
282.05255,1.02413
281.81148,1.02038
281.57041,1.01515
281.32934,1.01022
281.08827,1.00648
280.84720,1.00361
280.60613,1.00027
280.36506,0.99671
280.12399,0.99540
279.88292,0.99669
279.64185,0.99668
279.40078,0.99191
279.15970,0.98482
278.91863,0.98282
278.67756,0.99187
278.43649,1.01003
278.19542,1.02702
277.95435,1.03304
277.71328,1.02805
277.47221,1.01909
277.23114,1.01096
276.99007,1.00401
276.74900,0.99731
276.50793,0.99095
276.26686,0.98620
276.02579,0.98474
275.78472,0.98789
275.54365,0.99589
275.30258,1.00628
275.06151,1.01372
274.82043,1.01476
274.57936,1.01239
274.33829,1.01201
274.09722,1.01374
273.85615,1.01275
273.61508,1.00721
273.37401,1.00190
273.13294,1.00222
272.89187,1.00792
272.65080,1.01482
272.40973,1.02064
272.16866,1.02641
271.92759,1.03290
271.68652,1.03841
271.44545,1.03992
271.20438,1.03638
270.96331,1.03039
270.72224,1.02638
270.48116,1.02702
270.24009,1.03042
269.99902,1.03220
269.75795,1.03052
269.51688,1.02806
269.27581,1.02882
269.03474,1.03312
268.79367,1.03708
268.55260,1.03904
268.31153,1.04254
268.07046,1.05008
267.82939,1.05881
267.58832,1.06537
267.34725,1.07121
267.10618,1.07943
266.86511,1.08861
266.62404,1.09394
266.38297,1.09557
266.14189,1.10080
265.90082,1.11306
265.65975,1.12453
265.41868,1.12665
265.17761,1.12221
264.93654,1.11782
264.69547,1.11408
264.45440,1.11287
264.21333,1.12144
263.97226,1.14204
263.73119,1.16755
263.49012,1.18941
263.24905,1.20350
263.00798,1.20891
262.76691,1.20724
262.52584,1.20454
262.28477,1.20705
262.04370,1.21311
261.80262,1.21663
261.56155,1.21888
261.32048,1.22905
261.07941,1.25107
260.83834,1.27725
260.59727,1.29785
260.35620,1.30910
260.11513,1.31364
259.87406,1.31836
259.63299,1.32692
259.39192,1.33966
259.15085,1.36001
258.90978,1.39466
258.66871,1.44739
258.42764,1.50872
258.18657,1.55722
257.94550,1.58327
257.70443,1.60309
257.46335,1.64055
257.22228,1.68953
256.98121,1.71253
256.74014,1.68560
256.49907,1.62857
256.25800,1.59684
256.01693,1.63073
255.77586,1.72774
255.53479,1.83441
255.29372,1.89130
255.05265,1.92593
254.81158,1.97872
254.57051,1.98892
254.32944,1.95936
254.08837,1.97063
253.84730,2.05452
253.60623,2.17899
253.36516,2.27313
253.12408,2.32532
252.88301,2.37809
252.64194,2.43922
252.40087,2.38381
252.15980,2.26869
251.91873,2.20666
251.67766,2.19681
251.43659,2.21839
251.19552,2.39537
250.95445,2.48125
250.71338,2.42672
250.47231,2.37714
250.23124,2.54043
249.99017,2.65857
249.74910,2.45307
249.50803,2.26994
249.26696,2.25237
249.02589,2.36947
248.78481,2.44057
248.54374,2.65906
248.30267,3.15999
248.06160,2.60503
247.82053,2.30604
247.57946,2.27666
247.33839,2.33124
247.09732,2.31189
246.85625,2.26983
246.61518,2.28164
246.37411,2.23445
246.13304,2.19938
245.89197,2.17336
245.65090,2.14353
245.40983,2.10842
245.16876,2.08164
244.92769,2.02969
244.68661,1.94922
244.44554,1.87890
244.20447,1.83688
243.96340,1.80040
243.72233,1.73594
243.48126,1.64432
243.24019,1.55365
242.99912,1.47824
242.75805,1.41713
242.51698,1.36653
242.27591,1.31877
242.03484,1.26987
241.79377,1.22537
241.55270,1.18856
241.31163,1.15365
241.07056,1.11485
240.82949,1.07535
240.58842,1.04434
240.34734,1.02705
240.10627,1.01677
239.86520,0.99875
239.62413,0.96749
239.38306,0.93274
239.14199,0.90598
238.90092,0.88998
238.65985,0.87947
238.41878,0.86651
238.17771,0.84781
237.93664,0.82861
237.69557,0.81619
237.45450,0.80963
237.21343,0.80065
236.97236,0.78549
236.73129,0.77054
236.49022,0.76325
236.24915,0.76238
236.00807,0.76038
235.76700,0.75268
235.52593,0.74130
235.28486,0.73076
235.04379,0.72347
234.80272,0.71840
234.56165,0.71404
234.32058,0.71165
234.07951,0.71269
233.83844,0.71411
233.59737,0.71097
233.35630,0.70321
233.11523,0.69574
232.87416,0.69182
232.63309,0.68940
232.39202,0.68455
232.15095,0.67654
231.90988,0.66780
231.66880,0.66036
231.42773,0.65507
231.18666,0.65312
230.94559,0.65568
230.70452,0.66165
230.46345,0.66688
230.22238,0.66772
229.98131,0.66535
229.74024,0.66434
229.49917,0.66672
229.25810,0.66989
229.01703,0.67029
228.77596,0.66729
228.53489,0.66344
228.29382,0.66181
228.05275,0.66288
227.81168,0.66448
227.57061,0.66524
227.32953,0.66679
227.08846,0.67152
226.84739,0.67861
226.60632,0.68348
226.36525,0.68176
226.12418,0.67468
225.88311,0.66846
225.64204,0.66729
225.40097,0.66974
225.15990,0.67216
224.91883,0.67298
224.67776,0.67365
224.43669,0.67625
224.19562,0.68045
223.95455,0.68372
223.71348,0.68497
223.47241,0.68642
223.23134,0.69079
222.99026,0.69828
222.74919,0.70679
222.50812,0.71434
222.26705,0.72041
222.02598,0.72492
221.78491,0.72753
221.54384,0.72973
221.30277,0.73477
221.06170,0.74267
220.82063,0.74939
220.57956,0.75343
220.33849,0.75869
220.09742,0.76743
219.85635,0.77599
219.61528,0.78102
219.37421,0.78515
219.13314,0.79251
218.89207,0.80346
218.65099,0.81635
218.40992,0.83021
218.16885,0.84329
217.92778,0.85272
217.68671,0.85832
217.44564,0.86403
217.20457,0.87380
216.96350,0.88758
216.72243,0.90225
216.48136,0.91594
216.24029,0.92970
215.99922,0.94397
215.75815,0.95591
215.51708,0.96348
215.27601,0.96990
215.03494,0.97883
214.79387,0.98891
214.55280,0.99776
214.31172,1.00748
214.07065,1.02124
213.82958,1.03719
213.58851,1.04904
213.34744,1.05308
213.10637,1.05294
212.86530,1.05466
212.62423,1.05915
212.38316,1.06282
212.14209,1.06468
211.90102,1.06884
211.65995,1.07817
211.41888,1.08904
211.17781,1.09426
210.93674,1.09104
210.69567,1.08510
210.45460,1.08481
210.21353,1.09036
209.97245,1.09276
209.73138,1.08787
209.49031,1.08307
209.24924,1.08353
209.00817,1.08294
208.76710,1.07519
208.52603,1.06623
208.28496,1.06406
208.04389,1.06512
207.80282,1.06132
207.56175,1.05488
207.32068,1.05388
207.07961,1.05786
206.83854,1.05792
206.59747,1.04943
206.35640,1.03619
206.11533,1.02205
205.87426,1.00759
205.63318,0.99376
205.39211,0.98136
205.15104,0.96901
204.90997,0.95511
204.66890,0.94173
204.42783,0.93270
204.18676,0.92811
203.94569,0.92314
203.70462,0.91353
203.46355,0.90096
203.22248,0.88990
202.98141,0.88044
202.74034,0.86837
202.49927,0.85201
202.25820,0.83370
202.01713,0.81593
201.77606,0.80062
201.53499,0.78936
201.29391,0.78096
201.05284,0.77107
200.81177,0.75658
200.57070,0.73869
200.32963,0.72092
200.08856,0.70608
199.84749,0.69566
199.60642,0.68986
199.36535,0.68686
199.12428,0.68290
198.88321,0.67450
198.64214,0.66129
198.40107,0.64669
198.16000,0.63529
197.91893,0.62889
197.67786,0.62493
197.43679,0.61926
197.19572,0.61053
196.95464,0.60096
196.71357,0.59280
196.47250,0.58587
196.23143,0.57875
195.99036,0.57123
195.74929,0.56481
195.50822,0.56092
195.26715,0.55898
195.02608,0.55669
194.78501,0.55198
194.54394,0.54468
194.30287,0.53615
194.06180,0.52762
193.82073,0.51955
193.57966,0.51240
193.33859,0.50709
193.09752,0.50428
192.85645,0.50358
192.61537,0.50341
192.37430,0.50215
192.13323,0.49939
191.89216,0.49560
191.65109,0.49072
191.41002,0.48454
191.16895,0.47843
190.92788,0.47453
190.68681,0.47309
190.44574,0.47246
190.20467,0.47189
189.96360,0.47186
189.72253,0.47161
189.48146,0.46971
189.24039,0.46685
188.99932,0.46462
188.75825,0.46251
188.51718,0.45928
188.27610,0.45626
188.03503,0.45568
187.79396,0.45733
187.55289,0.45957
187.31182,0.46174
187.07075,0.46343
186.82968,0.46331
186.58861,0.46012
186.34754,0.45445
186.10647,0.44918
185.86540,0.44752
185.62433,0.45018
185.38326,0.45486
185.14219,0.45905
184.90112,0.46196
184.66005,0.46346
184.41898,0.46352
184.17791,0.46324
183.93683,0.46438
183.69576,0.46751
183.45469,0.47158
183.21362,0.47505
182.97255,0.47697
182.73148,0.47754
182.49041,0.47730
182.24934,0.47630
182.00827,0.47490
181.76720,0.47445
181.52613,0.47609
181.28506,0.47967
181.04399,0.48426
180.80292,0.48855
180.56185,0.49138
180.32078,0.49300
180.07971,0.49490
179.83864,0.49785
179.59756,0.50155
179.35649,0.50575
179.11542,0.51009
178.87435,0.51401
178.63328,0.51855
178.39221,0.52566
178.15114,0.53501
177.91007,0.54389
177.66900,0.55105
177.42793,0.55871
177.18686,0.56992
176.94579,0.58510
176.70472,0.60149
176.46365,0.61582
176.22258,0.62767
175.98151,0.64012
175.74044,0.65612
175.49937,0.67529
175.25829,0.69552
175.01722,0.71573
174.77615,0.73538
174.53508,0.75310
174.29401,0.76769
174.05294,0.78000
173.81187,0.79294
173.57080,0.80948
173.32973,0.83012
173.08866,0.85205
172.84759,0.87000
172.60652,0.87872
172.36545,0.87757
172.12438,0.87252
171.88331,0.87083
171.64224,0.87415
171.40117,0.87855
171.16010,0.88020
170.91902,0.87782
170.67795,0.87101
170.43688,0.86014
170.19581,0.84803
169.95474,0.83933
169.71367,0.83647
169.47260,0.83648
169.23153,0.83341
168.99046,0.82513
168.74939,0.81546
168.50832,0.80835
168.26725,0.80410
168.02618,0.80257
167.78511,0.80572
167.54404,0.81384
167.30297,0.82190
167.06190,0.82355
166.82083,0.81844
166.57975,0.81244
166.33868,0.81088
166.09761,0.81439
165.85654,0.82062
165.61547,0.82732
165.37440,0.83403
165.13333,0.84167
164.89226,0.84999
164.65119,0.85697
164.41012,0.86227
164.16905,0.86927
163.92798,0.88151
163.68691,0.89786
163.44584,0.91345
163.20477,0.92469
162.96370,0.93084
162.72263,0.93329
162.48156,0.93587
162.24048,0.94208
161.99941,0.94981
161.75834,0.95339
161.51727,0.95173
161.27620,0.94869
161.03513,0.94661
160.79406,0.94494
160.55299,0.94319
160.31192,0.94079
160.07085,0.93689
159.82978,0.93284
159.58871,0.93213
159.34764,0.93598
159.10657,0.94016
158.86550,0.93734
158.62443,0.92476
158.38336,0.90815
158.14229,0.89610
157.90121,0.89220
157.66014,0.89288
157.41907,0.89198
157.17800,0.88728
156.93693,0.88144
156.69586,0.87800
156.45479,0.87804
156.21372,0.87924
155.97265,0.87812
155.73158,0.87274
155.49051,0.86330
155.24944,0.85241
155.00837,0.84389
154.76730,0.83890
154.52623,0.83377
154.28516,0.82393
154.04409,0.80875
153.80302,0.79034
153.56194,0.77004
153.32087,0.74891
153.07980,0.72886
152.83873,0.71100
152.59766,0.69450
152.35659,0.67783
152.11552,0.66043
151.87445,0.64387
151.63338,0.63060
151.39231,0.62059
151.15124,0.61045
150.91017,0.59730
150.66910,0.58155
150.42803,0.56526
150.18696,0.55027
149.94589,0.53803
149.70482,0.52929
149.46375,0.52323
149.22267,0.51762
148.98160,0.51020
148.74053,0.50049
148.49946,0.49032
148.25839,0.48200
148.01732,0.47650
147.77625,0.47356
147.53518,0.47235
147.29411,0.47143
147.05304,0.46962
146.81197,0.46777
146.57090,0.46809
146.32983,0.47157
146.08876,0.47683
145.84769,0.48126
145.60662,0.48326
145.36555,0.48392
145.12448,0.48615
144.88340,0.49190
144.64233,0.50016
144.40126,0.50782
144.16019,0.51246
143.91912,0.51437
143.67805,0.51537
143.43698,0.51585
143.19591,0.51371
142.95484,0.50656
142.71377,0.49426
142.47270,0.47969
142.23163,0.46713
141.99056,0.45891
141.74949,0.45361
141.50842,0.44828
141.26735,0.44206
141.02628,0.43649
140.78521,0.43279
140.54413,0.43051
140.30306,0.42897
140.06199,0.42859
139.82092,0.43034
139.57985,0.43417
139.33878,0.43869
139.09771,0.44244
138.85664,0.44567
138.61557,0.45074
138.37450,0.45981
138.13343,0.47182
137.89236,0.48296
137.65129,0.49141
137.41022,0.50071
137.16915,0.51634
136.92808,0.53869
136.68701,0.56247
136.44594,0.58406
136.20486,0.60557
135.96379,0.62935
135.72272,0.65350
135.48165,0.67587
135.24058,0.69814
134.99951,0.72348
134.75844,0.75267
134.51737,0.78330
134.27630,0.81153
134.03523,0.83413
133.79416,0.84903
133.55309,0.85760
133.31202,0.86752
133.07095,0.88650
132.82988,0.91342
132.58881,0.94004
132.34774,0.96061
132.10667,0.97362
131.86559,0.97545
131.62452,0.96410
131.38345,0.94660
131.14238,0.93111
130.90131,0.91682
130.66024,0.89779
130.41917,0.87250
130.17810,0.84350
129.93703,0.81127
129.69596,0.77545
129.45489,0.73959
129.21382,0.70826
128.97275,0.68106
128.73168,0.65419
128.49061,0.62673
128.24954,0.60120
128.00847,0.57864
127.76740,0.55736
127.52632,0.53647
127.28525,0.51642
127.04418,0.49610
126.80311,0.47353
126.56204,0.45038
126.32097,0.43160
126.07990,0.41909
125.83883,0.40937
125.59776,0.39858
125.35669,0.38704
125.11562,0.37731
124.87455,0.36982
124.63348,0.36252
124.39241,0.35435
124.15134,0.34687
123.91027,0.34223
123.66920,0.34033
123.42812,0.33870
123.18705,0.33501
122.94598,0.32943
122.70491,0.32424
122.46384,0.32170
122.22277,0.32235
121.98170,0.32527
121.74063,0.32921
121.49956,0.33334
121.25849,0.33760
121.01742,0.34301
120.77635,0.35127
120.53528,0.36353
120.29421,0.37860
120.05314,0.39302
119.81207,0.40449
119.57100,0.41471
119.32993,0.42718
119.08885,0.44335
118.84778,0.46293
118.60671,0.48583
118.36564,0.51162
118.12457,0.53885
117.88350,0.56572
117.64243,0.58919
117.40136,0.60480
117.16029,0.61138
116.91922,0.61352
116.67815,0.61521
116.43708,0.61458
116.19601,0.60830
115.95494,0.59835
115.71387,0.59039
115.47280,0.58651
115.23173,0.58271
114.99066,0.57403
114.74958,0.56030
114.50851,0.54511
114.26744,0.53097
114.02637,0.51820
113.78530,0.50777
113.54423,0.50288
113.30316,0.50618
113.06209,0.51536
112.82102,0.52394
112.57995,0.52791
112.33888,0.52964
112.09781,0.53399
111.85674,0.54222
111.61567,0.55136
111.37460,0.55774
111.13353,0.56009
110.89246,0.56011
110.65139,0.56015
110.41031,0.56037
110.16924,0.55865
109.92817,0.55244
109.68710,0.54066
109.44603,0.52540
109.20496,0.51012
108.96389,0.49583
108.72282,0.48101
108.48175,0.46372
108.24068,0.44233
107.99961,0.41700
107.75854,0.39230
107.51747,0.37445
107.27640,0.36449
107.03533,0.35728
106.79426,0.34779
106.55319,0.33559
106.31212,0.32290
106.07104,0.31144
105.82997,0.30221
105.58890,0.29512
105.34783,0.28816
105.10676,0.27957
104.86569,0.27001
104.62462,0.26086
104.38355,0.25228
104.14248,0.24457
103.90141,0.23942
103.66034,0.23727
103.41927,0.23538
103.17820,0.23112
102.93713,0.22588
102.69606,0.22273
102.45499,0.22139
102.21392,0.21838
101.97285,0.21217
101.73177,0.20518
101.49070,0.20021
101.24963,0.19746
101.00856,0.19578
100.76749,0.19454
100.52642,0.19332
100.28535,0.19118
100.04428,0.18769
99.80321,0.18383
99.56214,0.18090
99.32107,0.17913
99.08000,0.17809
98.83893,0.17776
98.59786,0.17798
98.35679,0.17746
98.11572,0.17502
97.87465,0.17177
97.63358,0.17067
97.39250,0.17353
97.15143,0.17953
96.91036,0.18661
96.66929,0.19331
96.42822,0.19931
96.18715,0.20455
95.94608,0.20853
95.70501,0.21090
95.46394,0.21272
95.22287,0.21626
94.98180,0.22310
94.74073,0.23252
94.49966,0.24153
94.25859,0.24655
94.01752,0.24602
93.77645,0.24193
93.53538,0.23853
93.29431,0.23939
93.05323,0.24500
92.81216,0.25226
92.57109,0.25672
92.33002,0.25657
92.08895,0.25437
91.84788,0.25477
91.60681,0.26068
91.36574,0.27157
91.12467,0.28501
90.88360,0.30014
90.64253,0.31889
90.40146,0.34307
90.16039,0.37211
89.91932,0.40490
89.67825,0.44202
89.43718,0.48304
89.19611,0.52334
88.95504,0.55535
88.71396,0.57296
88.47289,0.57406
88.23182,0.55991
87.99075,0.53285
87.74968,0.49541
87.50861,0.45236
87.26754,0.41066
87.02647,0.37538
86.78540,0.34669
86.54433,0.32144
86.30326,0.29718
86.06219,0.27390
85.82112,0.25255
85.58005,0.23331
85.33898,0.21621
85.09791,0.20192
84.85684,0.19060
84.61577,0.18076
84.37469,0.17076
84.13362,0.16044
83.89255,0.15023
83.65148,0.14015
83.41041,0.13090
83.16934,0.12455
82.92827,0.12244
82.68720,0.12302
82.44613,0.12303
82.20506,0.12045
81.96399,0.11581
81.72292,0.11128
81.48185,0.10859
81.24078,0.10749
80.99971,0.10633
80.75864,0.10447
80.51757,0.10297
80.27650,0.10289
80.03542,0.10379
79.79435,0.10451
79.55328,0.10455
79.31221,0.10454
79.07114,0.10529
78.83007,0.10661
78.58900,0.10736
78.34793,0.10641
78.10686,0.10328
77.86579,0.09842
77.62472,0.09369
77.38365,0.09107
77.14258,0.09037
76.90151,0.08948
76.66044,0.08725
76.41937,0.08491
76.17830,0.08424
75.93723,0.08556
75.69615,0.08788
75.45508,0.08974
75.21401,0.08969
74.97294,0.08693
74.73187,0.08260
74.49080,0.07937
74.24973,0.07901
74.00866,0.08120
73.76759,0.08454
73.52652,0.08726
73.28545,0.08746
73.04438,0.08497
72.80331,0.08222
72.56224,0.08139
72.32117,0.08200
72.08010,0.08265
71.83903,0.08321
71.59796,0.08440
71.35688,0.08665
71.11581,0.08995
70.87474,0.09425
70.63367,0.09992
70.39260,0.10776
70.15153,0.11821
69.91046,0.13048
69.66939,0.14311
69.42832,0.15540
69.18725,0.16670
68.94618,0.17351
68.70511,0.17074
68.46404,0.15796
68.22297,0.14117
67.98190,0.12665
67.74083,0.11614
67.49976,0.10827
67.25869,0.10154
67.01761,0.09534
66.77654,0.09000
66.53547,0.08616
66.29440,0.08348
66.05333,0.08106
65.81226,0.07871
65.57119,0.07668
65.33012,0.07504
65.08905,0.07440
64.84798,0.07686
64.60691,0.08469
64.36584,0.09680
64.12477,0.10773
63.88370,0.11221
63.64263,0.11031
63.40156,0.10600
63.16049,0.10207
62.91942,0.09842
62.67834,0.09408
62.43727,0.08868
62.19620,0.08261
61.95513,0.07635
61.71406,0.06965
61.47299,0.06293
61.23192,0.05849
60.99085,0.05777
60.74978,0.05877
60.50871,0.05928
60.26764,0.05988
60.02657,0.06079
59.78550,0.05974
59.54443,0.05647
59.30336,0.05500
59.06229,0.05809
58.82122,0.06342
58.58015,0.06701
58.33907,0.06704
58.09800,0.06402
57.85693,0.05981
57.61586,0.05610
57.37479,0.05315
57.13372,0.05059
56.89265,0.04873
56.65158,0.04760
56.41051,0.04601
56.16944,0.04339
55.92837,0.04117
55.68730,0.04158
55.44623,0.04580
55.20516,0.05263
54.96409,0.05845
54.72302,0.05974
54.48195,0.05630
54.24088,0.05198
53.99980,0.05125
53.75873,0.05485
53.51766,0.05846
53.27659,0.05726
53.03552,0.05263
52.79445,0.05201
52.55338,0.05968
52.31231,0.07060
52.07124,0.07640
51.83017,0.07367
51.58910,0.06447
51.34803,0.05301
51.10696,0.04349
50.86589,0.03813
50.62482,0.03653
50.38375,0.03815
50.14268,0.04356
49.90161,0.05123
49.66053,0.05618
49.41946,0.05506
49.17839,0.05036
48.93732,0.04577
48.69625,0.03997
48.45518,0.02980
48.21411,0.01793
47.97304,0.01176
47.73197,0.01404
47.49090,0.01967
47.24983,0.02344
47.00876,0.02464
46.76769,0.02301
46.52662,0.01796
46.28555,0.01279
46.04448,0.01254
45.80341,0.01690
45.56234,0.02083
45.32126,0.02198
45.08019,0.02111
44.83912,0.01728
44.59805,0.00968
44.35698,0.00127
44.11591,-0.00280
43.87484,-0.00183
43.63377,-0.00077
43.39270,-0.00282
43.15163,-0.00552
42.91056,-0.00447
42.66949,0.00000
42.42842,0.00275
42.18735,0.00143
41.94628,-0.00035
41.70521,0.00014
41.46414,-0.00083
41.22307,-0.00776
40.98199,-0.01743
40.74092,-0.02160
40.49985,-0.01656
40.25878,-0.00718
40.01771,-0.00188
39.77664,-0.00576
39.53557,-0.01688
39.29450,-0.02688
39.05343,-0.02747
38.81236,-0.01791
38.57129,-0.00338
38.33022,0.00980
38.08915,0.01372
37.84808,0.00300
37.60701,-0.01704
37.36594,-0.03331
37.12487,-0.03647
36.88380,-0.02647
36.64272,-0.00708
36.40165,0.01637
36.16058,0.03510
35.91951,0.03972
35.67844,0.02466
35.43737,-0.00496
35.19630,-0.03331
34.95523,-0.04754
34.71416,-0.04877
34.47309,-0.04861
34.23202,-0.05144
33.99095,-0.04589
33.74988,-0.02272
33.50881,0.01347
33.26774,0.04819
33.02667,0.06345
32.78560,0.05463
32.54453,0.03406
32.30345,0.01161
32.06238,-0.01190
31.82131,-0.03685
31.58024,-0.05695
31.33917,-0.06930
31.09810,-0.08250
30.85703,-0.09888
30.61596,-0.10582
30.37489,-0.09585
30.13382,-0.08320
29.89275,-0.08051
29.65168,-0.07052
29.41061,-0.02489
29.16954,0.04863
28.92847,0.12058
28.68740,0.17384
28.44633,0.20056
28.20526,0.19921
27.96418,0.17472
27.72311,0.13581
27.48204,0.10303
27.24097,0.08608
26.99990,0.07058
26.75883,0.04491
26.51776,0.02452
26.27669,0.04252
26.03562,0.07366
25.79455,0.05443
25.55348,-0.01875
25.31241,-0.10183
25.07134,-0.13620
24.83027,-0.08524
24.58920,0.01758
24.34813,0.10254
24.10706,0.12739
23.86599,0.12859
23.62491,0.15772
23.38384,0.20015
23.14277,0.22942
22.90170,0.24358
22.66063,0.25780
22.41956,0.31673
22.17849,0.45389
21.93742,0.50703
21.69635,0.36108
21.45528,0.19680
21.21421,0.11768
20.97314,0.09594
20.73207,0.07838
20.49100,0.04123
20.24993,0.02310
20.00886,0.06692
19.76779,0.14533
19.52672,0.20824
19.28564,0.24680
19.04457,0.30375
18.80350,0.45840
18.56243,0.68614
18.32136,0.70894
18.08029,0.58622
17.83922,0.53457
17.59815,0.62927
17.35708,0.54148
17.11601,0.34131
16.87494,0.26926
16.63387,0.28049
16.39280,0.31026
16.15173,0.36077
15.91066,0.42143
15.66959,0.51662
15.42852,0.68549
15.18745,0.86829
14.94637,1.08442
14.70530,1.26020
14.46423,1.05224
14.22316,0.98470
13.98209,1.08783
13.74102,0.98076
13.49995,0.88376
13.25888,0.62602
13.01781,0.49687
12.77674,0.48143
12.53567,0.59733
12.29460,0.73517
12.05353,0.79164
11.81246,0.74359
11.57139,0.73266
11.33032,0.84729
11.08925,0.83831
10.84818,0.68772
10.60710,0.65419
10.36603,0.66692
10.12496,0.73901
9.88389,0.82950
9.64282,0.76102
9.40175,0.73331
9.16068,0.73955
8.91961,0.75220
8.67854,0.79184
8.43747,0.85790
8.19640,0.92402
7.95533,0.75075
7.71426,0.62843
7.47319,0.66316
7.23212,0.75790
6.99105,0.73960
6.74998,0.63140
6.50891,0.60500
6.26783,0.70513
6.02676,0.65544
5.78569,0.52373
5.54462,0.46759
5.30355,0.46307
5.06248,0.58337
4.82141,0.78284
4.58034,0.78441
4.33927,0.68706
4.09820,0.73764
3.85713,0.97508
3.61606,0.99802
3.37499,0.81738
3.13392,0.64397
2.89285,0.60015
2.65178,0.67322
2.41071,0.79089
2.16964,0.77216
1.92856,0.59321
1.68749,0.48262
1.44642,0.52324
1.20535,0.73914
0.96428,0.82764
0.72321,0.63949
0.48214,0.33539
0.24107,0.18085
-0.00000,0.19100
