399.69498,1.91928
399.45391,1.88153
399.21284,1.83894
398.97177,1.82459
398.73070,1.85901
398.48963,1.95924
398.24856,2.11604
398.00749,2.19766
397.76642,2.04880
397.52535,1.88812
397.28428,1.81481
397.04321,1.81939
396.80214,1.86198
396.56107,1.88995
396.32000,1.89354
396.07892,1.87461
395.83785,1.85811
395.59678,1.86699
395.35571,1.90142
395.11464,1.95342
394.87357,1.98711
394.63250,2.00175
394.39143,2.07596
394.15036,2.22830
393.90929,2.29189
393.66822,2.19332
393.42715,2.01788
393.18608,1.82336
392.94501,1.71908
392.70394,1.74427
392.46287,1.89448
392.22180,2.11943
391.98073,2.23944
391.73965,2.20892
391.49858,2.10701
391.25751,2.13302
391.01644,2.33949
390.77537,2.51449
390.53430,2.30490
390.29323,2.07216
390.05216,1.92312
389.81109,1.85151
389.57002,1.82639
389.32895,1.82272
389.08788,1.85451
388.84681,1.93311
388.60574,2.01711
388.36467,2.09876
388.12360,2.23250
387.88253,2.20046
387.64146,2.13803
387.40038,2.15827
387.15931,2.00630
386.91824,1.89209
386.67717,1.86921
386.43610,1.95630
386.19503,2.07374
385.95396,2.03910
385.71289,2.00007
385.47182,2.03390
385.23075,2.01676
384.98968,2.00205
384.74861,2.08394
384.50754,2.08408
384.26647,1.99197
384.02540,1.92453
383.78433,1.91789
383.54326,1.98096
383.30219,1.92986
383.06111,1.80528
382.82004,1.83177
382.57897,1.94431
382.33790,1.92689
382.09683,1.83427
381.85576,1.75665
381.61469,1.74260
381.37362,1.81392
381.13255,1.90779
380.89148,1.86403
380.65041,1.80848
380.40934,1.87736
380.16827,1.93761
379.92720,1.80012
379.68613,1.73529
379.44506,1.82660
379.20399,2.03665
378.96292,2.40671
378.72184,2.28914
378.48077,2.04454
378.23970,2.02761
377.99863,2.22698
377.75756,2.36020
377.51649,2.25310
377.27542,2.36879
377.03435,2.31878
376.79328,1.96776
376.55221,1.76866
376.31114,1.73132
376.07007,1.82874
375.82900,2.09006
375.58793,2.46244
375.34686,2.48695
375.10579,2.24269
374.86472,2.14755
374.62365,2.08944
374.38257,2.11178
374.14150,2.21265
373.90043,2.20164
373.65936,2.12933
373.41829,2.11180
373.17722,2.11341
372.93615,1.95609
372.69508,1.82306
372.45401,1.79506
372.21294,1.81247
371.97187,1.80207
371.73080,1.74972
371.48973,1.68969
371.24866,1.63411
371.00759,1.58446
370.76652,1.54468
370.52545,1.51429
370.28437,1.50195
370.04330,1.51866
369.80223,1.55372
369.56116,1.57457
369.32009,1.56102
369.07902,1.53087
368.83795,1.51469
368.59688,1.52128
368.35581,1.53985
368.11474,1.56292
367.87367,1.59129
367.63260,1.61532
367.39153,1.61795
367.15046,1.59492
366.90939,1.54871
366.66832,1.48801
366.42725,1.43533
366.18618,1.41034
365.94510,1.41243
365.70403,1.42530
365.46296,1.43446
365.22189,1.43839
364.98082,1.44637
364.73975,1.46115
364.49868,1.47099
364.25761,1.47549
364.01654,1.48692
363.77547,1.50999
363.53440,1.52710
363.29333,1.51421
363.05226,1.47476
362.81119,1.43116
362.57012,1.39618
362.32905,1.36698
362.08798,1.34149
361.84691,1.32871
361.60583,1.33829
361.36476,1.36474
361.12369,1.38518
360.88262,1.38396
360.64155,1.37308
360.40048,1.36904
360.15941,1.37005
359.91834,1.37089
359.67727,1.37479
359.43620,1.38387
359.19513,1.39627
358.95406,1.40868
358.71299,1.41855
358.47192,1.42700
358.23085,1.43416
357.98978,1.43573
357.74871,1.43170
357.50764,1.43025
357.26656,1.43904
357.02549,1.45520
356.78442,1.45971
356.54335,1.44188
356.30228,1.41377
356.06121,1.38679
355.82014,1.36429
355.57907,1.34357
355.33800,1.32531
355.09693,1.32428
354.85586,1.35277
354.61479,1.39795
354.37372,1.42560
354.13265,1.42042
353.89158,1.40295
353.65051,1.40155
353.40944,1.42845
353.16837,1.47263
352.92729,1.51009
352.68622,1.52098
352.44515,1.50257
352.20408,1.46749
351.96301,1.43257
351.72194,1.40971
351.48087,1.39613
351.23980,1.38260
350.99873,1.36975
350.75766,1.36791
350.51659,1.38109
350.27552,1.39826
350.03445,1.40898
349.79338,1.41336
349.55231,1.41068
349.31124,1.40513
349.07017,1.40222
348.82910,1.40353
348.58802,1.40783
348.34695,1.41246
348.10588,1.41636
347.86481,1.41423
347.62374,1.40755
347.38267,1.41366
347.14160,1.44471
346.90053,1.49165
346.65946,1.53054
346.41839,1.54158
346.17732,1.53468
345.93625,1.53096
345.69518,1.53433
345.45411,1.54330
345.21304,1.56274
344.97197,1.58948
344.73090,1.60469
344.48983,1.58473
344.24875,1.53971
344.00768,1.50795
343.76661,1.50258
343.52554,1.51838
343.28447,1.54135
343.04340,1.55293
342.80233,1.55681
342.56126,1.56124
342.32019,1.57690
342.07912,1.61204
341.83805,1.64745
341.59698,1.65082
341.35591,1.62971
341.11484,1.62247
340.87377,1.64369
340.63270,1.68100
340.39163,1.73168
340.15056,1.80896
339.90948,1.89493
339.66841,1.93655
339.42734,1.92250
339.18627,1.90609
338.94520,1.93871
338.70413,2.02011
338.46306,2.08751
338.22199,2.02683
337.98092,1.91067
337.73985,1.85162
337.49878,1.84346
337.25771,1.83192
337.01664,1.81905
336.77557,1.85051
336.53450,1.93446
336.29343,2.00857
336.05236,2.01304
335.81129,1.98059
335.57021,1.94795
335.32914,1.90270
335.08807,1.83488
334.84700,1.76112
334.60593,1.71974
334.36486,1.71868
334.12379,1.74135
333.88272,1.77177
333.64165,1.78872
333.40058,1.76334
333.15951,1.71173
332.91844,1.69507
332.67737,1.72611
332.43630,1.79441
332.19523,1.87585
331.95416,1.88230
331.71309,1.80223
331.47202,1.71840
331.23094,1.66758
330.98987,1.66802
330.74880,1.72183
330.50773,1.79231
330.26666,1.82699
330.02559,1.81057
329.78452,1.75625
329.54345,1.66064
329.30238,1.56386
329.06131,1.52407
328.82024,1.52093
328.57917,1.51681
328.33810,1.51969
328.09703,1.55222
327.85596,1.62056
327.61489,1.67157
327.37382,1.65157
327.13275,1.60304
326.89167,1.57567
326.65060,1.56851
326.40953,1.55465
326.16846,1.54685
325.92739,1.57348
325.68632,1.62426
325.44525,1.66223
325.20418,1.66572
324.96311,1.65485
324.72204,1.67047
324.48097,1.72009
324.23990,1.77515
323.99883,1.81956
323.75776,1.85352
323.51669,1.87784
323.27562,1.88702
323.03455,1.90785
322.79348,1.93486
322.55240,1.88802
322.31133,1.78623
322.07026,1.73457
321.82919,1.75713
321.58812,1.83743
321.34705,1.97984
321.10598,2.13836
320.86491,2.25926
320.62384,2.14886
320.38277,2.11554
320.14170,2.15139
319.90063,2.20174
319.65956,2.13757
319.41849,1.92471
319.17742,1.76335
318.93635,1.70760
318.69528,1.72412
318.45421,1.78017
318.21313,1.85824
317.97206,1.96837
317.73099,2.14766
317.48992,2.37200
317.24885,2.17135
317.00778,1.93323
316.76671,1.87610
316.52564,1.93119
316.28457,2.01258
316.04350,2.13133
315.80243,2.33211
315.56136,2.35941
315.32029,2.14618
315.07922,2.04805
314.83815,2.08348
314.59708,2.19467
314.35601,2.26532
314.11494,2.16952
313.87386,2.01989
313.63279,2.03016
313.39172,2.15441
313.15065,2.17177
312.90958,2.01335
312.66851,1.87550
312.42744,1.81816
312.18637,1.84187
311.94530,1.95423
311.70423,2.08871
311.46316,2.08675
311.22209,2.00998
310.98102,2.02257
310.73995,2.02314
310.49888,2.05601
310.25781,2.18255
310.01674,2.19740
309.77567,2.16951
309.53459,2.17530
309.29352,2.24004
309.05245,2.16148
308.81138,2.12901
308.57031,2.26894
308.32924,2.44084
308.08817,2.44301
307.84710,2.37921
307.60603,2.22835
307.36496,2.09723
307.12389,2.07705
306.88282,2.09331
306.64175,2.00107
306.40068,1.86834
306.15961,1.76928
305.91854,1.70673
305.67747,1.67379
305.43640,1.66647
305.19532,1.67396
304.95425,1.68000
304.71318,1.67420
304.47211,1.65752
304.23104,1.63259
303.98997,1.59295
303.74890,1.53657
303.50783,1.48347
303.26676,1.45083
303.02569,1.43957
302.78462,1.43903
302.54355,1.43562
302.30248,1.41997
302.06141,1.39370
301.82034,1.37392
301.57927,1.38090
301.33820,1.41628
301.09713,1.44905
300.85605,1.44077
300.61498,1.39885
300.37391,1.35845
300.13284,1.33233
299.89177,1.31250
299.65070,1.29320
299.40963,1.27778
299.16856,1.27191
298.92749,1.27833
298.68642,1.29401
298.44535,1.30945
298.20428,1.31395
297.96321,1.30143
297.72214,1.26944
297.48107,1.22626
297.24000,1.19079
296.99893,1.17628
296.75786,1.18316
296.51678,1.20171
296.27571,1.21709
296.03464,1.21829
295.79357,1.20741
295.55250,1.19649
295.31143,1.19275
295.07036,1.19131
294.82929,1.18607
294.58822,1.18081
294.34715,1.17945
294.10608,1.17641
293.86501,1.16628
293.62394,1.15309
293.38287,1.14537
293.14180,1.14406
292.90073,1.14030
292.65966,1.12789
292.41859,1.11364
292.17751,1.10731
291.93644,1.10803
291.69537,1.10872
291.45430,1.10542
291.21323,1.09794
290.97216,1.08932
290.73109,1.08463
290.49002,1.08520
290.24895,1.08594
290.00788,1.08248
289.76681,1.07646
289.52574,1.07179
289.28467,1.07007
289.04360,1.06921
288.80253,1.06595
288.56146,1.06083
288.32039,1.05743
288.07932,1.05643
287.83824,1.05535
287.59717,1.05434
287.35610,1.05666
287.11503,1.06321
286.87396,1.07006
286.63289,1.07146
286.39182,1.06568
286.15075,1.05780
285.90968,1.05458
285.66861,1.05665
285.42754,1.05756
285.18647,1.05171
284.94540,1.04060
284.70433,1.02929
284.46326,1.02159
284.22219,1.01957
283.98112,1.02166
283.74005,1.02248
283.49897,1.01885
283.25790,1.01440
283.01683,1.01512
282.77576,1.02326
282.53469,1.03656
282.29362,1.04885
282.05255,1.05247
281.81148,1.04464
281.57041,1.03123
281.32934,1.02149
281.08827,1.01945
280.84720,1.02359
280.60613,1.03059
280.36506,1.03691
280.12399,1.04065
279.88292,1.04280
279.64185,1.04492
279.40078,1.04580
279.15970,1.04434
278.91863,1.04417
278.67756,1.04903
278.43649,1.05632
278.19542,1.05974
277.95435,1.05654
277.71328,1.04894
277.47221,1.03956
277.23114,1.02977
276.99007,1.02096
276.74900,1.01493
276.50793,1.01289
276.26686,1.01409
276.02579,1.01632
275.78472,1.01855
275.54365,1.02164
275.30258,1.02549
275.06151,1.02777
274.82043,1.02806
274.57936,1.02898
274.33829,1.03027
274.09722,1.02776
273.85615,1.02160
273.61508,1.01939
273.37401,1.02731
273.13294,1.04270
272.89187,1.05610
272.65080,1.05950
272.40973,1.05401
272.16866,1.04788
271.92759,1.04781
271.68652,1.05477
271.44545,1.06407
271.20438,1.06746
270.96331,1.06057
270.72224,1.04928
270.48116,1.04370
270.24009,1.04663
269.99902,1.05175
269.75795,1.05258
269.51688,1.05027
269.27581,1.05227
269.03474,1.06417
268.79367,1.08396
268.55260,1.10518
268.31153,1.12207
268.07046,1.12891
267.82939,1.12311
267.58832,1.11413
267.34725,1.11584
267.10618,1.12897
266.86511,1.14079
266.62404,1.14043
266.38297,1.12920
266.14189,1.11704
265.90082,1.11269
265.65975,1.11860
265.41868,1.13204
265.17761,1.14815
264.93654,1.16118
264.69547,1.16729
264.45440,1.16937
264.21333,1.17473
263.97226,1.18587
263.73119,1.19885
263.49012,1.21113
263.24905,1.22300
263.00798,1.23200
262.76691,1.23496
262.52584,1.23445
262.28477,1.23636
262.04370,1.24205
261.80262,1.24756
261.56155,1.25090
261.32048,1.25667
261.07941,1.27309
260.83834,1.30490
260.59727,1.34727
260.35620,1.38637
260.11513,1.41129
259.87406,1.42331
259.63299,1.42676
259.39192,1.42650
259.15085,1.43155
258.90978,1.44629
258.66871,1.46581
258.42764,1.49261
258.18657,1.53740
257.94550,1.59463
257.70443,1.64551
257.46335,1.68806
257.22228,1.74451
256.98121,1.80979
256.74014,1.83414
256.49907,1.81023
256.25800,1.79061
256.01693,1.80868
255.77586,1.86159
255.53479,1.92875
255.29372,2.00401
255.05265,2.11818
254.81158,2.27201
254.57051,2.28447
254.32944,2.16031
254.08837,2.02259
253.84730,1.92852
253.60623,1.89802
253.36516,1.91039
253.12408,1.94671
252.88301,2.05536
252.64194,2.37898
252.40087,2.85117
252.15980,2.63173
251.91873,2.47643
251.67766,2.49648
251.43659,2.52041
251.19552,2.30483
250.95445,2.18139
250.71338,2.19017
250.47231,2.25787
250.23124,2.36619
249.99017,2.46548
249.74910,2.39336
249.50803,2.39115
249.26696,2.39798
249.02589,2.27599
248.78481,2.22465
248.54374,2.23146
248.30267,2.27491
248.06160,2.37391
247.82053,2.42165
247.57946,2.42586
247.33839,2.40885
247.09732,2.44601
246.85625,2.46847
246.61518,2.28362
246.37411,2.20403
246.13304,2.32160
245.89197,2.63871
245.65090,2.50787
245.40983,2.32400
245.16876,2.35355
244.92769,2.25539
244.68661,2.05569
244.44554,1.91019
244.20447,1.79789
243.96340,1.72051
243.72233,1.67946
243.48126,1.65407
243.24019,1.62447
242.99912,1.58951
242.75805,1.54912
242.51698,1.49260
242.27591,1.41568
242.03484,1.33165
241.79377,1.25855
241.55270,1.20305
241.31163,1.16008
241.07056,1.12409
240.82949,1.09470
240.58842,1.07320
240.34734,1.05936
240.10627,1.04883
239.86520,1.03229
239.62413,1.00358
239.38306,0.96776
239.14199,0.93396
238.90092,0.90555
238.65985,0.88255
238.41878,0.86578
238.17771,0.85378
237.93664,0.84220
237.69557,0.82926
237.45450,0.81632
237.21343,0.80294
236.97236,0.78791
236.73129,0.77422
236.49022,0.76634
236.24915,0.76370
236.00807,0.76155
235.76700,0.75743
235.52593,0.75303
235.28486,0.74996
235.04379,0.74709
234.80272,0.74200
234.56165,0.73372
234.32058,0.72418
234.07951,0.71614
233.83844,0.71013
233.59737,0.70580
233.35630,0.70486
233.11523,0.70895
232.87416,0.71482
232.63309,0.71580
232.39202,0.70965
232.15095,0.70110
231.90988,0.69556
231.66880,0.69392
231.42773,0.69421
231.18666,0.69503
230.94559,0.69580
230.70452,0.69521
230.46345,0.69184
230.22238,0.68663
229.98131,0.68288
229.74024,0.68189
229.49917,0.68059
229.25810,0.67618
229.01703,0.67101
228.77596,0.66958
228.53489,0.67303
228.29382,0.67841
228.05275,0.68131
227.81168,0.67950
227.57061,0.67591
227.32953,0.67561
227.08846,0.67896
226.84739,0.68257
226.60632,0.68591
226.36525,0.69140
226.12418,0.69811
225.88311,0.70123
225.64204,0.69824
225.40097,0.69180
225.15990,0.68692
224.91883,0.68765
224.67776,0.69488
224.43669,0.70506
224.19562,0.71219
223.95455,0.71295
223.71348,0.70950
223.47241,0.70646
223.23134,0.70709
222.99026,0.71221
222.74919,0.72063
222.50812,0.72980
222.26705,0.73736
222.02598,0.74315
221.78491,0.74879
221.54384,0.75475
221.30277,0.75942
221.06170,0.76219
220.82063,0.76561
220.57956,0.77271
220.33849,0.78328
220.09742,0.79411
219.85635,0.80272
219.61528,0.81022
219.37421,0.81976
219.13314,0.83312
218.89207,0.84937
218.65099,0.86536
218.40992,0.87762
218.16885,0.88578
217.92778,0.89301
217.68671,0.90150
217.44564,0.90908
217.20457,0.91343
216.96350,0.91807
216.72243,0.92886
216.48136,0.94612
216.24029,0.96485
215.99922,0.98118
215.75815,0.99400
215.51708,1.00264
215.27601,1.00896
215.03494,1.01724
214.79387,1.02771
214.55280,1.03607
214.31172,1.04102
214.07065,1.04597
213.82958,1.05427
213.58851,1.06702
213.34744,1.08419
213.10637,1.10303
212.86530,1.11734
212.62423,1.12340
212.38316,1.12465
212.14209,1.12654
211.90102,1.13095
211.65995,1.13763
211.41888,1.14575
211.17781,1.15318
210.93674,1.15654
210.69567,1.15315
210.45460,1.14596
210.21353,1.14257
209.97245,1.14629
209.73138,1.15116
209.49031,1.15005
209.24924,1.14393
209.00817,1.13828
208.76710,1.13526
208.52603,1.13354
208.28496,1.13083
208.04389,1.12516
207.80282,1.11805
207.56175,1.11307
207.32068,1.11005
207.07961,1.10609
206.83854,1.10058
206.59747,1.09370
206.35640,1.08334
206.11533,1.06863
205.87426,1.05257
205.63318,1.03925
205.39211,1.03034
205.15104,1.02361
204.90997,1.01465
204.66890,1.00156
204.42783,0.98666
204.18676,0.97218
203.94569,0.95723
203.70462,0.94101
203.46355,0.92538
203.22248,0.91161
202.98141,0.89843
202.74034,0.88490
202.49927,0.87249
202.25820,0.86303
202.01713,0.85618
201.77606,0.84877
201.53499,0.83714
201.29391,0.82142
201.05284,0.80513
200.81177,0.79044
200.57070,0.77718
200.32963,0.76499
200.08856,0.75313
199.84749,0.73986
199.60642,0.72498
199.36535,0.71143
199.12428,0.70242
198.88321,0.69814
198.64214,0.69519
198.40107,0.68851
198.16000,0.67570
197.91893,0.65984
197.67786,0.64628
197.43679,0.63756
197.19572,0.63234
196.95464,0.62830
196.71357,0.62426
196.47250,0.61927
196.23143,0.61232
195.99036,0.60424
195.74929,0.59759
195.50822,0.59319
195.26715,0.58894
195.02608,0.58328
194.78501,0.57691
194.54394,0.57065
194.30287,0.56383
194.06180,0.55613
193.82073,0.54888
193.57966,0.54357
193.33859,0.53983
193.09752,0.53592
192.85645,0.53083
192.61537,0.52508
192.37430,0.51988
192.13323,0.51608
191.89216,0.51319
191.65109,0.50978
191.41002,0.50564
191.16895,0.50239
190.92788,0.50069
190.68681,0.49846
190.44574,0.49381
190.20467,0.48811
189.96360,0.48429
189.72253,0.48352
189.48146,0.48443
189.24039,0.48460
188.99932,0.48311
188.75825,0.48174
188.51718,0.48253
188.27610,0.48434
188.03503,0.48421
187.79396,0.48190
187.55289,0.48006
187.31182,0.47999
187.07075,0.48025
186.82968,0.47993
186.58861,0.47996
186.34754,0.48045
186.10647,0.47977
185.86540,0.47745
185.62433,0.47569
185.38326,0.47665
185.14219,0.47970
184.90112,0.48244
184.66005,0.48352
184.41898,0.48356
184.17791,0.48416
183.93683,0.48653
183.69576,0.49022
183.45469,0.49329
183.21362,0.49460
182.97255,0.49482
182.73148,0.49478
182.49041,0.49440
182.24934,0.49366
182.00827,0.49316
181.76720,0.49303
181.52613,0.49286
181.28506,0.49315
181.04399,0.49580
180.80292,0.50194
180.56185,0.50951
180.32078,0.51456
180.07971,0.51567
179.83864,0.51540
179.59756,0.51654
179.35649,0.51932
179.11542,0.52369
178.87435,0.53152
178.63328,0.54369
178.39221,0.55695
178.15114,0.56639
177.91007,0.57113
177.66900,0.57542
177.42793,0.58399
177.18686,0.59736
176.94579,0.61154
176.70472,0.62283
176.46365,0.63249
176.22258,0.64514
175.98151,0.66365
175.74044,0.68685
175.49937,0.71061
175.25829,0.73082
175.01722,0.74794
174.77615,0.76794
174.53508,0.79501
174.29401,0.82461
174.05294,0.84755
173.81187,0.86078
173.57080,0.87019
173.32973,0.88210
173.08866,0.89638
172.84759,0.90922
172.60652,0.91921
172.36545,0.92685
172.12438,0.93110
171.88331,0.93178
171.64224,0.93175
171.40117,0.93195
171.16010,0.92936
170.91902,0.92325
170.67795,0.91627
170.43688,0.90890
170.19581,0.90043
169.95474,0.89357
169.71367,0.89115
169.47260,0.88952
169.23153,0.88233
168.99046,0.87094
168.74939,0.86292
168.50832,0.86061
168.26725,0.85876
168.02618,0.85321
167.78511,0.84623
167.54404,0.84246
167.30297,0.84419
167.06190,0.85014
166.82083,0.85584
166.57975,0.85687
166.33868,0.85417
166.09761,0.85351
165.85654,0.85951
165.61547,0.87208
165.37440,0.88737
165.13333,0.90064
164.89226,0.91006
164.65119,0.91706
164.41012,0.92212
164.16905,0.92493
163.92798,0.92855
163.68691,0.93773
163.44584,0.95280
163.20477,0.96931
162.96370,0.98335
162.72263,0.99352
162.48156,0.99911
162.24048,1.00050
161.99941,1.00124
161.75834,1.00651
161.51727,1.01753
161.27620,1.02905
161.03513,1.03425
160.79406,1.03158
160.55299,1.02404
160.31192,1.01618
160.07085,1.01329
159.82978,1.01746
159.58871,1.02345
159.34764,1.02246
159.10657,1.01146
158.86550,0.99527
158.62443,0.98003
158.38336,0.96881
158.14229,0.96177
157.90121,0.95730
157.66014,0.95352
157.41907,0.94853
157.17800,0.94113
156.93693,0.93325
156.69586,0.92899
156.45479,0.93092
156.21372,0.93641
155.97265,0.93730
155.73158,0.92746
155.49051,0.91039
155.24944,0.89483
155.00837,0.88539
154.76730,0.88085
154.52623,0.87724
154.28516,0.86899
154.04409,0.85215
153.80302,0.82926
153.56194,0.80710
153.32087,0.78998
153.07980,0.77757
152.83873,0.76634
152.59766,0.75185
152.35659,0.73230
152.11552,0.71044
151.87445,0.68999
151.63338,0.67144
151.39231,0.65313
151.15124,0.63483
150.91017,0.61843
150.66910,0.60530
150.42803,0.59448
150.18696,0.58393
149.94589,0.57261
149.70482,0.56076
149.46375,0.54922
149.22267,0.53890
148.98160,0.53050
148.74053,0.52405
148.49946,0.51888
148.25839,0.51362
148.01732,0.50708
147.77625,0.49985
147.53518,0.49404
147.29411,0.49096
147.05304,0.48987
146.81197,0.48936
146.57090,0.48906
146.32983,0.49009
146.08876,0.49342
145.84769,0.49809
145.60662,0.50246
145.36555,0.50672
145.12448,0.51236
144.88340,0.51951
144.64233,0.52677
144.40126,0.53304
144.16019,0.53770
143.91912,0.53956
143.67805,0.53762
143.43698,0.53279
143.19591,0.52770
142.95484,0.52411
142.71377,0.52132
142.47270,0.51720
142.23163,0.51023
141.99056,0.50084
141.74949,0.49087
141.50842,0.48155
141.26735,0.47275
141.02628,0.46481
140.78521,0.45953
140.54413,0.45781
140.30306,0.45804
140.06199,0.45839
139.82092,0.45875
139.57985,0.45983
139.33878,0.46218
139.09771,0.46662
138.85664,0.47383
138.61557,0.48316
138.37450,0.49266
138.13343,0.50073
137.89236,0.50811
137.65129,0.51792
137.41022,0.53303
137.16915,0.55342
136.92808,0.57653
136.68701,0.59991
136.44594,0.62226
136.20486,0.64311
135.96379,0.66295
135.72272,0.68304
135.48165,0.70394
135.24058,0.72566
134.99951,0.74991
134.75844,0.77933
134.51737,0.81291
134.27630,0.84410
134.03523,0.86723
133.79416,0.88447
133.55309,0.90284
133.31202,0.92680
133.07095,0.95525
132.82988,0.98326
132.58881,1.00439
132.34774,1.01382
132.10667,1.01313
131.86559,1.01199
131.62452,1.01571
131.38345,1.01459
131.14238,0.99645
130.90131,0.96417
130.66024,0.93147
130.41917,0.90777
130.17810,0.89113
129.93703,0.87212
129.69596,0.84315
129.45489,0.80449
129.21382,0.76241
128.97275,0.72372
128.73168,0.69152
128.49061,0.66446
128.24954,0.63931
128.00847,0.61457
127.76740,0.59070
127.52632,0.56759
127.28525,0.54442
127.04418,0.52143
126.80311,0.49944
126.56204,0.47820
126.32097,0.45729
126.07990,0.43813
125.83883,0.42309
125.59776,0.41280
125.35669,0.40578
125.11562,0.40069
124.87455,0.39718
124.63348,0.39398
124.39241,0.38834
124.15134,0.37893
123.91027,0.36777
123.66920,0.35784
123.42812,0.35030
123.18705,0.34523
122.94598,0.34319
122.70491,0.34449
122.46384,0.34798
122.22277,0.35182
121.98170,0.35507
121.74063,0.35815
121.49956,0.36194
121.25849,0.36665
121.01742,0.37179
120.77635,0.37782
120.53528,0.38687
120.29421,0.40083
120.05314,0.41883
119.81207,0.43753
119.57100,0.45425
119.32993,0.46922
119.08885,0.48479
118.84778,0.50358
118.60671,0.52689
118.36564,0.55337
118.12457,0.57985
117.88350,0.60489
117.64243,0.62995
117.40136,0.65508
117.16029,0.67507
116.91922,0.68300
116.67815,0.67825
116.43708,0.66726
116.19601,0.65565
115.95494,0.64351
115.71387,0.62913
115.47280,0.61333
115.23173,0.59847
114.99066,0.58606
114.74958,0.57672
114.50851,0.57025
114.26744,0.56463
114.02637,0.55738
113.78530,0.54862
113.54423,0.54198
113.30316,0.54157
113.06209,0.54789
112.82102,0.55725
112.57995,0.56551
112.33888,0.57155
112.09781,0.57651
111.85674,0.58177
111.61567,0.58759
111.37460,0.59277
111.13353,0.59665
110.89246,0.60088
110.65139,0.60596
110.41031,0.60744
110.16924,0.60024
109.92817,0.58585
109.68710,0.57021
109.44603,0.55639
109.20496,0.54341
108.96389,0.52998
108.72282,0.51635
108.48175,0.50293
108.24068,0.48815
107.99961,0.46957
107.75854,0.44760
107.51747,0.42598
107.27640,0.40728
107.03533,0.39067
106.79426,0.37500
106.55319,0.36115
106.31212,0.35002
106.07104,0.34045
105.82997,0.33049
105.58890,0.31971
105.34783,0.30969
105.10676,0.30216
104.86569,0.29718
104.62462,0.29320
104.38355,0.28845
104.14248,0.28198
103.90141,0.27370
103.66034,0.26461
103.41927,0.25613
103.17820,0.24862
102.93713,0.24132
102.69606,0.23418
102.45499,0.22818
102.21392,0.22407
101.97285,0.22139
101.73177,0.21863
101.49070,0.21420
101.24963,0.20771
101.00856,0.20058
100.76749,0.19541
100.52642,0.19420
100.28535,0.19630
100.04428,0.19881
99.80321,0.19951
99.56214,0.19855
99.32107,0.19653
99.08000,0.19316
98.83893,0.18889
98.59786,0.18578
98.35679,0.18520
98.11572,0.18633
97.87465,0.18758
97.63358,0.18878
97.39250,0.19140
97.15143,0.19642
96.91036,0.20251
96.66929,0.20762
96.42822,0.21164
96.18715,0.21604
95.94608,0.22170
95.70501,0.22853
95.46394,0.23605
95.22287,0.24330
94.98180,0.24950
94.74073,0.25498
94.49966,0.26051
94.25859,0.26582
94.01752,0.26985
93.77645,0.27154
93.53538,0.27056
93.29431,0.26802
93.05323,0.26606
92.81216,0.26603
92.57109,0.26758
92.33002,0.26972
92.08895,0.27208
91.84788,0.27517
91.60681,0.27984
91.36574,0.28680
91.12467,0.29661
90.88360,0.31058
90.64253,0.33077
90.40146,0.35837
90.16039,0.39272
89.91932,0.43231
89.67825,0.47488
89.43718,0.51636
89.19611,0.55214
88.95504,0.57874
88.71396,0.59235
88.47289,0.58981
88.23182,0.57321
87.99075,0.54756
87.74968,0.51479
87.50861,0.47514
87.26754,0.43236
87.02647,0.39242
86.78540,0.35835
86.54433,0.32947
86.30326,0.30452
86.06219,0.28310
85.82112,0.26452
85.58005,0.24735
85.33898,0.23073
85.09791,0.21461
84.85684,0.19894
84.61577,0.18422
84.37469,0.17237
84.13362,0.16496
83.89255,0.16070
83.65148,0.15650
83.41041,0.15089
83.16934,0.14503
82.92827,0.14039
82.68720,0.13720
82.44613,0.13453
82.20506,0.13129
81.96399,0.12735
81.72292,0.12378
81.48185,0.12189
81.24078,0.12205
80.99971,0.12335
80.75864,0.12418
80.51757,0.12350
80.27650,0.12139
80.03542,0.11860
79.79435,0.11586
79.55328,0.11382
79.31221,0.11266
79.07114,0.11172
78.83007,0.10980
78.58900,0.10629
78.34793,0.10200
78.10686,0.09858
77.86579,0.09682
77.62472,0.09594
77.38365,0.09487
77.14258,0.09344
76.90151,0.09210
76.66044,0.09125
76.41937,0.09099
76.17830,0.09115
75.93723,0.09152
75.69615,0.09225
75.45508,0.09331
75.21401,0.09390
74.97294,0.09328
74.73187,0.09192
74.49080,0.09090
74.24973,0.09070
74.00866,0.09079
73.76759,0.08999
73.52652,0.08760
73.28545,0.08471
73.04438,0.08329
72.80331,0.08380
72.56224,0.08494
72.32117,0.08600
72.08010,0.08804
71.83903,0.09238
71.59796,0.09884
71.35688,0.10585
71.11581,0.11184
70.87474,0.11623
70.63367,0.11964
70.39260,0.12363
70.15153,0.12974
69.91046,0.13841
69.66939,0.14914
69.42832,0.16124
69.18725,0.17293
68.94618,0.18007
68.70511,0.17893
68.46404,0.17027
68.22297,0.15825
67.98190,0.14565
67.74083,0.13252
67.49976,0.11866
67.25869,0.10559
67.01761,0.09561
66.77654,0.08948
66.53547,0.08642
66.29440,0.08567
66.05333,0.08644
65.81226,0.08695
65.57119,0.08570
65.33012,0.08386
65.08905,0.08441
64.84798,0.08869
64.60691,0.09516
64.36584,0.10169
64.12477,0.10776
63.88370,0.11350
63.64263,0.11729
63.40156,0.11632
63.16049,0.11026
62.91942,0.10244
62.67834,0.09626
62.43727,0.09175
62.19620,0.08689
61.95513,0.08052
61.71406,0.07326
61.47299,0.06675
61.23192,0.06282
60.99085,0.06217
60.74978,0.06376
60.50871,0.06588
60.26764,0.06768
60.02657,0.06943
59.78550,0.07144
59.54443,0.07333
59.30336,0.07405
59.06229,0.07275
58.82122,0.07022
58.58015,0.06883
58.33907,0.07019
58.09800,0.07317
57.85693,0.07572
57.61586,0.07736
57.37479,0.07863
57.13372,0.07942
56.89265,0.07898
56.65158,0.07655
56.41051,0.07199
56.16944,0.06621
55.92837,0.06084
55.68730,0.05703
55.44623,0.05458
55.20516,0.05232
54.96409,0.05045
54.72302,0.05181
54.48195,0.05834
54.24088,0.06717
53.99980,0.07345
53.75873,0.07595
53.51766,0.07662
53.27659,0.07679
53.03552,0.07598
52.79445,0.07290
52.55338,0.06737
52.31231,0.06203
52.07124,0.05989
51.83017,0.06022
51.58910,0.05974
51.34803,0.05741
51.10696,0.05592
50.86589,0.05839
50.62482,0.06459
50.38375,0.07039
50.14268,0.07106
49.90161,0.06546
49.66053,0.05648
49.41946,0.04707
49.17839,0.03879
48.93732,0.03469
48.69625,0.03890
48.45518,0.05023
48.21411,0.06126
47.97304,0.06682
47.73197,0.06905
47.49090,0.06981
47.24983,0.06440
47.00876,0.05042
46.76769,0.03536
46.52662,0.02807
46.28555,0.02876
46.04448,0.03159
45.80341,0.03362
45.56234,0.03714
45.32126,0.04284
45.08019,0.04656
44.83912,0.04624
44.59805,0.04491
44.35698,0.04272
44.11591,0.03499
43.87484,0.02335
43.63377,0.01840
43.39270,0.02495
43.15163,0.03251
42.91056,0.02933
42.66949,0.01803
42.42842,0.01017
42.18735,0.01237
41.94628,0.02309
41.70521,0.03716
41.46414,0.04831
41.22307,0.05251
40.98199,0.05316
40.74092,0.05802
40.49985,0.06843
40.25878,0.07685
40.01771,0.07691
39.77664,0.07047
39.53557,0.06371
39.29450,0.06063
39.05343,0.06002
38.81236,0.05829
38.57129,0.05647
38.33022,0.05949
38.08915,0.06825
37.84808,0.07896
37.60701,0.08738
37.36594,0.08820
37.12487,0.08036
36.88380,0.07467
36.64272,0.08156
36.40165,0.09410
36.16058,0.09756
35.91951,0.09090
35.67844,0.08488
35.43737,0.08582
35.19630,0.09417
34.95523,0.11003
34.71416,0.12838
34.47309,0.13270
34.23202,0.11308
33.99095,0.08604
33.74988,0.07817
33.50881,0.09697
33.26774,0.12699
33.02667,0.14947
32.78560,0.16108
32.54453,0.17374
32.30345,0.18792
32.06238,0.18219
31.82131,0.14913
31.58024,0.11828
31.33917,0.12026
31.09810,0.14623
30.85703,0.16594
30.61596,0.16944
30.37489,0.16560
30.13382,0.15916
29.89275,0.15331
29.65168,0.16141
29.41061,0.19654
29.16954,0.24520
28.92847,0.27154
28.68740,0.25975
28.44633,0.23013
28.20526,0.21205
27.96418,0.21652
27.72311,0.23565
27.48204,0.25456
27.24097,0.25608
26.99990,0.23717
26.75883,0.22674
26.51776,0.25105
26.27669,0.29453
26.03562,0.32048
25.79455,0.31486
25.55348,0.29726
25.31241,0.28899
25.07134,0.28461
24.83027,0.26984
24.58920,0.26577
24.34813,0.29444
24.10706,0.32301
23.86599,0.31512
23.62491,0.28717
23.38384,0.27392
23.14277,0.28667
22.90170,0.31344
22.66063,0.34809
22.41956,0.39187
22.17849,0.43575
21.93742,0.45463
21.69635,0.44306
21.45528,0.44677
21.21421,0.51232
20.97314,0.63138
20.73207,0.72478
20.49100,0.71480
20.24993,0.62561
20.00886,0.54080
19.76779,0.51407
19.52672,0.52381
19.28564,0.54685
19.04457,0.62387
18.80350,0.75951
18.56243,0.78338
18.32136,0.76252
18.08029,0.92962
17.83922,1.18459
17.59815,0.96866
17.35708,0.80678
17.11601,0.67288
16.87494,0.58525
16.63387,0.55229
16.39280,0.55767
16.15173,0.61917
15.91066,0.75320
15.66959,0.88955
15.42852,0.90973
15.18745,0.84984
14.94637,0.75948
14.70530,0.70631
14.46423,0.73837
14.22316,0.81089
13.98209,0.77879
13.74102,0.73475
13.49995,0.69059
13.25888,0.61523
13.01781,0.61276
12.77674,0.65285
12.53567,0.73430
12.29460,0.79931
12.05353,0.82777
11.81246,0.92451
11.57139,1.12920
11.33032,1.18324
11.08925,0.94031
10.84818,0.67896
10.60710,0.57962
10.36603,0.49087
10.12496,0.38552
9.88389,0.38554
9.64282,0.52842
9.40175,0.71275
9.16068,0.77029
8.91961,0.70894
8.67854,0.60384
8.43747,0.60493
8.19640,0.71400
7.95533,0.68271
7.71426,0.56452
7.47319,0.50807
7.23212,0.50932
6.99105,0.52572
6.74998,0.50848
6.50891,0.51826
6.26783,0.50888
6.02676,0.55054
5.78569,0.61966
5.54462,0.66764
5.30355,0.57315
5.06248,0.57271
4.82141,0.68783
4.58034,0.63819
4.33927,0.49416
4.09820,0.50232
3.85713,0.68757
3.61606,0.67498
3.37499,0.61810
3.13392,0.65253
2.89285,0.63392
2.65178,0.70458
2.41071,0.96812
2.16964,0.70519
1.92856,0.51045
1.68749,0.52037
1.44642,0.59556
1.20535,0.71754
0.96428,0.85266
0.72321,0.82309
0.48214,0.61574
0.24107,0.53350
-0.00000,0.46078
