399.69498,1.53623
399.45391,1.54537
399.21284,1.56654
398.97177,1.58310
398.73070,1.58351
398.48963,1.57023
398.24856,1.55054
398.00749,1.53233
397.76642,1.52476
397.52535,1.53576
397.28428,1.56472
397.04321,1.60145
396.80214,1.63078
396.56107,1.63776
396.32000,1.62200
396.07892,1.59656
395.83785,1.57359
395.59678,1.55815
395.35571,1.55274
395.11464,1.55881
394.87357,1.56876
394.63250,1.56917
394.39143,1.55887
394.15036,1.54656
393.90929,1.53397
393.66822,1.51944
393.42715,1.50813
393.18608,1.50577
392.94501,1.50742
392.70394,1.50550
392.46287,1.50158
392.22180,1.50370
391.98073,1.51203
391.73965,1.51713
391.49858,1.51758
391.25751,1.52406
391.01644,1.54523
390.77537,1.57121
390.53430,1.58145
390.29323,1.57239
390.05216,1.55257
389.81109,1.52947
389.57002,1.51308
389.32895,1.50782
389.08788,1.50622
388.84681,1.50009
388.60574,1.49444
388.36467,1.50080
388.12360,1.51874
387.88253,1.53343
387.64146,1.53124
387.40038,1.51248
387.15931,1.48996
386.91824,1.47781
386.67717,1.48258
386.43610,1.50017
386.19503,1.51643
385.95396,1.51733
385.71289,1.50183
385.47182,1.48002
385.23075,1.46302
384.98968,1.45566
384.74861,1.45533
384.50754,1.45972
384.26647,1.46250
384.02540,1.44986
383.78433,1.41461
383.54326,1.37267
383.30219,1.34926
383.06111,1.34791
382.82004,1.34831
382.57897,1.32998
382.33790,1.29599
382.09683,1.26821
381.85576,1.26275
381.61469,1.28467
381.37362,1.32672
381.13255,1.36631
380.89148,1.37840
380.65041,1.35837
380.40934,1.32532
380.16827,1.30194
379.92720,1.29653
379.68613,1.30406
379.44506,1.32050
379.20399,1.34217
378.96292,1.35506
378.72184,1.35337
378.48077,1.35166
378.23970,1.36231
377.99863,1.38090
377.75756,1.39206
377.51649,1.38847
377.27542,1.38060
377.03435,1.38466
376.79328,1.40308
376.55221,1.41684
376.31114,1.41112
376.07007,1.40424
375.82900,1.42250
375.58793,1.46319
375.34686,1.49684
375.10579,1.49929
374.86472,1.47987
374.62365,1.46756
374.38257,1.47468
374.14150,1.48720
373.90043,1.48733
373.65936,1.47831
373.41829,1.47346
373.17722,1.47136
372.93615,1.45954
372.69508,1.43734
372.45401,1.41370
372.21294,1.39190
371.97187,1.37170
371.73080,1.35739
371.48973,1.35333
371.24866,1.35943
371.00759,1.37401
370.76652,1.39393
370.52545,1.41071
370.28437,1.41329
370.04330,1.39877
369.80223,1.37567
369.56116,1.35573
369.32009,1.34639
369.07902,1.34617
368.83795,1.34462
368.59688,1.33327
368.35581,1.31625
368.11474,1.30531
367.87367,1.30831
367.63260,1.31908
367.39153,1.32043
367.15046,1.30475
366.90939,1.28341
366.66832,1.27206
366.42725,1.27494
366.18618,1.28612
365.94510,1.29789
365.70403,1.30253
365.46296,1.29566
365.22189,1.28425
364.98082,1.28040
364.73975,1.28530
364.49868,1.29031
364.25761,1.29188
364.01654,1.29404
363.77547,1.29917
363.53440,1.30526
363.29333,1.30882
363.05226,1.30419
362.81119,1.28660
362.57012,1.26226
362.32905,1.24569
362.08798,1.24585
361.84691,1.25956
361.60583,1.27516
361.36476,1.28280
361.12369,1.28190
360.88262,1.27620
360.64155,1.26622
360.40048,1.25185
360.15941,1.23804
359.91834,1.23222
359.67727,1.23694
359.43620,1.24815
359.19513,1.25922
358.95406,1.26542
358.71299,1.26654
358.47192,1.26624
358.23085,1.26585
357.98978,1.25989
357.74871,1.24411
357.50764,1.22645
357.26656,1.21995
357.02549,1.22685
356.78442,1.23613
356.54335,1.23594
356.30228,1.22584
356.06121,1.21538
355.82014,1.21423
355.57907,1.22488
355.33800,1.24108
355.09693,1.25368
354.85586,1.25916
354.61479,1.26034
354.37372,1.25993
354.13265,1.25912
353.89158,1.25977
353.65051,1.26140
353.40944,1.25996
353.16837,1.25587
352.92729,1.25574
352.68622,1.26045
352.44515,1.26246
352.20408,1.25881
351.96301,1.25618
351.72194,1.26076
351.48087,1.27002
351.23980,1.27379
350.99873,1.26494
350.75766,1.25116
350.51659,1.24672
350.27552,1.25279
350.03445,1.25859
349.79338,1.25986
349.55231,1.26192
349.31124,1.26558
349.07017,1.26580
348.82910,1.26190
348.58802,1.25753
348.34695,1.25636
348.10588,1.26296
347.86481,1.28045
347.62374,1.30444
347.38267,1.32570
347.14160,1.34085
346.90053,1.35278
346.65946,1.35981
346.41839,1.35455
346.17732,1.33619
345.93625,1.31399
345.69518,1.29725
345.45411,1.28926
345.21304,1.28858
344.97197,1.29141
344.73090,1.29484
344.48983,1.29792
344.24875,1.30074
344.00768,1.30664
343.76661,1.32207
343.52554,1.34789
343.28447,1.37144
343.04340,1.37791
342.80233,1.36965
342.56126,1.36101
342.32019,1.36017
342.07912,1.36614
341.83805,1.37500
341.59698,1.38153
341.35591,1.38009
341.11484,1.37097
340.87377,1.36303
340.63270,1.36574
340.39163,1.38001
340.15056,1.39596
339.90948,1.40111
339.66841,1.39590
339.42734,1.39623
339.18627,1.41481
338.94520,1.44613
338.70413,1.46998
338.46306,1.47120
338.22199,1.45583
337.98092,1.44351
337.73985,1.44950
337.49878,1.47112
337.25771,1.48638
337.01664,1.47391
336.77557,1.43911
336.53450,1.40778
336.29343,1.39861
336.05236,1.40927
335.81129,1.42132
335.57021,1.42054
335.32914,1.41290
335.08807,1.41151
334.84700,1.41679
334.60593,1.42132
334.36486,1.42621
334.12379,1.43777
333.88272,1.45097
333.64165,1.44910
333.40058,1.42739
333.15951,1.40168
332.91844,1.38780
332.67737,1.39036
332.43630,1.40566
332.19523,1.42481
331.95416,1.43873
331.71309,1.44372
331.47202,1.43993
331.23094,1.43000
330.98987,1.41806
330.74880,1.40647
330.50773,1.39662
330.26666,1.38880
330.02559,1.38209
329.78452,1.37630
329.54345,1.37137
329.30238,1.36903
329.06131,1.37309
328.82024,1.37858
328.57917,1.37248
328.33810,1.35433
328.09703,1.34006
327.85596,1.33986
327.61489,1.34484
327.37382,1.33962
327.13275,1.32364
326.89167,1.30866
326.65060,1.30168
326.40953,1.29798
326.16846,1.29313
325.92739,1.29469
325.68632,1.31097
325.44525,1.33478
325.20418,1.34738
324.96311,1.34180
324.72204,1.33041
324.48097,1.32526
324.23990,1.32764
323.99883,1.33372
323.75776,1.34106
323.51669,1.35229
323.27562,1.36979
323.03455,1.38308
322.79348,1.37998
322.55240,1.36624
322.31133,1.35371
322.07026,1.34665
321.82919,1.34038
321.58812,1.33354
321.34705,1.33205
321.10598,1.33601
320.86491,1.34069
320.62384,1.35329
320.38277,1.37837
320.14170,1.39794
319.90063,1.39484
319.65956,1.37914
319.41849,1.37141
319.17742,1.37884
318.93635,1.39415
318.69528,1.40763
318.45421,1.41643
318.21313,1.41943
317.97206,1.41079
317.73099,1.38781
317.48992,1.35904
317.24885,1.33817
317.00778,1.33447
316.76671,1.34363
316.52564,1.35153
316.28457,1.35039
316.04350,1.34184
315.80243,1.33560
315.56136,1.33677
315.32029,1.34553
315.07922,1.36651
314.83815,1.39821
314.59708,1.42017
314.35601,1.41752
314.11494,1.40225
313.87386,1.39039
313.63279,1.38528
313.39172,1.38719
313.15065,1.40270
312.90958,1.43408
312.66851,1.46450
312.42744,1.46813
312.18637,1.44145
311.94530,1.40624
311.70423,1.38341
311.46316,1.37805
311.22209,1.38433
310.98102,1.40008
310.73995,1.42424
310.49888,1.44388
310.25781,1.44400
310.01674,1.43079
309.77567,1.42741
309.53459,1.44263
309.29352,1.46120
309.05245,1.46357
308.81138,1.44908
308.57031,1.43214
308.32924,1.42956
308.08817,1.44889
307.84710,1.48034
307.60603,1.50537
307.36496,1.51401
307.12389,1.50293
306.88282,1.47473
306.64175,1.44752
306.40068,1.44066
306.15961,1.45234
305.91854,1.46451
305.67747,1.46704
305.43640,1.46372
305.19532,1.45935
304.95425,1.45668
304.71318,1.45691
304.47211,1.45363
304.23104,1.43857
303.98997,1.41539
303.74890,1.39407
303.50783,1.37791
303.26676,1.36671
303.02569,1.36233
302.78462,1.36407
302.54355,1.36516
302.30248,1.36165
302.06141,1.35848
301.82034,1.36083
301.57927,1.36773
301.33820,1.37401
301.09713,1.37310
300.85605,1.35998
300.61498,1.33715
300.37391,1.31672
300.13284,1.31181
299.89177,1.32426
299.65070,1.34043
299.40963,1.34270
299.16856,1.32885
298.92749,1.31046
298.68642,1.29484
298.44535,1.28104
298.20428,1.26751
297.96321,1.25698
297.72214,1.25342
297.48107,1.25416
297.24000,1.25206
296.99893,1.24619
296.75786,1.24080
296.51678,1.23691
296.27571,1.23484
296.03464,1.23807
295.79357,1.24632
295.55250,1.25096
295.31143,1.24582
295.07036,1.23665
294.82929,1.23191
294.58822,1.23198
294.34715,1.23074
294.10608,1.22281
293.86501,1.20905
293.62394,1.19676
293.38287,1.19292
293.14180,1.19781
292.90073,1.20504
292.65966,1.20618
292.41859,1.19850
292.17751,1.18797
291.93644,1.18192
291.69537,1.18174
291.45430,1.18353
291.21323,1.18309
290.97216,1.18054
290.73109,1.17989
290.49002,1.18285
290.24895,1.18475
290.00788,1.18035
289.76681,1.17134
289.52574,1.16363
289.28467,1.16045
289.04360,1.16046
288.80253,1.16108
288.56146,1.16167
288.32039,1.16236
288.07932,1.16056
287.83824,1.15291
287.59717,1.14136
287.35610,1.13275
287.11503,1.13073
286.87396,1.13251
286.63289,1.13427
286.39182,1.13534
286.15075,1.13606
285.90968,1.13596
285.66861,1.13479
285.42754,1.13357
285.18647,1.13329
284.94540,1.13347
284.70433,1.13315
284.46326,1.13208
284.22219,1.12996
283.98112,1.12698
283.74005,1.12536
283.49897,1.12769
283.25790,1.13300
283.01683,1.13724
282.77576,1.13868
282.53469,1.13978
282.29362,1.14320
282.05255,1.14823
281.81148,1.15125
281.57041,1.14898
281.32934,1.14203
281.08827,1.13546
280.84720,1.13337
280.60613,1.13434
280.36506,1.13501
280.12399,1.13519
279.88292,1.13573
279.64185,1.13468
279.40078,1.13011
279.15970,1.12473
278.91863,1.12405
278.67756,1.13077
278.43649,1.14147
278.19542,1.14877
277.95435,1.14888
277.71328,1.14600
277.47221,1.14639
277.23114,1.15049
276.99007,1.15330
276.74900,1.15165
276.50793,1.14789
276.26686,1.14528
276.02579,1.14426
275.78472,1.14545
275.54365,1.15128
275.30258,1.16014
275.06151,1.16390
274.82043,1.15828
274.57936,1.15101
274.33829,1.15180
274.09722,1.15921
273.85615,1.16432
273.61508,1.16424
273.37401,1.16416
273.13294,1.16748
272.89187,1.17196
272.65080,1.17526
272.40973,1.17811
272.16866,1.18111
271.92759,1.18345
271.68652,1.18563
271.44545,1.18975
271.20438,1.19590
270.96331,1.20059
270.72224,1.20052
270.48116,1.19765
270.24009,1.19745
269.99902,1.20155
269.75795,1.20562
269.51688,1.20609
269.27581,1.20497
269.03474,1.20658
268.79367,1.21337
268.55260,1.22547
268.31153,1.23982
268.07046,1.24995
267.82939,1.25104
267.58832,1.24634
267.34725,1.24490
267.10618,1.25206
266.86511,1.26462
266.62404,1.27621
266.38297,1.28516
266.14189,1.29430
265.90082,1.30480
265.65975,1.31452
265.41868,1.32244
265.17761,1.33056
264.93654,1.33998
264.69547,1.34895
264.45440,1.35655
264.21333,1.36436
263.97226,1.37252
263.73119,1.37980
263.49012,1.38931
263.24905,1.40774
263.00798,1.43553
262.76691,1.46232
262.52584,1.47939
262.28477,1.49166
262.04370,1.50665
261.80262,1.52103
261.56155,1.52873
261.32048,1.53508
261.07941,1.55126
260.83834,1.57749
260.59727,1.60354
260.35620,1.62699
260.11513,1.65676
259.87406,1.69600
259.63299,1.73145
259.39192,1.75175
259.15085,1.76840
258.90978,1.80078
258.66871,1.85208
258.42764,1.90805
258.18657,1.94475
257.94550,1.93072
257.70443,1.88282
257.46335,1.84518
257.22228,1.82775
256.98121,1.82604
256.74014,1.83959
256.49907,1.85791
256.25800,1.85641
256.01693,1.82643
255.77586,1.78900
255.53479,1.76629
255.29372,1.76135
255.05265,1.76717
254.81158,1.77900
254.57051,1.79024
254.32944,1.79038
254.08837,1.77388
253.84730,1.74401
253.60623,1.70924
253.36516,1.67513
253.12408,1.64679
252.88301,1.62940
252.64194,1.61937
252.40087,1.60583
252.15980,1.58659
251.91873,1.57082
251.67766,1.56743
251.43659,1.57349
251.19552,1.57511
250.95445,1.56561
250.71338,1.55534
250.47231,1.55690
250.23124,1.56474
249.99017,1.56235
249.74910,1.54865
249.50803,1.53821
249.26696,1.53880
249.02589,1.54591
248.78481,1.55569
248.54374,1.56915
248.30267,1.58321
248.06160,1.58894
247.82053,1.58473
247.57946,1.57942
247.33839,1.57948
247.09732,1.58457
246.85625,1.59191
246.61518,1.60155
246.37411,1.60921
246.13304,1.60354
245.89197,1.58588
245.65090,1.57388
245.40983,1.57830
245.16876,1.59515
244.92769,1.62045
244.68661,1.65928
244.44554,1.71316
244.20447,1.76641
243.96340,1.79907
243.72233,1.81582
243.48126,1.84690
243.24019,1.90680
242.99912,1.96835
242.75805,2.00601
242.51698,1.98470
242.27591,1.86146
242.03484,1.74315
241.79377,1.64484
241.55270,1.55802
241.31163,1.48061
241.07056,1.41089
240.82949,1.35261
240.58842,1.30907
240.34734,1.27754
240.10627,1.24824
239.86520,1.21095
239.62413,1.16694
239.38306,1.12772
239.14199,1.10060
238.90092,1.08153
238.65985,1.06165
238.41878,1.03787
238.17771,1.01451
237.93664,0.99584
237.69557,0.98129
237.45450,0.96712
237.21343,0.95049
236.97236,0.93219
236.73129,0.91550
236.49022,0.90237
236.24915,0.89142
236.00807,0.88068
235.76700,0.87069
235.52593,0.86289
235.28486,0.85671
235.04379,0.85118
234.80272,0.84759
234.56165,0.84706
234.32058,0.84700
234.07951,0.84345
233.83844,0.83626
233.59737,0.82941
233.35630,0.82607
233.11523,0.82555
232.87416,0.82518
232.63309,0.82402
232.39202,0.82367
232.15095,0.82482
231.90988,0.82452
231.66880,0.81889
231.42773,0.80880
231.18666,0.79994
230.94559,0.79689
230.70452,0.79877
230.46345,0.80163
230.22238,0.80367
229.98131,0.80511
229.74024,0.80513
229.49917,0.80332
229.25810,0.80193
229.01703,0.80258
228.77596,0.80305
228.53489,0.80114
228.29382,0.79872
228.05275,0.79858
227.81168,0.79914
227.57061,0.79664
227.32953,0.79151
227.08846,0.78789
226.84739,0.78812
226.60632,0.79164
226.36525,0.79716
226.12418,0.80305
225.88311,0.80687
225.64204,0.80734
225.40097,0.80599
225.15990,0.80523
224.91883,0.80585
224.67776,0.80742
224.43669,0.80935
224.19562,0.81114
223.95455,0.81261
223.71348,0.81483
223.47241,0.81964
223.23134,0.82720
222.99026,0.83488
222.74919,0.83969
222.50812,0.84135
222.26705,0.84188
222.02598,0.84370
221.78491,0.84868
221.54384,0.85767
221.30277,0.87040
221.06170,0.88487
220.82063,0.89756
220.57956,0.90699
220.33849,0.91534
220.09742,0.92326
219.85635,0.92819
219.61528,0.93132
219.37421,0.93872
219.13314,0.95369
218.89207,0.97379
218.65099,0.99465
218.40992,1.01273
218.16885,1.02653
217.92778,1.03749
217.68671,1.04788
217.44564,1.05919
217.20457,1.07370
216.96350,1.09326
216.72243,1.11604
216.48136,1.13928
216.24029,1.16286
215.99922,1.18416
215.75815,1.19571
215.51708,1.19494
215.27601,1.18967
215.03494,1.19053
214.79387,1.20273
214.55280,1.22445
214.31172,1.24839
214.07065,1.26607
213.82958,1.27594
213.58851,1.28481
213.34744,1.29769
213.10637,1.31107
212.86530,1.32163
212.62423,1.33481
212.38316,1.35652
212.14209,1.38083
211.90102,1.39535
211.65995,1.39615
211.41888,1.38963
211.17781,1.38198
210.93674,1.37703
210.69567,1.38096
210.45460,1.39928
210.21353,1.42613
209.97245,1.44127
209.73138,1.43209
209.49031,1.40904
209.24924,1.38850
209.00817,1.37840
208.76710,1.37719
208.52603,1.37752
208.28496,1.37330
208.04389,1.36560
207.80282,1.35778
207.56175,1.34803
207.32068,1.33414
207.07961,1.32178
206.83854,1.31844
206.59747,1.32081
206.35640,1.31493
206.11533,1.29119
205.87426,1.25645
205.63318,1.22457
205.39211,1.20269
205.15104,1.19231
204.90997,1.19128
204.66890,1.19157
204.42783,1.18235
204.18676,1.15953
203.94569,1.12862
203.70462,1.09842
203.46355,1.07624
203.22248,1.06535
202.98141,1.06166
202.74034,1.05421
202.49927,1.03465
202.25820,1.00678
202.01713,0.98139
201.77606,0.96471
201.53499,0.95469
201.29391,0.94477
201.05284,0.92994
200.81177,0.91066
200.57070,0.89181
200.32963,0.87820
200.08856,0.87026
199.84749,0.86288
199.60642,0.85029
199.36535,0.83312
199.12428,0.81715
198.88321,0.80636
198.64214,0.79902
198.40107,0.78977
198.16000,0.77570
197.91893,0.75976
197.67786,0.74731
197.43679,0.74047
197.19572,0.73647
196.95464,0.73082
196.71357,0.72147
196.47250,0.70973
196.23143,0.69840
195.99036,0.68916
195.74929,0.68136
195.50822,0.67330
195.26715,0.66491
195.02608,0.65809
194.78501,0.65371
194.54394,0.64975
194.30287,0.64350
194.06180,0.63551
193.82073,0.62879
193.57966,0.62448
193.33859,0.62065
193.09752,0.61498
192.85645,0.60756
192.61537,0.60048
192.37430,0.59545
192.13323,0.59260
191.89216,0.59119
191.65109,0.59057
191.41002,0.59007
191.16895,0.58881
190.92788,0.58634
190.68681,0.58261
190.44574,0.57796
190.20467,0.57407
189.96360,0.57315
189.72253,0.57442
189.48146,0.57358
189.24039,0.56844
188.99932,0.56282
188.75825,0.56117
188.51718,0.56229
188.27610,0.56145
188.03503,0.55714
187.79396,0.55269
187.55289,0.55111
187.31182,0.55151
187.07075,0.55129
186.82968,0.55019
186.58861,0.55044
186.34754,0.55296
186.10647,0.55550
185.86540,0.55553
185.62433,0.55430
185.38326,0.55552
185.14219,0.55967
184.90112,0.56274
184.66005,0.56221
184.41898,0.56124
184.17791,0.56356
183.93683,0.56767
183.69576,0.56969
183.45469,0.56946
183.21362,0.56964
182.97255,0.57085
182.73148,0.57190
182.49041,0.57314
182.24934,0.57539
182.00827,0.57719
181.76720,0.57723
181.52613,0.57717
181.28506,0.57905
181.04399,0.58220
180.80292,0.58513
180.56185,0.58782
180.32078,0.59073
180.07971,0.59387
179.83864,0.59793
179.59756,0.60391
179.35649,0.61105
179.11542,0.61748
178.87435,0.62336
178.63328,0.63023
178.39221,0.63746
178.15114,0.64378
177.91007,0.65138
177.66900,0.66368
177.42793,0.68000
177.18686,0.69644
176.94579,0.71066
176.70472,0.72335
176.46365,0.73763
176.22258,0.75713
175.98151,0.78157
175.74044,0.80653
175.49937,0.83043
175.25829,0.85619
175.01722,0.88411
174.77615,0.91015
174.53508,0.93169
174.29401,0.94864
174.05294,0.96198
173.81187,0.97376
173.57080,0.98603
173.32973,1.00005
173.08866,1.01650
172.84759,1.03449
172.60652,1.05262
172.36545,1.07107
172.12438,1.08904
171.88331,1.10327
171.64224,1.11251
171.40117,1.11829
171.16010,1.11966
170.91902,1.11317
170.67795,1.09798
170.43688,1.07677
170.19581,1.05390
169.95474,1.03510
169.71367,1.02475
169.47260,1.02198
169.23153,1.02196
168.99046,1.02189
168.74939,1.02243
168.50832,1.02279
168.26725,1.01876
168.02618,1.00828
167.78511,0.99510
167.54404,0.98394
167.30297,0.97687
167.06190,0.97634
166.82083,0.98555
166.57975,1.00298
166.33868,1.02118
166.09761,1.03307
165.85654,1.03641
165.61547,1.03313
165.37440,1.02763
165.13333,1.02507
164.89226,1.02891
164.65119,1.03924
164.41012,1.05402
164.16905,1.07100
163.92798,1.08845
163.68691,1.10636
163.44584,1.12600
163.20477,1.14631
162.96370,1.16176
162.72263,1.16841
162.48156,1.17110
162.24048,1.17864
161.99941,1.19461
161.75834,1.21549
161.51727,1.23415
161.27620,1.24313
161.03513,1.23842
160.79406,1.22341
160.55299,1.20657
160.31192,1.19408
160.07085,1.18611
159.82978,1.17902
159.58871,1.17075
159.34764,1.16358
159.10657,1.15991
158.86550,1.15742
158.62443,1.15172
158.38336,1.14358
158.14229,1.13824
157.90121,1.13707
157.66014,1.13611
157.41907,1.13275
157.17800,1.12854
156.93693,1.12495
156.69586,1.11990
156.45479,1.11062
156.21372,1.09909
155.97265,1.09131
155.73158,1.08990
155.49051,1.08895
155.24944,1.07763
155.00837,1.05256
154.76730,1.02349
154.52623,1.00221
154.28516,0.99084
154.04409,0.98248
153.80302,0.96954
153.56194,0.94934
153.32087,0.92323
153.07980,0.89522
152.83873,0.87106
152.59766,0.85427
152.35659,0.84198
152.11552,0.82672
151.87445,0.80369
151.63338,0.77587
151.39231,0.75064
151.15124,0.73325
150.91017,0.72308
150.66910,0.71424
150.42803,0.70052
150.18696,0.68128
149.94589,0.66087
149.70482,0.64299
149.46375,0.62804
149.22267,0.61472
148.98160,0.60245
148.74053,0.59192
148.49946,0.58415
148.25839,0.57943
148.01732,0.57675
147.77625,0.57392
147.53518,0.56947
147.29411,0.56464
147.05304,0.56227
146.81197,0.56361
146.57090,0.56681
146.32983,0.56904
146.08876,0.57014
145.84769,0.57273
145.60662,0.57864
145.36555,0.58672
145.12448,0.59464
144.88340,0.60141
144.64233,0.60733
144.40126,0.61260
144.16019,0.61688
143.91912,0.61951
143.67805,0.61988
143.43698,0.61834
143.19591,0.61559
142.95484,0.61096
142.71377,0.60251
142.47270,0.58994
142.23163,0.57640
141.99056,0.56577
141.74949,0.55854
141.50842,0.55203
141.26735,0.54460
141.02628,0.53784
140.78521,0.53368
140.54413,0.53173
140.30306,0.53044
140.06199,0.52940
139.82092,0.52913
139.57985,0.53008
139.33878,0.53266
139.09771,0.53735
138.85664,0.54435
138.61557,0.55323
138.37450,0.56296
138.13343,0.57305
137.89236,0.58447
137.65129,0.59857
137.41022,0.61507
137.16915,0.63236
136.92808,0.65038
136.68701,0.67147
136.44594,0.69738
136.20486,0.72703
135.96379,0.75834
135.72272,0.79044
135.48165,0.82320
135.24058,0.85675
134.99951,0.89249
134.75844,0.93090
134.51737,0.96806
134.27630,0.99959
134.03523,1.02754
133.79416,1.05711
133.55309,1.08926
133.31202,1.12210
133.07095,1.15421
132.82988,1.18329
132.58881,1.20645
132.34774,1.22181
132.10667,1.22901
131.86559,1.22955
131.62452,1.22570
131.38345,1.21693
131.14238,1.20255
130.90131,1.18550
130.66024,1.16460
130.41917,1.13207
130.17810,1.08654
129.93703,1.03737
129.69596,0.99203
129.45489,0.94996
129.21382,0.90849
128.97275,0.86725
128.73168,0.82704
128.49061,0.78833
128.24954,0.75082
128.00847,0.71406
127.76740,0.67927
127.52632,0.64923
127.28525,0.62534
127.04418,0.60616
126.80311,0.58924
126.56204,0.57311
126.32097,0.55752
126.07990,0.54304
125.83883,0.53013
125.59776,0.51785
125.35669,0.50455
125.11562,0.49014
124.87455,0.47661
124.63348,0.46554
124.39241,0.45628
124.15134,0.44743
123.91027,0.43894
123.66920,0.43185
123.42812,0.42654
123.18705,0.42223
122.94598,0.41839
122.70491,0.41554
122.46384,0.41454
122.22277,0.41573
121.98170,0.41904
121.74063,0.42407
121.49956,0.43005
121.25849,0.43644
121.01742,0.44408
120.77635,0.45506
120.53528,0.47029
120.29421,0.48777
120.05314,0.50491
119.81207,0.52199
119.57100,0.54139
119.32993,0.56389
119.08885,0.58759
118.84778,0.61085
118.60671,0.63507
118.36564,0.66342
118.12457,0.69620
117.88350,0.72856
117.64243,0.75479
117.40136,0.77451
117.16029,0.79205
116.91922,0.81101
116.67815,0.83016
116.43708,0.84338
116.19601,0.84446
115.95494,0.83338
115.71387,0.81468
115.47280,0.79054
115.23173,0.76138
114.99066,0.73081
114.74958,0.70462
114.50851,0.68555
114.26744,0.67178
114.02637,0.66126
113.78530,0.65528
113.54423,0.65580
113.30316,0.66240
113.06209,0.67380
112.82102,0.68914
112.57995,0.70645
112.33888,0.72159
112.09781,0.73047
111.85674,0.73299
111.61567,0.73331
111.37460,0.73509
111.13353,0.73834
110.89246,0.74335
110.65139,0.75332
110.41031,0.76786
110.16924,0.77837
109.92817,0.77530
109.68710,0.75715
109.44603,0.72984
109.20496,0.69928
108.96389,0.66742
108.72282,0.63633
108.48175,0.61042
108.24068,0.59176
107.99961,0.57722
107.75854,0.56182
107.51747,0.54383
107.27640,0.52452
107.03533,0.50434
106.79426,0.48292
106.55319,0.46157
106.31212,0.44389
106.07104,0.43310
105.82997,0.42768
105.58890,0.42064
105.34783,0.40644
105.10676,0.38712
104.86569,0.36887
104.62462,0.35521
104.38355,0.34619
104.14248,0.34083
103.90141,0.33751
103.66034,0.33307
103.41927,0.32437
103.17820,0.31180
102.93713,0.30008
102.69606,0.29478
102.45499,0.29767
102.21392,0.30423
101.97285,0.30639
101.73177,0.29961
101.49070,0.28697
101.24963,0.27569
101.00856,0.27122
100.76749,0.27384
100.52642,0.27770
100.28535,0.27525
100.04428,0.26557
99.80321,0.25556
99.56214,0.25200
99.32107,0.25528
99.08000,0.25925
98.83893,0.25745
98.59786,0.25029
98.35679,0.24413
98.11572,0.24436
97.87465,0.25037
97.63358,0.25565
97.39250,0.25524
97.15143,0.25245
96.91036,0.25445
96.66929,0.26304
96.42822,0.27279
96.18715,0.27831
95.94608,0.28119
95.70501,0.28745
95.46394,0.29938
95.22287,0.31222
94.98180,0.31941
94.74073,0.32159
94.49966,0.32534
94.25859,0.33334
94.01752,0.34009
93.77645,0.33890
93.53538,0.33287
93.29431,0.33206
93.05323,0.33926
92.81216,0.34573
92.57109,0.34522
92.33002,0.34387
92.08895,0.34816
91.84788,0.35449
91.60681,0.35766
91.36574,0.36331
91.12467,0.37963
90.88360,0.40381
90.64253,0.42762
90.40146,0.45444
90.16039,0.49457
89.91932,0.54557
89.67825,0.59622
89.43718,0.64546
89.19611,0.69558
88.95504,0.73761
88.71396,0.76363
88.47289,0.77181
88.23182,0.75540
87.99075,0.71541
87.74968,0.66529
87.50861,0.61265
87.26754,0.55811
87.02647,0.50482
86.78540,0.45750
86.54433,0.41839
86.30326,0.38795
86.06219,0.36417
85.82112,0.34233
85.58005,0.31982
85.33898,0.29829
85.09791,0.27937
84.85684,0.26264
84.61577,0.24776
84.37469,0.23479
84.13362,0.22350
83.89255,0.21403
83.65148,0.20718
83.41041,0.20269
83.16934,0.19864
82.92827,0.19353
82.68720,0.18821
82.44613,0.18426
82.20506,0.18149
81.96399,0.17873
81.72292,0.17615
81.48185,0.17502
81.24078,0.17598
80.99971,0.17824
80.75864,0.17993
80.51757,0.17961
80.27650,0.17780
80.03542,0.17595
79.79435,0.17457
79.55328,0.17302
79.31221,0.17039
79.07114,0.16619
78.83007,0.16157
78.58900,0.15906
78.34793,0.15939
78.10686,0.16000
77.86579,0.15821
77.62472,0.15416
77.38365,0.14987
77.14258,0.14677
76.90151,0.14516
76.66044,0.14476
76.41937,0.14516
76.17830,0.14587
75.93723,0.14645
75.69615,0.14670
75.45508,0.14628
75.21401,0.14488
74.97294,0.14293
74.73187,0.14147
74.49080,0.14119
74.24973,0.14209
74.00866,0.14412
73.76759,0.14721
73.52652,0.15057
73.28545,0.15249
73.04438,0.15186
72.80331,0.14991
72.56224,0.14934
72.32117,0.15142
72.08010,0.15440
71.83903,0.15529
71.59796,0.15304
71.35688,0.14947
71.11581,0.14754
70.87474,0.15011
70.63367,0.15956
70.39260,0.17663
70.15153,0.19992
69.91046,0.22716
69.66939,0.25539
69.42832,0.27867
69.18725,0.28876
68.94618,0.28186
68.70511,0.26235
68.46404,0.23799
68.22297,0.21465
67.98190,0.19536
67.74083,0.18047
67.49976,0.16809
67.25869,0.15619
67.01761,0.14498
66.77654,0.13636
66.53547,0.13105
66.29440,0.12762
66.05333,0.12464
65.81226,0.12273
65.57119,0.12401
65.33012,0.12993
65.08905,0.13983
64.84798,0.15178
64.60691,0.16470
64.36584,0.17849
64.12477,0.19143
63.88370,0.19993
63.64263,0.20209
63.40156,0.19919
63.16049,0.19302
62.91942,0.18446
62.67834,0.17430
62.43727,0.16294
62.19620,0.15041
61.95513,0.13758
61.71406,0.12599
61.47299,0.11604
61.23192,0.10733
60.99085,0.10049
60.74978,0.09745
60.50871,0.09950
60.26764,0.10583
60.02657,0.11449
59.78550,0.12406
59.54443,0.13417
59.30336,0.14530
59.06229,0.15829
58.82122,0.17205
58.58015,0.18223
58.33907,0.18513
58.09800,0.18084
57.85693,0.16985
57.61586,0.15148
57.37479,0.12824
57.13372,0.10707
56.89265,0.09439
56.65158,0.09225
56.41051,0.09992
56.16944,0.11719
55.92837,0.14318
55.68730,0.17161
55.44623,0.18893
55.20516,0.18364
54.96409,0.15953
54.72302,0.13013
54.48195,0.10651
54.24088,0.09561
53.99980,0.10163
53.75873,0.12547
53.51766,0.16245
53.27659,0.19748
53.03552,0.20539
52.79445,0.17752
52.55338,0.13632
52.31231,0.10448
52.07124,0.09310
51.83017,0.10844
51.58910,0.14856
51.34803,0.18339
51.10696,0.17016
50.86589,0.12905
50.62482,0.10262
50.38375,0.10758
50.14268,0.14760
49.90161,0.20427
49.66053,0.21346
49.41946,0.16044
49.17839,0.11373
48.93732,0.10644
48.69625,0.13628
48.45518,0.17110
48.21411,0.16202
47.97304,0.12736
47.73197,0.11633
47.49090,0.13915
47.24983,0.16023
47.00876,0.13065
46.76769,0.08738
46.52662,0.08467
46.28555,0.11870
46.04448,0.13438
45.80341,0.11125
45.56234,0.10471
45.32126,0.13433
45.08019,0.15896
44.83912,0.14774
44.59805,0.13607
44.35698,0.14026
44.11591,0.13781
43.87484,0.12591
43.63377,0.12617
43.39270,0.13933
43.15163,0.15294
42.91056,0.16469
42.66949,0.17313
42.42842,0.17402
42.18735,0.16965
41.94628,0.16207
41.70521,0.15250
41.46414,0.14835
41.22307,0.15232
40.98199,0.15823
40.74092,0.16420
40.49985,0.17326
40.25878,0.18371
40.01771,0.18919
39.77664,0.18414
39.53557,0.16918
39.29450,0.15672
39.05343,0.16111
38.81236,0.18126
38.57129,0.20282
38.33022,0.21523
38.08915,0.22059
37.84808,0.22555
37.60701,0.22815
37.36594,0.22035
37.12487,0.20343
36.88380,0.18850
36.64272,0.18307
36.40165,0.18383
36.16058,0.18137
35.91951,0.17426
35.67844,0.17363
35.43737,0.18567
35.19630,0.19723
34.95523,0.19609
34.71416,0.19211
34.47309,0.19656
34.23202,0.20169
33.99095,0.19388
33.74988,0.17413
33.50881,0.15689
33.26774,0.15595
33.02667,0.17473
32.78560,0.20461
32.54453,0.22931
32.30345,0.23445
32.06238,0.22079
31.82131,0.20178
31.58024,0.18776
31.33917,0.17962
31.09810,0.17457
30.85703,0.16622
30.61596,0.14938
30.37489,0.12985
30.13382,0.11452
29.89275,0.09936
29.65168,0.07844
29.41061,0.05705
29.16954,0.04539
28.92847,0.04475
28.68740,0.04613
28.44633,0.04283
28.20526,0.03850
27.96418,0.03567
27.72311,0.02859
27.48204,0.01281
27.24097,-0.01031
26.99990,-0.03495
26.75883,-0.04818
26.51776,-0.03990
26.27669,-0.01830
26.03562,0.00251
25.79455,0.02052
25.55348,0.03613
25.31241,0.03916
25.07134,0.01816
24.83027,-0.02225
24.58920,-0.06405
24.34813,-0.09755
24.10706,-0.12547
23.86599,-0.15260
23.62491,-0.18453
23.38384,-0.23006
23.14277,-0.28872
22.90170,-0.32821
22.66063,-0.31131
22.41956,-0.24602
22.17849,-0.17161
21.93742,-0.13191
21.69635,-0.14751
21.45528,-0.19892
21.21421,-0.24522
20.97314,-0.27160
20.73207,-0.28349
20.49100,-0.27854
20.24993,-0.26763
20.00886,-0.27395
19.76779,-0.30284
19.52672,-0.34380
19.28564,-0.38834
19.04457,-0.41193
18.80350,-0.41088
18.56243,-0.41314
18.32136,-0.43068
18.08029,-0.43510
17.83922,-0.40350
17.59815,-0.36843
17.35708,-0.35837
17.11601,-0.36665
16.87494,-0.37660
16.63387,-0.38600
16.39280,-0.39157
16.15173,-0.38204
15.91066,-0.35421
15.66959,-0.33102
15.42852,-0.33079
15.18745,-0.34323
14.94637,-0.35315
14.70530,-0.36116
14.46423,-0.37828
14.22316,-0.38339
13.98209,-0.35542
13.74102,-0.33950
13.49995,-0.34899
13.25888,-0.37621
13.01781,-0.39555
12.77674,-0.38710
12.53567,-0.36940
12.29460,-0.35836
12.05353,-0.34414
11.81246,-0.33127
11.57139,-0.35041
11.33032,-0.39526
11.08925,-0.42602
10.84818,-0.46082
10.60710,-0.49300
10.36603,-0.52184
10.12496,-0.52291
9.88389,-0.47073
9.64282,-0.41454
9.40175,-0.41167
9.16068,-0.45502
8.91961,-0.45390
8.67854,-0.42732
8.43747,-0.39564
8.19640,-0.36903
7.95533,-0.35287
7.71426,-0.35505
7.47319,-0.36741
7.23212,-0.38732
6.99105,-0.41046
6.74998,-0.41832
6.50891,-0.39240
6.26783,-0.35709
6.02676,-0.36305
5.78569,-0.39637
5.54462,-0.41414
5.30355,-0.40751
5.06248,-0.38959
4.82141,-0.37102
4.58034,-0.36628
4.33927,-0.37992
4.09820,-0.38450
3.85713,-0.37178
3.61606,-0.37367
3.37499,-0.37518
3.13392,-0.36682
2.89285,-0.38896
2.65178,-0.43663
2.41071,-0.47699
2.16964,-0.47417
1.92856,-0.43506
1.68749,-0.39738
1.44642,-0.38768
1.20535,-0.39927
0.96428,-0.40790
0.72321,-0.41966
0.48214,-0.44107
0.24107,-0.42728
-0.00000,-0.10705
