399.69498,1.47997
399.45391,1.47252
399.21284,1.46987
398.97177,1.46907
398.73070,1.46281
398.48963,1.44931
398.24856,1.43644
398.00749,1.43233
397.76642,1.43688
397.52535,1.44460
397.28428,1.45030
397.04321,1.45188
396.80214,1.45228
396.56107,1.45592
396.32000,1.46082
396.07892,1.46159
395.83785,1.45867
395.59678,1.45634
395.35571,1.45489
395.11464,1.45194
394.87357,1.44718
394.63250,1.44243
394.39143,1.44243
394.15036,1.45229
393.90929,1.46804
393.66822,1.47552
393.42715,1.46663
393.18608,1.45056
392.94501,1.44186
392.70394,1.44617
392.46287,1.45828
392.22180,1.46681
391.98073,1.46329
391.73965,1.45137
391.49858,1.44064
391.25751,1.43333
391.01644,1.42394
390.77537,1.40920
390.53430,1.39505
390.29323,1.39001
390.05216,1.39550
389.81109,1.40736
389.57002,1.41906
389.32895,1.42308
389.08788,1.41647
388.84681,1.40350
388.60574,1.39076
388.36467,1.38166
388.12360,1.37612
387.88253,1.37314
387.64146,1.37092
387.40038,1.36682
387.15931,1.35966
386.91824,1.35092
386.67717,1.34458
386.43610,1.34405
386.19503,1.34510
385.95396,1.33671
385.71289,1.31551
385.47182,1.29230
385.23075,1.27899
384.98968,1.27817
384.74861,1.28532
384.50754,1.29181
384.26647,1.28753
384.02540,1.27047
383.78433,1.25048
383.54326,1.23778
383.30219,1.23510
383.06111,1.24130
382.82004,1.25198
382.57897,1.25596
382.33790,1.24392
382.09683,1.22121
381.85576,1.20212
381.61469,1.19469
381.37362,1.19593
381.13255,1.19816
380.89148,1.19664
380.65041,1.19129
380.40934,1.18511
380.16827,1.18236
379.92720,1.18517
379.68613,1.19112
379.44506,1.19680
379.20399,1.20125
378.96292,1.20365
378.72184,1.20396
378.48077,1.20669
378.23970,1.21666
377.99863,1.23459
377.75756,1.25714
377.51649,1.27672
377.27542,1.28539
377.03435,1.28366
376.79328,1.28094
376.55221,1.28513
376.31114,1.29494
376.07007,1.30376
375.82900,1.30606
375.58793,1.30082
375.34686,1.29493
375.10579,1.29657
374.86472,1.30520
374.62365,1.31490
374.38257,1.32348
374.14150,1.33118
373.90043,1.33541
373.65936,1.33278
373.41829,1.32425
373.17722,1.31566
372.93615,1.31374
372.69508,1.32214
372.45401,1.33867
372.21294,1.35424
371.97187,1.35858
371.73080,1.35125
371.48973,1.34265
371.24866,1.34073
371.00759,1.34190
370.76652,1.33787
370.52545,1.32734
370.28437,1.31522
370.04330,1.30503
369.80223,1.29861
369.56116,1.29764
369.32009,1.30108
369.07902,1.30566
368.83795,1.31055
368.59688,1.31671
368.35581,1.32216
368.11474,1.32312
367.87367,1.31803
367.63260,1.30777
367.39153,1.29474
367.15046,1.28218
366.90939,1.27273
366.66832,1.26766
366.42725,1.26655
366.18618,1.26693
365.94510,1.26550
365.70403,1.26123
365.46296,1.25655
365.22189,1.25426
364.98082,1.25414
364.73975,1.25499
364.49868,1.25785
364.25761,1.26319
364.01654,1.26677
363.77547,1.26405
363.53440,1.25789
363.29333,1.25516
363.05226,1.25741
362.81119,1.26078
362.57012,1.26166
362.32905,1.25811
362.08798,1.24926
361.84691,1.23659
361.60583,1.22384
361.36476,1.21473
361.12369,1.21161
360.88262,1.21458
360.64155,1.22048
360.40048,1.22475
360.15941,1.22601
359.91834,1.22679
359.67727,1.22849
359.43620,1.22882
359.19513,1.22541
358.95406,1.21886
358.71299,1.21157
358.47192,1.20627
358.23085,1.20539
357.98978,1.20948
357.74871,1.21628
357.50764,1.22273
357.26656,1.22668
357.02549,1.22653
356.78442,1.22167
356.54335,1.21424
356.30228,1.20824
356.06121,1.20576
355.82014,1.20622
355.57907,1.20769
355.33800,1.20693
355.09693,1.20241
354.85586,1.19709
354.61479,1.19429
354.37372,1.19281
354.13265,1.18849
353.89158,1.17969
353.65051,1.16999
353.40944,1.16564
353.16837,1.17023
352.92729,1.18075
352.68622,1.18912
352.44515,1.18995
352.20408,1.18650
351.96301,1.18578
351.72194,1.18858
351.48087,1.18965
351.23980,1.18671
350.99873,1.18319
350.75766,1.18249
350.51659,1.18418
350.27552,1.18615
350.03445,1.18705
349.79338,1.18596
349.55231,1.18305
349.31124,1.18080
349.07017,1.18201
348.82910,1.18574
348.58802,1.18822
348.34695,1.18843
348.10588,1.18923
347.86481,1.19183
347.62374,1.19363
347.38267,1.19339
347.14160,1.19384
346.90053,1.19676
346.65946,1.19923
346.41839,1.19754
346.17732,1.19253
345.93625,1.18900
345.69518,1.19029
345.45411,1.19573
345.21304,1.20277
344.97197,1.20984
344.73090,1.21648
344.48983,1.22163
344.24875,1.22411
344.00768,1.22444
343.76661,1.22461
343.52554,1.22630
343.28447,1.23025
343.04340,1.23598
342.80233,1.24064
342.56126,1.24083
342.32019,1.23760
342.07912,1.23561
341.83805,1.23743
341.59698,1.24205
341.35591,1.24854
341.11484,1.25710
340.87377,1.26557
340.63270,1.26894
340.39163,1.26549
340.15056,1.26016
339.90948,1.25950
339.66841,1.26521
339.42734,1.27335
339.18627,1.27914
338.94520,1.28170
338.70413,1.28462
338.46306,1.29166
338.22199,1.30229
337.98092,1.31127
337.73985,1.31394
337.49878,1.31307
337.25771,1.31530
337.01664,1.32089
336.77557,1.32340
336.53450,1.31820
336.29343,1.30636
336.05236,1.29199
335.81129,1.28146
335.57021,1.28056
335.32914,1.28742
335.08807,1.29316
334.84700,1.29207
334.60593,1.28658
334.36486,1.28242
334.12379,1.28150
333.88272,1.28054
333.64165,1.27675
333.40058,1.27102
333.15951,1.26466
332.91844,1.25910
332.67737,1.25802
332.43630,1.26240
332.19523,1.26457
331.95416,1.25624
331.71309,1.24195
331.47202,1.23272
331.23094,1.23050
330.98987,1.22977
330.74880,1.22907
330.50773,1.22976
330.26666,1.22745
330.02559,1.21843
329.78452,1.21056
329.54345,1.21256
329.30238,1.21912
329.06131,1.21868
328.82024,1.21118
328.57917,1.20573
328.33810,1.20499
328.09703,1.20354
327.85596,1.19908
327.61489,1.19545
327.37382,1.19454
327.13275,1.19284
326.89167,1.18809
326.65060,1.18320
326.40953,1.18077
326.16846,1.18058
325.92739,1.18415
325.68632,1.19341
325.44525,1.20424
325.20418,1.21101
324.96311,1.21578
324.72204,1.22274
324.48097,1.22902
324.23990,1.22930
323.99883,1.22543
323.75776,1.22149
323.51669,1.21434
323.27562,1.19985
323.03455,1.18245
322.79348,1.17051
322.55240,1.16785
322.31133,1.17330
322.07026,1.18246
321.82919,1.18932
321.58812,1.19234
321.34705,1.19508
321.10598,1.19950
320.86491,1.20535
320.62384,1.21366
320.38277,1.22372
320.14170,1.22872
319.90063,1.22134
319.65956,1.20374
319.41849,1.18729
319.17742,1.18094
318.93635,1.18315
318.69528,1.18644
318.45421,1.18866
318.21313,1.19457
317.97206,1.20453
317.73099,1.21019
317.48992,1.20681
317.24885,1.20134
317.00778,1.20103
316.76671,1.20397
316.52564,1.20515
316.28457,1.20558
316.04350,1.21090
315.80243,1.22142
315.56136,1.22895
315.32029,1.22745
315.07922,1.22093
314.83815,1.21589
314.59708,1.21360
314.35601,1.21375
314.11494,1.21905
313.87386,1.23067
313.63279,1.24284
313.39172,1.24780
313.15065,1.24470
312.90958,1.23970
312.66851,1.23948
312.42744,1.24706
312.18637,1.26002
311.94530,1.27101
311.70423,1.27332
311.46316,1.26926
311.22209,1.26809
310.98102,1.27223
310.73995,1.27263
310.49888,1.26212
310.25781,1.24735
310.01674,1.24057
309.77567,1.24596
309.53459,1.25862
309.29352,1.27037
309.05245,1.27555
308.81138,1.27519
308.57031,1.27519
308.32924,1.27775
308.08817,1.27927
307.84710,1.27677
307.60603,1.27259
307.36496,1.27284
307.12389,1.28084
306.88282,1.29136
306.64175,1.29497
306.40068,1.28934
306.15961,1.27971
305.91854,1.27161
305.67747,1.26877
305.43640,1.27197
305.19532,1.27763
304.95425,1.28157
304.71318,1.28337
304.47211,1.28389
304.23104,1.28242
303.98997,1.27862
303.74890,1.27320
303.50783,1.26687
303.26676,1.26173
303.02569,1.26060
302.78462,1.26323
302.54355,1.26639
302.30248,1.26806
302.06141,1.26872
301.82034,1.26936
301.57927,1.27111
301.33820,1.27509
301.09713,1.28072
300.85605,1.28430
300.61498,1.28063
300.37391,1.26861
300.13284,1.25434
299.89177,1.24650
299.65070,1.24752
299.40963,1.24969
299.16856,1.24376
298.92749,1.23075
298.68642,1.21999
298.44535,1.21706
298.20428,1.21790
297.96321,1.21660
297.72214,1.21554
297.48107,1.22066
297.24000,1.22993
296.99893,1.23424
296.75786,1.23028
296.51678,1.22422
296.27571,1.22010
296.03464,1.21530
295.79357,1.21002
295.55250,1.21065
295.31143,1.21842
295.07036,1.22400
294.82929,1.21963
294.58822,1.20948
294.34715,1.20178
294.10608,1.19853
293.86501,1.19699
293.62394,1.19585
293.38287,1.19603
293.14180,1.19672
292.90073,1.19413
292.65966,1.18644
292.41859,1.17766
292.17751,1.17376
291.93644,1.17649
291.69537,1.18208
291.45430,1.18470
291.21323,1.18125
290.97216,1.17336
290.73109,1.16485
290.49002,1.15814
290.24895,1.15408
290.00788,1.15324
289.76681,1.15439
289.52574,1.15393
289.28467,1.15041
289.04360,1.14708
288.80253,1.14703
288.56146,1.14904
288.32039,1.14959
288.07932,1.14641
287.83824,1.13982
287.59717,1.13291
287.35610,1.13007
287.11503,1.13332
286.87396,1.13981
286.63289,1.14444
286.39182,1.14558
286.15075,1.14536
285.90968,1.14365
285.66861,1.13706
285.42754,1.12615
285.18647,1.11728
284.94540,1.11473
284.70433,1.11657
284.46326,1.11935
284.22219,1.12222
283.98112,1.12462
283.74005,1.12413
283.49897,1.11973
283.25790,1.11457
283.01683,1.11300
282.77576,1.11542
282.53469,1.11768
282.29362,1.11618
282.05255,1.11208
281.81148,1.10872
281.57041,1.10699
281.32934,1.10538
281.08827,1.10320
280.84720,1.10175
280.60613,1.10243
280.36506,1.10474
280.12399,1.10680
279.88292,1.10787
279.64185,1.10885
279.40078,1.11011
279.15970,1.11042
278.91863,1.10911
278.67756,1.10720
278.43649,1.10532
278.19542,1.10296
277.95435,1.10093
277.71328,1.10199
277.47221,1.10705
277.23114,1.11319
276.99007,1.11674
276.74900,1.11661
276.50793,1.11340
276.26686,1.10833
276.02579,1.10411
275.78472,1.10395
275.54365,1.10850
275.30258,1.11479
275.06151,1.11852
274.82043,1.11805
274.57936,1.11594
274.33829,1.11525
274.09722,1.11572
273.85615,1.11551
273.61508,1.11507
273.37401,1.11657
273.13294,1.12057
272.89187,1.12549
272.65080,1.13015
272.40973,1.13441
272.16866,1.13728
271.92759,1.13692
271.68652,1.13360
271.44545,1.13052
271.20438,1.13055
270.96331,1.13352
270.72224,1.13751
270.48116,1.14130
270.24009,1.14439
269.99902,1.14612
269.75795,1.14648
269.51688,1.14675
269.27581,1.14886
269.03474,1.15388
268.79367,1.16053
268.55260,1.16585
268.31153,1.16874
268.07046,1.17152
267.82939,1.17634
267.58832,1.18151
267.34725,1.18338
267.10618,1.18124
266.86511,1.17839
266.62404,1.17842
266.38297,1.18163
266.14189,1.18637
265.90082,1.19285
265.65975,1.20321
265.41868,1.21728
265.17761,1.23051
264.93654,1.23812
264.69547,1.24097
264.45440,1.24481
264.21333,1.25362
263.97226,1.26613
263.73119,1.27832
263.49012,1.28794
263.24905,1.29644
263.00798,1.30651
262.76691,1.31910
262.52584,1.33392
262.28477,1.35035
262.04370,1.36487
261.80262,1.37279
261.56155,1.37575
261.32048,1.38162
261.07941,1.39492
260.83834,1.41179
260.59727,1.42582
260.35620,1.43609
260.11513,1.44650
259.87406,1.46113
259.63299,1.48247
259.39192,1.51020
259.15085,1.54177
258.90978,1.57316
258.66871,1.60072
258.42764,1.62381
258.18657,1.64257
257.94550,1.65700
257.70443,1.66911
257.46335,1.68157
257.22228,1.69432
256.98121,1.70412
256.74014,1.70875
256.49907,1.71035
256.25800,1.71347
256.01693,1.72162
255.77586,1.73539
255.53479,1.75139
255.29372,1.76096
255.05265,1.75325
254.81158,1.72545
254.57051,1.68672
254.32944,1.65030
254.08837,1.62477
253.84730,1.61281
253.60623,1.61297
253.36516,1.61748
253.12408,1.61443
252.88301,1.59819
252.64194,1.57701
252.40087,1.56374
252.15980,1.56084
251.91873,1.56017
251.67766,1.55456
251.43659,1.54356
251.19552,1.52982
250.95445,1.51853
250.71338,1.51582
250.47231,1.51960
250.23124,1.52072
249.99017,1.51572
249.74910,1.51201
249.50803,1.51858
249.26696,1.53532
249.02589,1.55315
248.78481,1.56211
248.54374,1.55677
248.30267,1.53697
248.06160,1.50906
247.82053,1.48678
247.57946,1.48391
247.33839,1.50194
247.09732,1.52818
246.85625,1.54875
246.61518,1.56064
246.37411,1.56782
246.13304,1.57254
245.89197,1.57677
245.65090,1.58606
245.40983,1.60532
245.16876,1.63240
244.92769,1.66281
244.68661,1.70024
244.44554,1.74848
244.20447,1.79290
243.96340,1.81258
243.72233,1.81552
243.48126,1.82927
243.24019,1.85987
242.99912,1.88169
242.75805,1.86639
242.51698,1.81803
242.27591,1.76230
242.03484,1.71337
241.79377,1.66983
241.55270,1.62472
241.31163,1.57534
241.07056,1.52565
240.82949,1.48064
240.58842,1.44142
240.34734,1.40609
240.10627,1.37224
239.86520,1.33816
239.62413,1.30366
239.38306,1.27120
239.14199,1.24456
238.90092,1.22433
238.65985,1.20625
238.41878,1.18654
238.17771,1.16671
237.93664,1.15000
237.69557,1.13609
237.45450,1.12233
237.21343,1.10741
236.97236,1.09132
236.73129,1.07501
236.49022,1.06076
236.24915,1.05041
236.00807,1.04330
235.76700,1.03707
235.52593,1.03018
235.28486,1.02219
235.04379,1.01268
234.80272,1.00166
234.56165,0.99113
234.32058,0.98429
234.07951,0.98158
233.83844,0.97935
233.59737,0.97443
233.35630,0.96822
233.11523,0.96327
232.87416,0.95878
232.63309,0.95311
232.39202,0.94702
232.15095,0.94098
231.90988,0.93355
231.66880,0.92540
231.42773,0.92022
231.18666,0.91954
230.94559,0.92136
230.70452,0.92379
230.46345,0.92508
230.22238,0.92208
229.98131,0.91411
229.74024,0.90549
229.49917,0.90054
229.25810,0.89913
229.01703,0.89826
228.77596,0.89558
228.53489,0.89067
228.29382,0.88472
228.05275,0.87934
227.81168,0.87529
227.57061,0.87217
227.32953,0.86919
227.08846,0.86563
226.84739,0.86114
226.60632,0.85615
226.36525,0.85200
226.12418,0.84986
225.88311,0.84967
225.64204,0.85020
225.40097,0.85000
225.15990,0.84825
224.91883,0.84569
224.67776,0.84415
224.43669,0.84430
224.19562,0.84454
223.95455,0.84356
223.71348,0.84250
223.47241,0.84302
223.23134,0.84449
222.99026,0.84506
222.74919,0.84481
222.50812,0.84603
222.26705,0.85014
222.02598,0.85560
221.78491,0.85978
221.54384,0.86199
221.30277,0.86381
221.06170,0.86694
220.82063,0.87177
220.57956,0.87780
220.33849,0.88522
220.09742,0.89483
219.85635,0.90571
219.61528,0.91480
219.37421,0.92039
219.13314,0.92447
218.89207,0.92995
218.65099,0.93779
218.40992,0.94744
218.16885,0.95795
217.92778,0.96847
217.68671,0.97839
217.44564,0.98694
217.20457,0.99414
216.96350,1.00246
216.72243,1.01465
216.48136,1.02953
216.24029,1.04286
215.99922,1.05248
215.75815,1.06028
215.51708,1.06915
215.27601,1.07982
215.03494,1.09072
214.79387,1.10060
214.55280,1.11029
214.31172,1.12015
214.07065,1.12899
213.82958,1.13793
213.58851,1.15039
213.34744,1.16567
213.10637,1.17791
212.86530,1.18412
212.62423,1.18709
212.38316,1.19023
212.14209,1.19598
211.90102,1.20604
211.65995,1.21799
211.41888,1.22486
211.17781,1.22213
210.93674,1.21304
210.69567,1.20458
210.45460,1.20138
210.21353,1.20362
209.97245,1.20810
209.73138,1.21121
209.49031,1.21187
209.24924,1.21210
209.00817,1.21447
208.76710,1.21802
208.52603,1.21796
208.28496,1.21132
208.04389,1.20068
207.80282,1.19075
207.56175,1.18415
207.32068,1.18075
207.07961,1.17914
206.83854,1.17775
206.59747,1.17467
206.35640,1.16772
206.11533,1.15644
205.87426,1.14341
205.63318,1.13137
205.39211,1.12028
205.15104,1.10865
204.90997,1.09676
204.66890,1.08715
204.42783,1.08117
204.18676,1.07586
203.94569,1.06637
203.70462,1.05238
203.46355,1.03915
203.22248,1.03074
202.98141,1.02537
202.74034,1.01791
202.49927,1.00532
202.25820,0.98891
202.01713,0.97171
201.77606,0.95589
201.53499,0.94253
201.29391,0.93179
201.05284,0.92203
200.81177,0.91083
200.57070,0.89858
200.32963,0.88854
200.08856,0.88206
199.84749,0.87603
199.60642,0.86589
199.36535,0.85126
199.12428,0.83694
198.88321,0.82738
198.64214,0.82167
198.40107,0.81515
198.16000,0.80560
197.91893,0.79504
197.67786,0.78517
197.43679,0.77498
197.19572,0.76353
196.95464,0.75271
196.71357,0.74512
196.47250,0.74051
196.23143,0.73608
195.99036,0.72996
195.74929,0.72291
195.50822,0.71641
195.26715,0.71019
195.02608,0.70342
194.78501,0.69672
194.54394,0.69105
194.30287,0.68533
194.06180,0.67805
193.82073,0.67051
193.57966,0.66515
193.33859,0.66148
193.09752,0.65694
192.85645,0.65095
192.61537,0.64520
192.37430,0.64041
192.13323,0.63590
191.89216,0.63147
191.65109,0.62735
191.41002,0.62333
191.16895,0.61915
190.92788,0.61520
190.68681,0.61182
190.44574,0.60866
190.20467,0.60508
189.96360,0.60109
189.72253,0.59758
189.48146,0.59551
189.24039,0.59452
188.99932,0.59310
188.75825,0.59053
188.51718,0.58733
188.27610,0.58407
188.03503,0.58103
187.79396,0.57890
187.55289,0.57762
187.31182,0.57537
187.07075,0.57120
186.82968,0.56729
186.58861,0.56596
186.34754,0.56635
186.10647,0.56646
185.86540,0.56623
185.62433,0.56640
185.38326,0.56667
185.14219,0.56666
184.90112,0.56664
184.66005,0.56657
184.41898,0.56620
184.17791,0.56613
183.93683,0.56690
183.69576,0.56778
183.45469,0.56808
183.21362,0.56827
182.97255,0.56846
182.73148,0.56774
182.49041,0.56628
182.24934,0.56566
182.00827,0.56650
181.76720,0.56786
181.52613,0.56917
181.28506,0.57050
181.04399,0.57135
180.80292,0.57120
180.56185,0.57049
180.32078,0.56975
180.07971,0.56915
179.83864,0.56947
179.59756,0.57202
179.35649,0.57713
179.11542,0.58352
178.87435,0.58952
178.63328,0.59450
178.39221,0.59929
178.15114,0.60533
177.91007,0.61333
177.66900,0.62241
177.42793,0.63088
177.18686,0.63835
176.94579,0.64697
176.70472,0.65920
176.46365,0.67492
176.22258,0.69180
175.98151,0.70775
175.74044,0.72236
175.49937,0.73638
175.25829,0.75066
175.01722,0.76547
174.77615,0.78068
174.53508,0.79647
174.29401,0.81320
174.05294,0.83068
173.81187,0.84794
173.57080,0.86328
173.32973,0.87480
173.08866,0.88259
172.84759,0.88938
172.60652,0.89744
172.36545,0.90603
172.12438,0.91246
171.88331,0.91461
171.64224,0.91233
171.40117,0.90746
171.16010,0.90237
170.91902,0.89820
170.67795,0.89494
170.43688,0.89226
170.19581,0.88945
169.95474,0.88570
169.71367,0.88071
169.47260,0.87446
169.23153,0.86742
168.99046,0.86109
168.74939,0.85682
168.50832,0.85426
168.26725,0.85203
168.02618,0.84964
167.78511,0.84725
167.54404,0.84464
167.30297,0.84145
167.06190,0.83826
166.82083,0.83672
166.57975,0.83806
166.33868,0.84181
166.09761,0.84651
165.85654,0.85131
165.61547,0.85642
165.37440,0.86190
165.13333,0.86758
164.89226,0.87464
164.65119,0.88494
164.41012,0.89820
164.16905,0.91141
163.92798,0.92145
163.68691,0.92772
163.44584,0.93192
163.20477,0.93623
162.96370,0.94211
162.72263,0.94989
162.48156,0.95865
162.24048,0.96724
161.99941,0.97567
161.75834,0.98423
161.51727,0.99142
161.27620,0.99484
161.03513,0.99409
160.79406,0.99080
160.55299,0.98674
160.31192,0.98344
160.07085,0.98186
159.82978,0.98173
159.58871,0.98207
159.34764,0.98147
159.10657,0.97765
158.86550,0.96965
158.62443,0.96102
158.38336,0.95719
158.14229,0.95919
157.90121,0.96186
157.66014,0.95876
157.41907,0.94896
157.17800,0.93796
156.93693,0.93221
156.69586,0.93344
156.45479,0.93720
156.21372,0.93693
155.97265,0.93060
155.73158,0.92230
155.49051,0.91638
155.24944,0.91321
155.00837,0.91026
154.76730,0.90475
154.52623,0.89541
154.28516,0.88333
154.04409,0.87053
153.80302,0.85774
153.56194,0.84449
153.32087,0.83089
153.07980,0.81778
152.83873,0.80533
152.59766,0.79283
152.35659,0.77983
152.11552,0.76659
151.87445,0.75326
151.63338,0.73927
151.39231,0.72473
151.15124,0.71169
150.91017,0.70209
150.66910,0.69488
150.42803,0.68633
150.18696,0.67375
149.94589,0.65861
149.70482,0.64510
149.46375,0.63548
149.22267,0.62784
148.98160,0.61918
148.74053,0.60949
148.49946,0.60073
148.25839,0.59334
148.01732,0.58635
147.77625,0.57956
147.53518,0.57386
147.29411,0.56976
147.05304,0.56676
146.81197,0.56424
146.57090,0.56246
146.32983,0.56237
146.08876,0.56422
145.84769,0.56690
145.60662,0.56908
145.36555,0.57052
145.12448,0.57212
144.88340,0.57500
144.64233,0.57975
144.40126,0.58585
144.16019,0.59157
143.91912,0.59519
143.67805,0.59605
143.43698,0.59432
143.19591,0.59034
142.95484,0.58452
142.71377,0.57726
142.47270,0.56890
142.23163,0.55985
141.99056,0.55048
141.74949,0.54102
141.50842,0.53205
141.26735,0.52465
141.02628,0.51921
140.78521,0.51486
140.54413,0.51095
140.30306,0.50798
140.06199,0.50661
139.82092,0.50653
139.57985,0.50708
139.33878,0.50806
139.09771,0.50998
138.85664,0.51356
138.61557,0.51897
138.37450,0.52552
138.13343,0.53241
137.89236,0.53959
137.65129,0.54748
137.41022,0.55641
137.16915,0.56697
136.92808,0.57989
136.68701,0.59523
136.44594,0.61246
136.20486,0.63147
135.96379,0.65244
135.72272,0.67540
135.48165,0.70029
135.24058,0.72675
134.99951,0.75332
134.75844,0.77811
134.51737,0.80038
134.27630,0.82095
134.03523,0.84146
133.79416,0.86349
133.55309,0.88728
133.31202,0.91124
133.07095,0.93301
132.82988,0.95042
132.58881,0.96246
132.34774,0.97041
132.10667,0.97625
131.86559,0.98063
131.62452,0.98363
131.38345,0.98516
131.14238,0.98320
130.90131,0.97504
130.66024,0.96126
130.41917,0.94447
130.17810,0.92484
129.93703,0.90082
129.69596,0.87315
129.45489,0.84488
129.21382,0.81803
128.97275,0.79248
128.73168,0.76761
128.49061,0.74400
128.24954,0.72294
128.00847,0.70491
127.76740,0.68899
127.52632,0.67332
127.28525,0.65623
127.04418,0.63748
126.80311,0.61883
126.56204,0.60239
126.32097,0.58824
126.07990,0.57465
125.83883,0.56055
125.59776,0.54688
125.35669,0.53516
125.11562,0.52562
124.87455,0.51704
124.63348,0.50803
124.39241,0.49835
124.15134,0.48927
123.91027,0.48219
123.66920,0.47726
123.42812,0.47357
123.18705,0.47018
122.94598,0.46634
122.70491,0.46164
122.46384,0.45664
122.22277,0.45264
121.98170,0.45018
121.74063,0.44848
121.49956,0.44707
121.25849,0.44705
121.01742,0.44976
120.77635,0.45503
120.53528,0.46162
120.29421,0.46921
120.05314,0.47875
119.81207,0.49091
119.57100,0.50538
119.32993,0.52163
119.08885,0.53945
118.84778,0.55921
118.60671,0.58224
118.36564,0.60983
118.12457,0.64112
117.88350,0.67283
117.64243,0.70165
117.40136,0.72552
117.16029,0.74281
116.91922,0.75253
116.67815,0.75529
116.43708,0.75311
116.19601,0.74843
115.95494,0.74335
115.71387,0.73859
115.47280,0.73257
115.23173,0.72248
114.99066,0.70741
114.74958,0.69017
114.50851,0.67547
114.26744,0.66681
114.02637,0.66500
113.78530,0.66780
113.54423,0.67094
113.30316,0.67164
113.06209,0.67092
112.82102,0.67081
112.57995,0.67159
112.33888,0.67330
112.09781,0.67807
111.85674,0.68807
111.61567,0.70191
111.37460,0.71497
111.13353,0.72348
110.89246,0.72729
110.65139,0.72898
110.41031,0.73100
110.16924,0.73404
109.92817,0.73651
109.68710,0.73463
109.44603,0.72463
109.20496,0.70696
108.96389,0.68592
108.72282,0.66474
108.48175,0.64397
108.24068,0.62414
107.99961,0.60644
107.75854,0.59046
107.51747,0.57419
107.27640,0.55670
107.03533,0.53927
106.79426,0.52376
106.55319,0.51021
106.31212,0.49633
106.07104,0.48063
105.82997,0.46476
105.58890,0.45150
105.34783,0.44182
105.10676,0.43470
104.86569,0.42802
104.62462,0.41959
104.38355,0.40909
104.14248,0.39873
103.90141,0.39080
103.66034,0.38551
103.41927,0.38149
103.17820,0.37698
102.93713,0.37049
102.69606,0.36202
102.45499,0.35362
102.21392,0.34737
101.97285,0.34306
101.73177,0.33826
101.49070,0.33084
101.24963,0.32184
101.00856,0.31497
100.76749,0.31282
100.52642,0.31367
100.28535,0.31234
100.04428,0.30599
99.80321,0.29815
99.56214,0.29420
99.32107,0.29415
99.08000,0.29243
98.83893,0.28570
98.59786,0.27817
98.35679,0.27561
98.11572,0.27738
97.87465,0.27825
97.63358,0.27627
97.39250,0.27439
97.15143,0.27467
96.91036,0.27583
96.66929,0.27676
96.42822,0.27870
96.18715,0.28258
95.94608,0.28736
95.70501,0.29257
95.46394,0.29978
95.22287,0.30907
94.98180,0.31692
94.74073,0.32080
94.49966,0.32292
94.25859,0.32569
94.01752,0.32770
93.77645,0.32745
93.53538,0.32701
93.29431,0.32834
93.05323,0.33025
92.81216,0.33184
92.57109,0.33433
92.33002,0.33685
92.08895,0.33651
91.84788,0.33444
91.60681,0.33527
91.36574,0.34044
91.12467,0.34874
90.88360,0.36191
90.64253,0.38265
90.40146,0.40980
90.16039,0.44125
89.91932,0.47757
89.67825,0.51828
89.43718,0.55962
89.19611,0.59805
88.95504,0.63097
88.71396,0.65540
88.47289,0.66873
88.23182,0.66845
87.99075,0.65289
87.74968,0.62510
87.50861,0.59150
87.26754,0.55636
87.02647,0.52154
86.78540,0.48890
86.54433,0.46028
86.30326,0.43643
86.06219,0.41602
85.82112,0.39659
85.58005,0.37729
85.33898,0.35921
85.09791,0.34257
84.85684,0.32662
84.61577,0.31204
84.37469,0.30033
84.13362,0.29165
83.89255,0.28512
83.65148,0.27986
83.41041,0.27490
83.16934,0.26947
82.92827,0.26367
82.68720,0.25803
82.44613,0.25289
82.20506,0.24816
81.96399,0.24350
81.72292,0.23895
81.48185,0.23535
81.24078,0.23354
80.99971,0.23312
80.75864,0.23240
80.51757,0.22984
80.27650,0.22556
80.03542,0.22122
79.79435,0.21827
79.55328,0.21670
79.31221,0.21569
79.07114,0.21488
78.83007,0.21414
78.58900,0.21294
78.34793,0.21072
78.10686,0.20753
77.86579,0.20376
77.62472,0.19987
77.38365,0.19622
77.14258,0.19284
76.90151,0.18966
76.66044,0.18709
76.41937,0.18605
76.17830,0.18672
75.93723,0.18764
75.69615,0.18649
75.45508,0.18222
75.21401,0.17633
74.97294,0.17178
74.73187,0.17037
74.49080,0.17194
74.24973,0.17568
74.00866,0.18095
73.76759,0.18626
73.52652,0.18919
73.28545,0.18858
73.04438,0.18586
72.80331,0.18354
72.56224,0.18298
72.32117,0.18361
72.08010,0.18378
71.83903,0.18237
71.59796,0.17972
71.35688,0.17724
71.11581,0.17617
70.87474,0.17723
70.63367,0.18118
70.39260,0.18944
70.15153,0.20341
69.91046,0.22306
69.66939,0.24615
69.42832,0.26881
69.18725,0.28624
68.94618,0.29347
68.70511,0.28781
68.46404,0.27173
68.22297,0.25162
67.98190,0.23283
67.74083,0.21727
67.49976,0.20501
67.25869,0.19577
67.01761,0.18823
66.77654,0.18027
66.53547,0.17117
66.29440,0.16252
66.05333,0.15603
65.81226,0.15185
65.57119,0.14975
65.33012,0.15070
65.08905,0.15613
64.84798,0.16622
64.60691,0.17949
64.36584,0.19375
64.12477,0.20678
63.88370,0.21620
63.64263,0.21990
63.40156,0.21700
63.16049,0.20849
62.91942,0.19686
62.67834,0.18488
62.43727,0.17434
62.19620,0.16592
61.95513,0.16034
61.71406,0.15841
61.47299,0.15961
61.23192,0.16178
60.99085,0.16344
60.74978,0.16494
60.50871,0.16675
60.26764,0.16798
60.02657,0.16708
59.78550,0.16327
59.54443,0.15732
59.30336,0.15163
59.06229,0.14918
58.82122,0.15204
58.58015,0.16052
58.33907,0.17216
58.09800,0.18136
57.85693,0.18255
57.61586,0.17526
57.37479,0.16426
57.13372,0.15494
56.89265,0.15005
56.65158,0.15028
56.41051,0.15486
56.16944,0.16017
55.92837,0.16040
55.68730,0.15314
55.44623,0.14263
55.20516,0.13623
54.96409,0.13965
54.72302,0.15364
54.48195,0.17114
54.24088,0.17980
53.99980,0.17385
53.75873,0.16122
53.51766,0.15334
53.27659,0.15634
53.03552,0.17081
52.79445,0.19012
52.55338,0.20027
52.31231,0.19147
52.07124,0.17141
51.83017,0.15787
51.58910,0.16278
51.34803,0.18288
51.10696,0.19668
50.86589,0.18509
50.62482,0.16332
50.38375,0.16001
50.14268,0.18407
49.90161,0.21378
49.66053,0.21220
49.41946,0.18581
49.17839,0.17348
48.93732,0.18739
48.69625,0.20377
48.45518,0.19423
48.21411,0.17537
47.97304,0.17596
47.73197,0.19069
47.49090,0.19414
47.24983,0.18313
47.00876,0.17575
46.76769,0.17352
46.52662,0.16716
46.28555,0.16330
46.04448,0.16859
45.80341,0.17140
45.56234,0.16532
45.32126,0.16503
45.08019,0.17570
44.83912,0.18316
44.59805,0.18121
44.35698,0.17622
44.11591,0.16912
43.87484,0.16093
43.63377,0.15968
43.39270,0.16726
43.15163,0.17602
42.91056,0.18093
42.66949,0.18359
42.42842,0.18634
42.18735,0.18812
41.94628,0.18560
41.70521,0.17952
41.46414,0.17651
41.22307,0.18098
40.98199,0.19124
40.74092,0.20333
40.49985,0.21247
40.25878,0.21540
40.01771,0.21584
39.77664,0.22007
39.53557,0.22875
39.29450,0.23904
39.05343,0.24914
38.81236,0.25734
38.57129,0.26259
38.33022,0.26568
38.08915,0.26719
37.84808,0.26623
37.60701,0.26012
37.36594,0.24791
37.12487,0.23500
36.88380,0.22797
36.64272,0.22751
36.40165,0.23170
36.16058,0.23935
35.91951,0.24619
35.67844,0.24540
35.43737,0.23551
35.19630,0.22162
34.95523,0.20929
34.71416,0.19920
34.47309,0.18840
34.23202,0.17615
33.99095,0.16382
33.74988,0.15113
33.50881,0.13892
33.26774,0.13173
33.02667,0.13108
32.78560,0.13263
32.54453,0.13137
32.30345,0.12463
32.06238,0.11269
31.82131,0.09749
31.58024,0.08134
31.33917,0.06767
31.09810,0.05996
30.85703,0.05541
30.61596,0.04345
30.37489,0.01792
30.13382,-0.01189
29.89275,-0.03060
29.65168,-0.03490
29.41061,-0.03535
29.16954,-0.04122
28.92847,-0.05090
28.68740,-0.06070
28.44633,-0.07318
28.20526,-0.09132
27.96418,-0.11151
27.72311,-0.12581
27.48204,-0.12894
27.24097,-0.12398
26.99990,-0.11971
26.75883,-0.12143
26.51776,-0.12777
26.27669,-0.13505
26.03562,-0.14236
25.79455,-0.15133
25.55348,-0.16060
25.31241,-0.16411
25.07134,-0.15975
24.83027,-0.15466
24.58920,-0.15610
24.34813,-0.16163
24.10706,-0.16631
23.86599,-0.17339
23.62491,-0.18787
23.38384,-0.20581
23.14277,-0.21852
22.90170,-0.22725
22.66063,-0.23858
22.41956,-0.25105
22.17849,-0.25715
21.93742,-0.25578
21.69635,-0.25399
21.45528,-0.25641
21.21421,-0.26277
20.97314,-0.27531
20.73207,-0.29772
20.49100,-0.32672
20.24993,-0.34955
20.00886,-0.35303
19.76779,-0.33718
19.52672,-0.31701
19.28564,-0.30911
19.04457,-0.31730
18.80350,-0.33399
18.56243,-0.35253
18.32136,-0.37325
18.08029,-0.39493
17.83922,-0.40592
17.59815,-0.40132
17.35708,-0.38818
17.11601,-0.37478
16.87494,-0.36874
16.63387,-0.37559
16.39280,-0.39039
16.15173,-0.39666
15.91066,-0.38628
15.66959,-0.36621
15.42852,-0.34911
15.18745,-0.34753
14.94637,-0.36413
14.70530,-0.38912
14.46423,-0.41218
14.22316,-0.42925
13.98209,-0.43497
13.74102,-0.42416
13.49995,-0.39865
13.25888,-0.36784
13.01781,-0.34166
12.77674,-0.32875
12.53567,-0.33487
12.29460,-0.35568
12.05353,-0.38003
11.81246,-0.39554
11.57139,-0.39581
11.33032,-0.38910
11.08925,-0.38799
10.84818,-0.39395
10.60710,-0.39769
10.36603,-0.39160
10.12496,-0.37832
9.88389,-0.36776
9.64282,-0.36883
9.40175,-0.37893
9.16068,-0.38592
8.91961,-0.38368
8.67854,-0.37715
8.43747,-0.37414
8.19640,-0.37274
7.95533,-0.36387
7.71426,-0.35108
7.47319,-0.34823
7.23212,-0.35582
6.99105,-0.36320
6.74998,-0.36654
6.50891,-0.36470
6.26783,-0.35489
6.02676,-0.33972
5.78569,-0.32629
5.54462,-0.31925
5.30355,-0.31891
5.06248,-0.32204
4.82141,-0.32751
4.58034,-0.33916
4.33927,-0.35526
4.09820,-0.36650
3.85713,-0.37132
3.61606,-0.37141
3.37499,-0.36267
3.13392,-0.35196
2.89285,-0.35325
2.65178,-0.36058
2.41071,-0.35614
2.16964,-0.33823
1.92856,-0.31846
1.68749,-0.30848
1.44642,-0.31374
1.20535,-0.32440
0.96428,-0.33282
0.72321,-0.36258
0.48214,-0.45192
0.24107,-0.49482
-0.00000,-0.22112
