399.69498,1.45262
399.45391,1.45564
399.21284,1.45563
398.97177,1.45231
398.73070,1.45335
398.48963,1.46265
398.24856,1.47420
398.00749,1.47911
397.76642,1.47549
397.52535,1.46880
397.28428,1.46347
397.04321,1.45964
396.80214,1.45798
396.56107,1.46002
396.32000,1.46297
396.07892,1.46147
395.83785,1.45697
395.59678,1.45894
395.35571,1.47254
395.11464,1.48816
394.87357,1.48859
394.63250,1.47266
394.39143,1.45953
394.15036,1.46213
393.90929,1.46984
393.66822,1.46341
393.42715,1.44233
393.18608,1.42331
392.94501,1.41698
392.70394,1.41975
392.46287,1.42283
392.22180,1.42237
391.98073,1.42167
391.73965,1.42536
391.49858,1.43229
391.25751,1.43629
391.01644,1.43463
390.77537,1.43043
390.53430,1.42642
390.29323,1.42309
390.05216,1.42123
389.81109,1.42101
389.57002,1.42013
389.32895,1.41655
389.08788,1.40996
388.84681,1.39954
388.60574,1.38560
388.36467,1.37336
388.12360,1.36890
387.88253,1.36948
387.64146,1.36442
387.40038,1.35049
387.15931,1.33920
386.91824,1.34217
386.67717,1.35577
386.43610,1.36493
386.19503,1.36202
385.95396,1.35208
385.71289,1.34074
385.47182,1.32917
385.23075,1.31692
384.98968,1.30395
384.74861,1.29185
384.50754,1.28256
384.26647,1.27360
384.02540,1.25907
383.78433,1.23940
383.54326,1.22496
383.30219,1.22375
383.06111,1.22968
382.82004,1.22746
382.57897,1.21034
382.33790,1.18711
382.09683,1.17076
381.85576,1.16782
381.61469,1.17660
381.37362,1.19013
381.13255,1.19949
380.89148,1.19975
380.65041,1.19541
380.40934,1.19572
380.16827,1.20402
379.92720,1.21233
379.68613,1.21116
379.44506,1.20290
379.20399,1.19508
378.96292,1.19129
378.72184,1.19350
378.48077,1.20149
378.23970,1.21200
377.99863,1.22470
377.75756,1.24248
377.51649,1.26228
377.27542,1.27435
377.03435,1.27480
376.79328,1.27183
376.55221,1.27650
376.31114,1.29130
376.07007,1.30764
375.82900,1.31432
375.58793,1.30882
375.34686,1.29759
375.10579,1.28863
374.86472,1.28754
374.62365,1.29730
374.38257,1.31596
374.14150,1.33530
373.90043,1.34792
373.65936,1.35419
373.41829,1.35631
373.17722,1.35194
372.93615,1.34168
372.69508,1.33330
372.45401,1.33189
372.21294,1.33258
371.97187,1.32714
371.73080,1.31562
371.48973,1.30711
371.24866,1.30772
371.00759,1.31334
370.76652,1.31619
370.52545,1.31401
370.28437,1.31061
370.04330,1.30919
369.80223,1.30952
369.56116,1.31092
369.32009,1.31250
369.07902,1.31189
368.83795,1.30750
368.59688,1.30135
368.35581,1.29723
368.11474,1.29654
367.87367,1.29661
367.63260,1.29344
367.39153,1.28731
367.15046,1.28305
366.90939,1.28262
366.66832,1.28093
366.42725,1.27418
366.18618,1.26841
365.94510,1.27104
365.70403,1.27737
365.46296,1.27597
365.22189,1.26653
364.98082,1.25916
364.73975,1.25814
364.49868,1.25872
364.25761,1.25664
364.01654,1.25362
363.77547,1.25358
363.53440,1.25826
363.29333,1.26583
363.05226,1.27057
362.81119,1.26789
362.57012,1.26068
362.32905,1.25529
362.08798,1.25337
361.84691,1.25292
361.60583,1.25362
361.36476,1.25520
361.12369,1.25371
360.88262,1.24672
360.64155,1.23887
360.40048,1.23610
360.15941,1.23820
359.91834,1.24070
359.67727,1.24074
359.43620,1.23698
359.19513,1.22808
358.95406,1.21630
358.71299,1.20749
358.47192,1.20432
358.23085,1.20445
357.98978,1.20639
357.74871,1.21103
357.50764,1.21624
357.26656,1.21719
357.02549,1.21351
356.78442,1.20981
356.54335,1.20822
356.30228,1.20605
356.06121,1.20137
355.82014,1.19653
355.57907,1.19512
355.33800,1.19804
355.09693,1.20302
354.85586,1.20705
354.61479,1.20878
354.37372,1.20844
354.13265,1.20668
353.89158,1.20401
353.65051,1.20040
353.40944,1.19606
353.16837,1.19324
352.92729,1.19501
352.68622,1.20031
352.44515,1.20336
352.20408,1.20114
351.96301,1.19860
351.72194,1.20140
351.48087,1.20702
351.23980,1.20875
350.99873,1.20587
350.75766,1.20288
350.51659,1.20114
350.27552,1.19887
350.03445,1.19685
349.79338,1.19825
349.55231,1.20311
349.31124,1.20662
349.07017,1.20459
348.82910,1.19841
348.58802,1.19319
348.34695,1.19224
348.10588,1.19482
347.86481,1.19938
347.62374,1.20580
347.38267,1.21305
347.14160,1.21831
346.90053,1.22045
346.65946,1.22125
346.41839,1.22109
346.17732,1.21846
345.93625,1.21417
345.69518,1.21194
345.45411,1.21398
345.21304,1.21831
344.97197,1.22150
344.73090,1.22194
344.48983,1.22031
344.24875,1.21941
344.00768,1.22229
343.76661,1.22946
343.52554,1.23926
343.28447,1.24962
343.04340,1.25667
342.80233,1.25552
342.56126,1.24800
342.32019,1.24345
342.07912,1.24679
341.83805,1.25266
341.59698,1.25388
341.35591,1.25045
341.11484,1.24796
340.87377,1.25213
340.63270,1.26486
340.39163,1.28186
340.15056,1.29517
339.90948,1.30003
339.66841,1.29736
339.42734,1.28953
339.18627,1.27934
338.94520,1.27290
338.70413,1.27586
338.46306,1.28667
338.22199,1.29867
337.98092,1.30840
337.73985,1.31664
337.49878,1.32257
337.25771,1.32425
337.01664,1.32378
336.77557,1.32545
336.53450,1.32957
336.29343,1.33146
336.05236,1.32589
335.81129,1.31354
335.57021,1.30277
335.32914,1.30134
335.08807,1.30568
334.84700,1.30430
334.60593,1.29365
334.36486,1.28216
334.12379,1.27824
333.88272,1.28175
333.64165,1.28661
333.40058,1.28683
333.15951,1.27946
332.91844,1.26503
332.67737,1.24784
332.43630,1.23342
332.19523,1.22401
331.95416,1.21751
331.71309,1.21203
331.47202,1.20931
331.23094,1.21147
330.98987,1.21648
330.74880,1.21984
330.50773,1.22090
330.26666,1.22256
330.02559,1.22436
329.78452,1.22333
329.54345,1.22022
329.30238,1.21793
329.06131,1.21566
328.82024,1.21185
328.57917,1.20986
328.33810,1.21296
328.09703,1.21847
327.85596,1.22078
327.61489,1.21653
327.37382,1.20605
327.13275,1.19384
326.89167,1.18629
326.65060,1.18530
326.40953,1.18606
326.16846,1.18424
325.92739,1.18222
325.68632,1.18442
325.44525,1.19076
325.20418,1.19812
324.96311,1.20488
324.72204,1.21076
324.48097,1.21437
324.23990,1.21478
323.99883,1.21338
323.75776,1.21143
323.51669,1.20876
323.27562,1.20539
323.03455,1.20191
322.79348,1.19898
322.55240,1.19727
322.31133,1.19699
322.07026,1.19726
321.82919,1.19732
321.58812,1.19841
321.34705,1.20140
321.10598,1.20446
320.86491,1.20649
320.62384,1.20948
320.38277,1.21340
320.14170,1.21266
319.90063,1.20324
319.65956,1.19159
319.41849,1.18760
319.17742,1.19132
318.93635,1.19506
318.69528,1.19657
318.45421,1.20005
318.21313,1.20487
317.97206,1.20517
317.73099,1.20009
317.48992,1.19479
317.24885,1.19222
317.00778,1.19072
316.76671,1.18910
316.52564,1.18842
316.28457,1.19007
316.04350,1.19519
315.80243,1.20393
315.56136,1.21459
315.32029,1.22423
315.07922,1.22997
314.83815,1.23068
314.59708,1.22783
314.35601,1.22432
314.11494,1.22258
313.87386,1.22303
313.63279,1.22473
313.39172,1.22713
313.15065,1.23040
312.90958,1.23379
312.66851,1.23584
312.42744,1.23676
312.18637,1.23778
311.94530,1.23825
311.70423,1.23699
311.46316,1.23530
311.22209,1.23603
310.98102,1.24284
310.73995,1.25847
310.49888,1.27907
310.25781,1.29249
310.01674,1.29044
309.77567,1.27980
309.53459,1.27167
309.29352,1.26931
309.05245,1.27320
308.81138,1.28480
308.57031,1.29945
308.32924,1.30511
308.08817,1.29643
307.84710,1.28213
307.60603,1.27247
307.36496,1.26989
307.12389,1.27158
306.88282,1.27568
306.64175,1.28188
306.40068,1.28996
306.15961,1.29874
305.91854,1.30296
305.67747,1.29744
305.43640,1.28584
305.19532,1.27705
304.95425,1.27511
304.71318,1.27733
304.47211,1.27935
304.23104,1.27964
303.98997,1.28049
303.74890,1.28624
303.50783,1.29790
303.26676,1.30872
303.02569,1.30819
302.78462,1.29321
302.54355,1.27223
302.30248,1.25607
302.06141,1.24957
301.82034,1.25179
301.57927,1.25852
301.33820,1.26383
301.09713,1.26398
300.85605,1.26093
300.61498,1.25840
300.37391,1.25482
300.13284,1.24739
299.89177,1.23989
299.65070,1.23872
299.40963,1.24348
299.16856,1.24753
298.92749,1.24729
298.68642,1.24621
298.44535,1.24878
298.20428,1.25433
297.96321,1.25769
297.72214,1.25487
297.48107,1.24775
297.24000,1.24174
296.99893,1.23987
296.75786,1.24064
296.51678,1.24098
296.27571,1.23901
296.03464,1.23423
295.79357,1.22716
295.55250,1.21885
295.31143,1.20972
295.07036,1.20109
294.82929,1.19631
294.58822,1.19680
294.34715,1.19919
294.10608,1.19986
293.86501,1.19974
293.62394,1.20053
293.38287,1.19980
293.14180,1.19480
292.90073,1.18842
292.65966,1.18579
292.41859,1.18718
292.17751,1.18757
291.93644,1.18213
291.69537,1.17156
291.45430,1.16185
291.21323,1.15825
290.97216,1.16073
290.73109,1.16601
290.49002,1.17184
290.24895,1.17595
290.00788,1.17378
289.76681,1.16421
289.52574,1.15358
289.28467,1.14806
289.04360,1.14681
288.80253,1.14576
288.56146,1.14430
288.32039,1.14440
288.07932,1.14582
287.83824,1.14606
287.59717,1.14398
287.35610,1.14129
287.11503,1.13989
286.87396,1.13869
286.63289,1.13520
286.39182,1.13000
286.15075,1.12673
285.90968,1.12703
285.66861,1.12879
285.42754,1.12972
285.18647,1.13025
284.94540,1.13173
284.70433,1.13359
284.46326,1.13342
284.22219,1.13028
283.98112,1.12674
283.74005,1.12599
283.49897,1.12775
283.25790,1.12929
283.01683,1.12917
282.77576,1.12802
282.53469,1.12632
282.29362,1.12373
282.05255,1.12060
281.81148,1.11831
281.57041,1.11733
281.32934,1.11603
281.08827,1.11357
280.84720,1.11197
280.60613,1.11285
280.36506,1.11429
280.12399,1.11407
279.88292,1.11355
279.64185,1.11470
279.40078,1.11654
279.15970,1.11797
278.91863,1.12017
278.67756,1.12304
278.43649,1.12325
278.19542,1.11889
277.95435,1.11246
277.71328,1.10745
277.47221,1.10561
277.23114,1.10736
276.99007,1.11162
276.74900,1.11534
276.50793,1.11566
276.26686,1.11252
276.02579,1.10836
275.78472,1.10595
275.54365,1.10647
275.30258,1.10936
275.06151,1.11328
274.82043,1.11672
274.57936,1.11855
274.33829,1.11904
274.09722,1.11960
273.85615,1.12085
273.61508,1.12234
273.37401,1.12325
273.13294,1.12305
272.89187,1.12240
272.65080,1.12283
272.40973,1.12451
272.16866,1.12571
271.92759,1.12573
271.68652,1.12612
271.44545,1.12744
271.20438,1.12802
270.96331,1.12736
270.72224,1.12807
270.48116,1.13219
270.24009,1.13782
269.99902,1.14163
269.75795,1.14360
269.51688,1.14618
269.27581,1.14943
269.03474,1.15081
268.79367,1.15061
268.55260,1.15283
268.31153,1.15963
268.07046,1.16802
267.82939,1.17353
267.58832,1.17544
267.34725,1.17693
267.10618,1.18138
266.86511,1.18945
266.62404,1.19835
266.38297,1.20491
266.14189,1.20952
265.90082,1.21481
265.65975,1.22095
265.41868,1.22628
265.17761,1.23098
264.93654,1.23619
264.69547,1.24143
264.45440,1.24696
264.21333,1.25483
263.97226,1.26428
263.73119,1.27113
263.49012,1.27462
263.24905,1.28006
263.00798,1.29201
262.76691,1.30781
262.52584,1.32012
262.28477,1.32549
262.04370,1.32821
261.80262,1.33515
261.56155,1.35025
261.32048,1.37464
261.07941,1.40708
260.83834,1.44097
260.59727,1.46489
260.35620,1.47267
260.11513,1.47155
259.87406,1.47509
259.63299,1.48830
259.39192,1.50312
259.15085,1.51388
258.90978,1.52548
258.66871,1.54319
258.42764,1.56697
258.18657,1.59072
257.94550,1.60751
257.70443,1.61757
257.46335,1.62759
257.22228,1.64483
256.98121,1.67249
256.74014,1.70276
256.49907,1.71970
256.25800,1.71983
256.01693,1.71326
255.77586,1.70587
255.53479,1.69604
255.29372,1.68361
255.05265,1.67141
254.81158,1.65877
254.57051,1.64225
254.32944,1.62115
254.08837,1.59894
253.84730,1.58032
253.60623,1.57065
253.36516,1.57414
253.12408,1.58736
252.88301,1.59718
252.64194,1.59425
252.40087,1.58477
252.15980,1.57868
251.91873,1.57511
251.67766,1.56689
251.43659,1.55303
251.19552,1.54017
250.95445,1.53343
250.71338,1.53045
250.47231,1.52694
250.23124,1.52291
249.99017,1.51945
249.74910,1.51667
249.50803,1.51628
249.26696,1.51979
249.02589,1.52371
248.78481,1.52179
248.54374,1.51344
248.30267,1.50460
248.06160,1.50048
247.82053,1.50113
247.57946,1.50427
247.33839,1.51055
247.09732,1.52275
246.85625,1.54035
246.61518,1.55945
246.37411,1.57921
246.13304,1.60180
245.89197,1.62406
245.65090,1.63818
245.40983,1.64565
245.16876,1.65839
244.92769,1.67913
244.68661,1.69365
244.44554,1.69408
244.20447,1.69863
243.96340,1.73188
243.72233,1.79802
243.48126,1.87448
243.24019,1.92417
242.99912,1.92512
242.75805,1.88643
242.51698,1.82929
242.27591,1.76731
242.03484,1.70904
241.79377,1.65774
241.55270,1.61108
241.31163,1.56748
241.07056,1.52425
240.82949,1.47805
240.58842,1.43096
240.34734,1.38826
240.10627,1.35167
239.86520,1.31956
239.62413,1.29166
239.38306,1.26946
239.14199,1.25313
238.90092,1.24054
238.65985,1.22830
238.41878,1.21343
238.17771,1.19513
237.93664,1.17459
237.69557,1.15317
237.45450,1.13166
237.21343,1.11104
236.97236,1.09243
236.73129,1.07680
236.49022,1.06521
236.24915,1.05792
236.00807,1.05277
235.76700,1.04615
235.52593,1.03669
235.28486,1.02674
235.04379,1.01876
234.80272,1.01172
234.56165,1.00290
234.32058,0.99220
234.07951,0.98194
233.83844,0.97354
233.59737,0.96713
233.35630,0.96289
233.11523,0.96067
232.87416,0.95895
232.63309,0.95559
232.39202,0.95023
232.15095,0.94444
231.90988,0.93928
231.66880,0.93424
231.42773,0.92899
231.18666,0.92438
230.94559,0.92095
230.70452,0.91798
230.46345,0.91455
230.22238,0.91025
229.98131,0.90482
229.74024,0.89833
229.49917,0.89192
229.25810,0.88687
229.01703,0.88324
228.77596,0.88035
228.53489,0.87825
228.29382,0.87763
228.05275,0.87844
227.81168,0.87923
227.57061,0.87800
227.32953,0.87400
227.08846,0.86848
226.84739,0.86344
226.60632,0.85999
226.36525,0.85758
226.12418,0.85493
225.88311,0.85140
225.64204,0.84800
225.40097,0.84669
225.15990,0.84798
224.91883,0.84974
224.67776,0.84931
224.43669,0.84648
224.19562,0.84343
223.95455,0.84251
223.71348,0.84419
223.47241,0.84626
223.23134,0.84572
222.99026,0.84244
222.74919,0.83964
222.50812,0.84019
222.26705,0.84399
222.02598,0.84920
221.78491,0.85504
221.54384,0.86209
221.30277,0.86974
221.06170,0.87545
220.82063,0.87781
220.57956,0.87853
220.33849,0.88088
220.09742,0.88747
219.85635,0.89871
219.61528,0.91161
219.37421,0.92185
219.13314,0.92829
218.89207,0.93355
218.65099,0.93995
218.40992,0.94772
218.16885,0.95616
217.92778,0.96426
217.68671,0.97105
217.44564,0.97679
217.20457,0.98301
216.96350,0.99152
216.72243,1.00342
216.48136,1.01851
216.24029,1.03521
215.99922,1.05153
215.75815,1.06557
215.51708,1.07646
215.27601,1.08554
215.03494,1.09455
214.79387,1.10349
214.55280,1.11194
214.31172,1.12096
214.07065,1.13143
213.82958,1.14221
213.58851,1.15183
213.34744,1.16039
213.10637,1.16848
212.86530,1.17611
212.62423,1.18289
212.38316,1.18783
212.14209,1.18978
211.90102,1.18966
211.65995,1.19152
211.41888,1.19856
211.17781,1.20848
210.93674,1.21569
210.69567,1.21819
210.45460,1.21886
210.21353,1.22045
209.97245,1.22189
209.73138,1.22088
209.49031,1.21777
209.24924,1.21503
209.00817,1.21416
208.76710,1.21335
208.52603,1.20944
208.28496,1.20200
208.04389,1.19402
207.80282,1.18912
207.56175,1.18780
207.32068,1.18598
207.07961,1.17954
206.83854,1.16949
206.59747,1.15944
206.35640,1.15146
206.11533,1.14512
205.87426,1.13864
205.63318,1.13038
205.39211,1.11997
205.15104,1.10901
204.90997,1.09991
204.66890,1.09305
204.42783,1.08616
204.18676,1.07675
203.94569,1.06440
203.70462,1.05094
203.46355,1.03925
203.22248,1.03132
202.98141,1.02565
202.74034,1.01728
202.49927,1.00289
202.25820,0.98553
202.01713,0.97068
201.77606,0.95986
201.53499,0.95008
201.29391,0.93839
201.05284,0.92566
200.81177,0.91466
200.57070,0.90579
200.32963,0.89648
200.08856,0.88439
199.84749,0.87041
199.60642,0.85761
199.36535,0.84753
199.12428,0.83859
198.88321,0.82881
198.64214,0.81887
198.40107,0.81093
198.16000,0.80527
197.91893,0.79946
197.67786,0.79110
197.43679,0.78060
197.19572,0.77093
196.95464,0.76410
196.71357,0.75846
196.47250,0.75076
196.23143,0.74101
195.99036,0.73260
195.74929,0.72706
195.50822,0.72173
195.26715,0.71419
195.02608,0.70567
194.78501,0.69797
194.54394,0.69030
194.30287,0.68176
194.06180,0.67384
193.82073,0.66787
193.57966,0.66276
193.33859,0.65718
193.09752,0.65176
192.85645,0.64750
192.61537,0.64403
192.37430,0.64033
192.13323,0.63618
191.89216,0.63224
191.65109,0.62883
191.41002,0.62516
191.16895,0.62046
190.92788,0.61578
190.68681,0.61285
190.44574,0.61122
190.20467,0.60841
189.96360,0.60380
189.72253,0.60001
189.48146,0.59907
189.24039,0.59914
188.99932,0.59699
188.75825,0.59244
188.51718,0.58796
188.27610,0.58461
188.03503,0.58142
187.79396,0.57841
187.55289,0.57710
187.31182,0.57751
187.07075,0.57757
186.82968,0.57618
186.58861,0.57435
186.34754,0.57256
186.10647,0.56997
185.86540,0.56668
185.62433,0.56430
185.38326,0.56342
185.14219,0.56287
184.90112,0.56230
184.66005,0.56304
184.41898,0.56570
184.17791,0.56888
183.93683,0.57091
183.69576,0.57154
183.45469,0.57149
183.21362,0.57145
182.97255,0.57147
182.73148,0.57097
182.49041,0.56982
182.24934,0.56880
182.00827,0.56845
181.76720,0.56830
181.52613,0.56799
181.28506,0.56802
181.04399,0.56887
180.80292,0.57047
180.56185,0.57208
180.32078,0.57279
180.07971,0.57290
179.83864,0.57433
179.59756,0.57800
179.35649,0.58225
179.11542,0.58552
178.87435,0.58863
178.63328,0.59285
178.39221,0.59796
178.15114,0.60362
177.91007,0.61098
177.66900,0.62105
177.42793,0.63266
177.18686,0.64366
176.94579,0.65354
176.70472,0.66333
176.46365,0.67367
176.22258,0.68474
175.98151,0.69707
175.74044,0.71092
175.49937,0.72608
175.25829,0.74290
175.01722,0.76196
174.77615,0.78240
174.53508,0.80242
174.29401,0.82083
174.05294,0.83691
173.81187,0.85018
173.57080,0.86083
173.32973,0.86922
173.08866,0.87600
172.84759,0.88332
172.60652,0.89360
172.36545,0.90587
172.12438,0.91569
171.88331,0.91998
171.64224,0.91948
171.40117,0.91604
171.16010,0.91062
170.91902,0.90435
170.67795,0.89868
170.43688,0.89404
170.19581,0.88998
169.95474,0.88606
169.71367,0.88178
169.47260,0.87669
169.23153,0.87115
168.99046,0.86550
168.74939,0.85926
168.50832,0.85235
168.26725,0.84620
168.02618,0.84258
167.78511,0.84188
167.54404,0.84286
167.30297,0.84401
167.06190,0.84477
166.82083,0.84488
166.57975,0.84399
166.33868,0.84353
166.09761,0.84683
165.85654,0.85516
165.61547,0.86529
165.37440,0.87307
165.13333,0.87795
164.89226,0.88209
164.65119,0.88692
164.41012,0.89267
164.16905,0.89973
163.92798,0.90837
163.68691,0.91797
163.44584,0.92744
163.20477,0.93610
162.96370,0.94405
162.72263,0.95177
162.48156,0.95986
162.24048,0.96874
161.99941,0.97766
161.75834,0.98449
161.51727,0.98738
161.27620,0.98642
161.03513,0.98412
160.79406,0.98365
160.55299,0.98600
160.31192,0.98880
160.07085,0.98866
159.82978,0.98431
159.58871,0.97716
159.34764,0.96957
159.10657,0.96345
158.86550,0.95943
158.62443,0.95708
158.38336,0.95639
158.14229,0.95768
157.90121,0.95896
157.66014,0.95629
157.41907,0.94865
157.17800,0.93992
156.93693,0.93422
156.69586,0.93118
156.45479,0.92726
156.21372,0.92110
155.97265,0.91562
155.73158,0.91381
155.49051,0.91462
155.24944,0.91416
155.00837,0.90962
154.76730,0.90054
154.52623,0.88817
154.28516,0.87513
154.04409,0.86413
153.80302,0.85560
153.56194,0.84728
153.32087,0.83675
153.07980,0.82395
152.83873,0.81095
152.59766,0.79958
152.35659,0.78929
152.11552,0.77731
151.87445,0.76193
151.63338,0.74517
151.39231,0.73066
151.15124,0.71967
150.91017,0.71019
150.66910,0.69942
150.42803,0.68630
150.18696,0.67195
149.94589,0.65829
149.70482,0.64620
149.46375,0.63512
149.22267,0.62434
148.98160,0.61437
148.74053,0.60623
148.49946,0.59975
148.25839,0.59362
148.01732,0.58752
147.77625,0.58255
147.53518,0.57919
147.29411,0.57626
147.05304,0.57276
146.81197,0.56959
146.57090,0.56840
146.32983,0.56944
146.08876,0.57115
145.84769,0.57180
145.60662,0.57163
145.36555,0.57270
145.12448,0.57640
144.88340,0.58180
144.64233,0.58705
144.40126,0.59140
144.16019,0.59490
143.91912,0.59742
143.67805,0.59867
143.43698,0.59848
143.19591,0.59645
142.95484,0.59190
142.71377,0.58454
142.47270,0.57505
142.23163,0.56466
141.99056,0.55438
141.74949,0.54495
141.50842,0.53695
141.26735,0.53043
141.02628,0.52500
140.78521,0.52055
140.54413,0.51726
140.30306,0.51480
140.06199,0.51235
139.82092,0.51012
139.57985,0.50965
139.33878,0.51176
139.09771,0.51515
138.85664,0.51833
138.61557,0.52190
138.37450,0.52722
138.13343,0.53421
137.89236,0.54206
137.65129,0.55090
137.41022,0.56139
137.16915,0.57396
136.92808,0.58918
136.68701,0.60710
136.44594,0.62614
136.20486,0.64449
135.96379,0.66221
135.72272,0.68083
135.48165,0.70159
135.24058,0.72483
134.99951,0.74973
134.75844,0.77477
134.51737,0.79933
134.27630,0.82447
134.03523,0.85114
133.79416,0.87824
133.55309,0.90339
133.31202,0.92542
133.07095,0.94533
132.82988,0.96410
132.58881,0.97990
132.34774,0.98950
132.10667,0.99234
131.86559,0.99106
131.62452,0.98866
131.38345,0.98576
131.14238,0.98033
130.90131,0.96993
130.66024,0.95378
130.41917,0.93322
130.17810,0.91109
129.93703,0.88999
129.69596,0.87005
129.45489,0.84921
129.21382,0.82645
128.97275,0.80313
128.73168,0.78096
128.49061,0.75993
128.24954,0.73895
128.00847,0.71749
127.76740,0.69631
127.52632,0.67647
127.28525,0.65800
127.04418,0.64020
126.80311,0.62303
126.56204,0.60704
126.32097,0.59228
126.07990,0.57839
125.83883,0.56517
125.59776,0.55247
125.35669,0.54033
125.11562,0.52952
124.87455,0.52083
124.63348,0.51369
124.39241,0.50665
124.15134,0.49918
123.91027,0.49156
123.66920,0.48357
123.42812,0.47518
123.18705,0.46750
122.94598,0.46168
122.70491,0.45783
122.46384,0.45552
122.22277,0.45414
121.98170,0.45281
121.74063,0.45144
121.49956,0.45121
121.25849,0.45307
121.01742,0.45691
120.77635,0.46242
120.53528,0.46975
120.29421,0.47886
120.05314,0.48931
119.81207,0.50087
119.57100,0.51375
119.32993,0.52814
119.08885,0.54416
118.84778,0.56252
118.60671,0.58447
118.36564,0.61021
118.12457,0.63809
117.88350,0.66645
117.64243,0.69475
117.40136,0.72145
117.16029,0.74211
116.91922,0.75260
116.67815,0.75402
116.43708,0.75139
116.19601,0.74778
115.95494,0.74258
115.71387,0.73539
115.47280,0.72791
115.23173,0.72071
114.99066,0.71183
114.74958,0.70064
114.50851,0.68908
114.26744,0.67847
114.02637,0.66848
113.78530,0.65969
113.54423,0.65398
113.30316,0.65281
113.06209,0.65652
112.82102,0.66473
112.57995,0.67579
112.33888,0.68675
112.09781,0.69483
111.85674,0.69948
111.61567,0.70236
111.37460,0.70597
111.13353,0.71275
110.89246,0.72400
110.65139,0.73742
110.41031,0.74642
110.16924,0.74502
109.92817,0.73408
109.68710,0.71968
109.44603,0.70684
109.20496,0.69664
108.96389,0.68729
108.72282,0.67602
108.48175,0.66046
108.24068,0.63993
107.99961,0.61567
107.75854,0.59056
107.51747,0.56831
107.27640,0.55182
107.03533,0.54124
106.79426,0.53355
106.55319,0.52410
106.31212,0.50989
106.07104,0.49221
105.82997,0.47520
105.58890,0.46182
105.34783,0.45195
105.10676,0.44316
104.86569,0.43278
104.62462,0.42052
104.38355,0.40932
104.14248,0.40239
103.90141,0.39953
103.66034,0.39714
103.41927,0.39148
103.17820,0.38184
102.93713,0.37117
102.69606,0.36324
102.45499,0.35902
102.21392,0.35613
101.97285,0.35130
101.73177,0.34338
101.49070,0.33433
101.24963,0.32756
101.00856,0.32487
100.76749,0.32395
100.52642,0.31952
100.28535,0.31012
100.04428,0.30125
99.80321,0.29806
99.56214,0.29882
99.32107,0.29808
99.08000,0.29389
98.83893,0.28889
98.59786,0.28553
98.35679,0.28363
98.11572,0.28202
97.87465,0.28057
97.63358,0.28014
97.39250,0.28076
97.15143,0.28084
96.91036,0.27951
96.66929,0.27908
96.42822,0.28291
96.18715,0.29097
95.94608,0.29932
95.70501,0.30500
95.46394,0.30965
95.22287,0.31590
94.98180,0.32273
94.74073,0.32738
94.49966,0.33051
94.25859,0.33472
94.01752,0.33882
93.77645,0.33943
93.53538,0.33788
93.29431,0.33883
93.05323,0.34201
92.81216,0.34267
92.57109,0.34051
92.33002,0.33964
92.08895,0.34047
91.84788,0.34026
91.60681,0.33986
91.36574,0.34278
91.12467,0.35054
90.88360,0.36349
90.64253,0.38267
90.40146,0.40862
90.16039,0.44080
89.91932,0.47794
89.67825,0.51746
89.43718,0.55662
89.19611,0.59374
88.95504,0.62597
88.71396,0.64977
88.47289,0.66465
88.23182,0.66912
87.99075,0.65754
87.74968,0.62948
87.50861,0.59400
87.26754,0.55969
87.02647,0.52850
86.78540,0.49936
86.54433,0.47233
86.30326,0.44844
86.06219,0.42761
85.82112,0.40835
85.58005,0.38945
85.33898,0.37083
85.09791,0.35292
84.85684,0.33652
84.61577,0.32229
84.37469,0.30974
84.13362,0.29836
83.89255,0.28910
83.65148,0.28281
83.41041,0.27822
83.16934,0.27350
82.92827,0.26838
82.68720,0.26327
82.44613,0.25826
82.20506,0.25351
81.96399,0.24951
81.72292,0.24668
81.48185,0.24511
81.24078,0.24454
80.99971,0.24396
80.75864,0.24204
80.51757,0.23848
80.27650,0.23428
80.03542,0.23031
79.79435,0.22660
79.55328,0.22325
79.31221,0.22057
79.07114,0.21861
78.83007,0.21741
78.58900,0.21724
78.34793,0.21758
78.10686,0.21699
77.86579,0.21445
77.62472,0.21004
77.38365,0.20451
77.14258,0.19914
76.90151,0.19514
76.66044,0.19288
76.41937,0.19215
76.17830,0.19241
75.93723,0.19235
75.69615,0.19047
75.45508,0.18674
75.21401,0.18284
74.97294,0.18050
74.73187,0.18034
74.49080,0.18186
74.24973,0.18409
74.00866,0.18626
73.76759,0.18788
73.52652,0.18855
73.28545,0.18809
73.04438,0.18709
72.80331,0.18663
72.56224,0.18747
72.32117,0.18914
72.08010,0.19045
71.83903,0.19096
71.59796,0.19131
71.35688,0.19184
71.11581,0.19225
70.87474,0.19302
70.63367,0.19606
70.39260,0.20346
70.15153,0.21610
69.91046,0.23329
69.66939,0.25342
69.42832,0.27390
69.18725,0.29049
68.94618,0.29810
68.70511,0.29431
68.46404,0.28133
68.22297,0.26378
67.98190,0.24560
67.74083,0.22924
67.49976,0.21607
67.25869,0.20602
67.01761,0.19746
66.77654,0.18867
66.53547,0.17971
66.29440,0.17186
66.05333,0.16559
65.81226,0.16050
65.57119,0.15710
65.33012,0.15699
65.08905,0.16088
64.84798,0.16770
64.60691,0.17625
64.36584,0.18670
64.12477,0.19903
63.88370,0.21068
63.64263,0.21815
63.40156,0.22064
63.16049,0.22003
62.91942,0.21818
62.67834,0.21582
62.43727,0.21269
62.19620,0.20758
61.95513,0.19930
61.71406,0.18804
61.47299,0.17559
61.23192,0.16429
60.99085,0.15583
60.74978,0.15104
60.50871,0.15069
60.26764,0.15581
60.02657,0.16666
59.78550,0.18143
59.54443,0.19627
59.30336,0.20692
59.06229,0.21098
58.82122,0.20813
58.58015,0.19890
58.33907,0.18502
58.09800,0.17033
57.85693,0.15956
57.61586,0.15654
57.37479,0.16265
57.13372,0.17547
56.89265,0.18832
56.65158,0.19313
56.41051,0.18609
56.16944,0.17056
55.92837,0.15370
55.68730,0.14223
55.44623,0.14077
55.20516,0.15067
54.96409,0.16886
54.72302,0.18725
54.48195,0.19538
54.24088,0.18838
53.99980,0.17314
53.75873,0.16210
53.51766,0.16369
53.27659,0.17936
53.03552,0.20309
52.79445,0.22039
52.55338,0.21679
52.31231,0.19709
52.07124,0.18086
51.83017,0.18186
51.58910,0.19983
51.34803,0.21746
51.10696,0.21208
50.86589,0.18955
50.62482,0.17618
50.38375,0.18513
50.14268,0.20838
49.90161,0.21941
49.66053,0.20190
49.41946,0.18058
49.17839,0.18270
48.93732,0.20607
48.69625,0.22233
48.45518,0.21291
48.21411,0.20092
47.97304,0.20838
47.73197,0.22400
47.49090,0.22042
47.24983,0.20216
47.00876,0.19518
46.76769,0.19844
46.52662,0.19134
46.28555,0.18091
46.04448,0.18572
45.80341,0.19746
45.56234,0.19843
45.32126,0.19485
45.08019,0.19726
44.83912,0.19808
44.59805,0.19316
44.35698,0.19269
44.11591,0.20154
43.87484,0.21431
43.63377,0.22288
43.39270,0.22074
43.15163,0.21130
42.91056,0.20706
42.66949,0.21245
42.42842,0.21918
42.18735,0.22041
41.94628,0.21630
41.70521,0.20932
41.46414,0.20368
41.22307,0.20432
40.98199,0.21316
40.74092,0.22762
40.49985,0.24188
40.25878,0.25180
40.01771,0.25861
39.77664,0.26367
39.53557,0.26589
39.29450,0.26690
39.05343,0.26922
38.81236,0.27146
38.57129,0.27347
38.33022,0.27905
38.08915,0.28842
37.84808,0.29815
37.60701,0.30586
37.36594,0.30605
37.12487,0.29226
36.88380,0.26855
36.64272,0.24952
36.40165,0.24755
36.16058,0.26185
35.91951,0.27919
35.67844,0.28629
35.43737,0.28086
35.19630,0.26947
34.95523,0.25912
34.71416,0.25260
34.47309,0.24766
34.23202,0.24057
33.99095,0.22999
33.74988,0.21668
33.50881,0.20380
33.26774,0.19690
33.02667,0.19808
32.78560,0.20268
32.54453,0.20533
32.30345,0.20443
32.06238,0.20065
31.82131,0.19650
31.58024,0.19375
31.33917,0.18780
31.09810,0.16995
30.85703,0.14085
30.61596,0.11552
30.37489,0.10494
30.13382,0.10196
29.89275,0.09789
29.65168,0.09566
29.41061,0.09645
29.16954,0.09045
28.92847,0.07065
28.68740,0.04339
28.44633,0.01956
28.20526,0.00444
27.96418,-0.00219
27.72311,-0.00271
27.48204,-0.00218
27.24097,-0.00810
26.99990,-0.02324
26.75883,-0.03974
26.51776,-0.04811
26.27669,-0.05154
26.03562,-0.06102
25.79455,-0.07562
25.55348,-0.08385
25.31241,-0.08255
25.07134,-0.07910
24.83027,-0.08111
24.58920,-0.09184
24.34813,-0.11031
24.10706,-0.13073
23.86599,-0.14629
23.62491,-0.15614
23.38384,-0.16343
23.14277,-0.16871
22.90170,-0.17058
22.66063,-0.16962
22.41956,-0.16759
22.17849,-0.16790
21.93742,-0.17684
21.69635,-0.19752
21.45528,-0.22287
21.21421,-0.24053
20.97314,-0.24820
20.73207,-0.25252
20.49100,-0.25208
20.24993,-0.23890
20.00886,-0.21736
19.76779,-0.20778
19.52672,-0.22360
19.28564,-0.25529
19.04457,-0.28472
18.80350,-0.30463
18.56243,-0.31733
18.32136,-0.32731
18.08029,-0.33766
17.83922,-0.34434
17.59815,-0.34032
17.35708,-0.32722
17.11601,-0.31116
16.87494,-0.29463
16.63387,-0.28296
16.39280,-0.28668
16.15173,-0.30818
15.91066,-0.33275
15.66959,-0.34001
15.42852,-0.32591
15.18745,-0.30816
14.94637,-0.30429
14.70530,-0.31603
14.46423,-0.33714
14.22316,-0.35776
13.98209,-0.36435
13.74102,-0.35371
13.49995,-0.33893
13.25888,-0.33185
13.01781,-0.33280
12.77674,-0.33405
12.53567,-0.32930
12.29460,-0.32117
12.05353,-0.31683
11.81246,-0.31817
11.57139,-0.32071
11.33032,-0.32044
11.08925,-0.31824
10.84818,-0.31869
10.60710,-0.32545
10.36603,-0.33641
10.12496,-0.34670
9.88389,-0.35539
9.64282,-0.35837
9.40175,-0.34629
9.16068,-0.32399
8.91961,-0.31308
8.67854,-0.32459
8.43747,-0.34894
8.19640,-0.36917
7.95533,-0.37640
7.71426,-0.37655
7.47319,-0.37506
7.23212,-0.37062
6.99105,-0.36538
6.74998,-0.35984
6.50891,-0.35171
6.26783,-0.34573
6.02676,-0.34932
5.78569,-0.36065
5.54462,-0.37191
5.30355,-0.37933
5.06248,-0.37836
4.82141,-0.36773
4.58034,-0.35591
4.33927,-0.35346
4.09820,-0.36297
3.85713,-0.37724
3.61606,-0.38088
3.37499,-0.36696
3.13392,-0.35155
2.89285,-0.35285
2.65178,-0.37104
2.41071,-0.38982
2.16964,-0.39536
1.92856,-0.38297
1.68749,-0.36029
1.44642,-0.34585
1.20535,-0.34519
0.96428,-0.35261
0.72321,-0.38671
0.48214,-0.46455
0.24107,-0.45324
-0.00000,-0.18614
