399.69498,2.03090
399.45391,2.13321
399.21284,2.17658
398.97177,2.13030
398.73070,2.03446
398.48963,1.94615
398.24856,1.86916
398.00749,1.79608
397.76642,1.74829
397.52535,1.75323
397.28428,1.81587
397.04321,1.90666
396.80214,1.97471
396.56107,1.99425
396.32000,1.98456
396.07892,1.98367
395.83785,2.00453
395.59678,2.01989
395.35571,1.99644
395.11464,1.94417
394.87357,1.91263
394.63250,1.93031
394.39143,1.97447
394.15036,2.00100
393.90929,2.00793
393.66822,2.01448
393.42715,2.01806
393.18608,2.00565
392.94501,1.97219
392.70394,1.94541
392.46287,1.96456
392.22180,2.04463
391.98073,2.13262
391.73965,2.11657
391.49858,2.02904
391.25751,1.97864
391.01644,2.02169
390.77537,2.16629
390.53430,2.29675
390.29323,2.34507
390.05216,2.51930
389.81109,2.60779
389.57002,2.40575
389.32895,2.25340
389.08788,2.20435
388.84681,2.20229
388.60574,2.16890
388.36467,2.32317
388.12360,2.34721
387.88253,2.17130
387.64146,2.14666
387.40038,2.28196
387.15931,2.53912
386.91824,2.81769
386.67717,2.60086
386.43610,2.28114
386.19503,2.31147
385.95396,2.49212
385.71289,2.33030
385.47182,2.34924
385.23075,2.52973
384.98968,2.46472
384.74861,2.23496
384.50754,2.08255
384.26647,1.98742
384.02540,1.96151
383.78433,2.01636
383.54326,2.01830
383.30219,1.98638
383.06111,2.04280
382.82004,1.93879
382.57897,1.78538
382.33790,1.70304
382.09683,1.74355
381.85576,1.97735
381.61469,2.39428
381.37362,2.46011
381.13255,2.13891
380.89148,1.97451
380.65041,1.97622
380.40934,1.96528
380.16827,1.86956
379.92720,1.87247
379.68613,1.99849
379.44506,2.08479
379.20399,1.98425
378.96292,1.88181
378.72184,1.87061
378.48077,1.97473
378.23970,2.20620
377.99863,2.26210
377.75756,2.11739
377.51649,2.01058
377.27542,1.96986
377.03435,1.97256
376.79328,2.04059
376.55221,2.13515
376.31114,2.19142
376.07007,2.19207
375.82900,2.17152
375.58793,2.17829
375.34686,2.17530
375.10579,2.11037
374.86472,2.05806
374.62365,2.01266
374.38257,1.99396
374.14150,2.05906
373.90043,2.18837
373.65936,2.35408
373.41829,2.34651
373.17722,2.06777
372.93615,1.88702
372.69508,1.80772
372.45401,1.75340
372.21294,1.70857
371.97187,1.68955
371.73080,1.69404
371.48973,1.69129
371.24866,1.67887
371.00759,1.68711
370.76652,1.71875
370.52545,1.74647
370.28437,1.74146
370.04330,1.69947
369.80223,1.64818
369.56116,1.61805
369.32009,1.60929
369.07902,1.59455
368.83795,1.55933
368.59688,1.52338
368.35581,1.51167
368.11474,1.52152
367.87367,1.52280
367.63260,1.49771
367.39153,1.46563
367.15046,1.45346
366.90939,1.46302
366.66832,1.47046
366.42725,1.45729
366.18618,1.43492
365.94510,1.42315
365.70403,1.42473
365.46296,1.42919
365.22189,1.42752
364.98082,1.41997
364.73975,1.41127
364.49868,1.40312
364.25761,1.39205
364.01654,1.37608
363.77547,1.36251
363.53440,1.36182
363.29333,1.37503
363.05226,1.39094
362.81119,1.39748
362.57012,1.39495
362.32905,1.39277
362.08798,1.39756
361.84691,1.40834
361.60583,1.41750
361.36476,1.41827
361.12369,1.41335
360.88262,1.40838
360.64155,1.39990
360.40048,1.38094
360.15941,1.35637
359.91834,1.33978
359.67727,1.33842
359.43620,1.35048
359.19513,1.37367
358.95406,1.40538
358.71299,1.43200
358.47192,1.43769
358.23085,1.43035
357.98978,1.42882
357.74871,1.43109
357.50764,1.42062
357.26656,1.39588
357.02549,1.37506
356.78442,1.37268
356.54335,1.38311
356.30228,1.38840
356.06121,1.38236
355.82014,1.37501
355.57907,1.37113
355.33800,1.36478
355.09693,1.35560
354.85586,1.35208
354.61479,1.35592
354.37372,1.36142
354.13265,1.36642
353.89158,1.37094
353.65051,1.37279
353.40944,1.36875
353.16837,1.35869
352.92729,1.34983
352.68622,1.35302
352.44515,1.37054
352.20408,1.39129
351.96301,1.40451
351.72194,1.41473
351.48087,1.42944
351.23980,1.43637
350.99873,1.41477
350.75766,1.37252
350.51659,1.34025
350.27552,1.33288
350.03445,1.34238
349.79338,1.35527
349.55231,1.36470
349.31124,1.36994
349.07017,1.37315
348.82910,1.37770
348.58802,1.38478
348.34695,1.38921
348.10588,1.38470
347.86481,1.37582
347.62374,1.37508
347.38267,1.38927
347.14160,1.41389
346.90053,1.43655
346.65946,1.44561
346.41839,1.43749
346.17732,1.41993
345.93625,1.40978
345.69518,1.42024
345.45411,1.44725
345.21304,1.47089
344.97197,1.47792
344.73090,1.47906
344.48983,1.49123
344.24875,1.51222
344.00768,1.52395
343.76661,1.51798
343.52554,1.50628
343.28447,1.50773
343.04340,1.52868
342.80233,1.55718
342.56126,1.57617
342.32019,1.58185
342.07912,1.58624
341.83805,1.59518
341.59698,1.59756
341.35591,1.58636
341.11484,1.57191
340.87377,1.56741
340.63270,1.57860
340.39163,1.60615
340.15056,1.64857
339.90948,1.70006
339.66841,1.75095
339.42734,1.78929
339.18627,1.81344
338.94520,1.82593
338.70413,1.81155
338.46306,1.77285
338.22199,1.73622
337.98092,1.71689
337.73985,1.71483
337.49878,1.72757
337.25771,1.75712
337.01664,1.80178
336.77557,1.86630
336.53450,1.98576
336.29343,2.17645
336.05236,2.36012
335.81129,2.39613
335.57021,2.23225
335.32914,2.05921
335.08807,1.96732
334.84700,1.94197
334.60593,1.94062
334.36486,1.92340
334.12379,1.89009
333.88272,1.88345
333.64165,1.91285
333.40058,1.92069
333.15951,1.86439
332.91844,1.77750
332.67737,1.69437
332.43630,1.64069
332.19523,1.62727
331.95416,1.64017
331.71309,1.65415
331.47202,1.66272
331.23094,1.67677
330.98987,1.68970
330.74880,1.68164
330.50773,1.65790
330.26666,1.63944
330.02559,1.63098
329.78452,1.62366
329.54345,1.59542
329.30238,1.54157
329.06131,1.50371
328.82024,1.51566
328.57917,1.57112
328.33810,1.62549
328.09703,1.63614
327.85596,1.61363
327.61489,1.58717
327.37382,1.56711
327.13275,1.55814
326.89167,1.57022
326.65060,1.60499
326.40953,1.65010
326.16846,1.68961
325.92739,1.70329
325.68632,1.69320
325.44525,1.68124
325.20418,1.68075
324.96311,1.69815
324.72204,1.73189
324.48097,1.76998
324.23990,1.79804
323.99883,1.82134
323.75776,1.83968
323.51669,1.81533
323.27562,1.76216
323.03455,1.73460
322.79348,1.75555
322.55240,1.80512
322.31133,1.83444
322.07026,1.83103
321.82919,1.82142
321.58812,1.84450
321.34705,1.92935
321.10598,2.03857
320.86491,2.09054
320.62384,2.10810
320.38277,2.15564
320.14170,2.17756
319.90063,2.15720
319.65956,2.08208
319.41849,1.99348
319.17742,1.99881
318.93635,2.13585
318.69528,2.28273
318.45421,2.24692
318.21313,2.12583
317.97206,2.04631
317.73099,2.01429
317.48992,1.99254
317.24885,1.97381
317.00778,1.96221
316.76671,1.98194
316.52564,2.01751
316.28457,2.05061
316.04350,2.09146
315.80243,2.08375
315.56136,2.00810
315.32029,1.91963
315.07922,1.84906
314.83815,1.81787
314.59708,1.86201
314.35601,2.01924
314.11494,2.26730
313.87386,2.40241
313.63279,2.28138
313.39172,2.15727
313.15065,2.22773
312.90958,2.25621
312.66851,2.17287
312.42744,2.11033
312.18637,2.12723
311.94530,2.19337
311.70423,2.26857
311.46316,2.45316
311.22209,2.78385
310.98102,2.70846
310.73995,2.48386
310.49888,2.45697
310.25781,2.46376
310.01674,2.34295
309.77567,2.23407
309.53459,2.22302
309.29352,2.26824
309.05245,2.28650
308.81138,2.27260
308.57031,2.23352
308.32924,2.21041
308.08817,2.21488
307.84710,2.20428
307.60603,2.15559
307.36496,2.04677
307.12389,1.92138
306.88282,1.83655
306.64175,1.79723
306.40068,1.79074
306.15961,1.81009
305.91854,1.83734
305.67747,1.83508
305.43640,1.80071
305.19532,1.77223
304.95425,1.75332
304.71318,1.71337
304.47211,1.65195
304.23104,1.60660
303.98997,1.59028
303.74890,1.57690
303.50783,1.54383
303.26676,1.50316
303.02569,1.47263
302.78462,1.45315
302.54355,1.43508
302.30248,1.41310
302.06141,1.39661
301.82034,1.39568
301.57927,1.40202
301.33820,1.39442
301.09713,1.36745
300.85605,1.33925
300.61498,1.32458
300.37391,1.31780
300.13284,1.30608
299.89177,1.28863
299.65070,1.27402
299.40963,1.26643
299.16856,1.26325
298.92749,1.26166
298.68642,1.26207
298.44535,1.26472
298.20428,1.26500
297.96321,1.25721
297.72214,1.24419
297.48107,1.23408
297.24000,1.22760
296.99893,1.21722
296.75786,1.20068
296.51678,1.18584
296.27571,1.17841
296.03464,1.17494
295.79357,1.17080
295.55250,1.16651
295.31143,1.16121
295.07036,1.14985
294.82929,1.13261
294.58822,1.11803
294.34715,1.11326
294.10608,1.11680
293.86501,1.12100
293.62394,1.11876
293.38287,1.10991
293.14180,1.10172
292.90073,1.10101
292.65966,1.10662
292.41859,1.11183
292.17751,1.11311
291.93644,1.11295
291.69537,1.11436
291.45430,1.11586
291.21323,1.11285
290.97216,1.10405
290.73109,1.09454
290.49002,1.09024
290.24895,1.09030
290.00788,1.08810
289.76681,1.07956
289.52574,1.06684
289.28467,1.05439
289.04360,1.04550
288.80253,1.04166
288.56146,1.04117
288.32039,1.04087
288.07932,1.04047
287.83824,1.04155
287.59717,1.04314
287.35610,1.04293
287.11503,1.04138
286.87396,1.04057
286.63289,1.04077
286.39182,1.04073
286.15075,1.03927
285.90968,1.03569
285.66861,1.03027
285.42754,1.02427
285.18647,1.01928
284.94540,1.01629
284.70433,1.01497
284.46326,1.01494
284.22219,1.01753
283.98112,1.02433
283.74005,1.03276
283.49897,1.03659
283.25790,1.03283
283.01683,1.02458
282.77576,1.01614
282.53469,1.00973
282.29362,1.00641
282.05255,1.00611
281.81148,1.00698
281.57041,1.00749
281.32934,1.00817
281.08827,1.01009
280.84720,1.01337
280.60613,1.01715
280.36506,1.01951
280.12399,1.01834
279.88292,1.01420
279.64185,1.01088
279.40078,1.01142
279.15970,1.01488
278.91863,1.01824
278.67756,1.02021
278.43649,1.02176
278.19542,1.02381
277.95435,1.02592
277.71328,1.02638
277.47221,1.02380
277.23114,1.01937
276.99007,1.01641
276.74900,1.01650
276.50793,1.01814
276.26686,1.02007
276.02579,1.02311
275.78472,1.02699
275.54365,1.02830
275.30258,1.02458
275.06151,1.01819
274.82043,1.01351
274.57936,1.01205
274.33829,1.01233
274.09722,1.01271
273.85615,1.01204
273.61508,1.00941
273.37401,1.00613
273.13294,1.00610
272.89187,1.01131
272.65080,1.01886
272.40973,1.02509
272.16866,1.03044
271.92759,1.03697
271.68652,1.04317
271.44545,1.04507
271.20438,1.04251
270.96331,1.04014
270.72224,1.04146
270.48116,1.04501
270.24009,1.04757
269.99902,1.04849
269.75795,1.04953
269.51688,1.05176
269.27581,1.05437
269.03474,1.05643
268.79367,1.05911
268.55260,1.06540
268.31153,1.07586
268.07046,1.08523
267.82939,1.08621
267.58832,1.07744
267.34725,1.06558
267.10618,1.05905
266.86511,1.06144
266.62404,1.07033
266.38297,1.08079
266.14189,1.09023
265.90082,1.10008
265.65975,1.11256
265.41868,1.12668
265.17761,1.13819
264.93654,1.14371
264.69547,1.14392
264.45440,1.14261
264.21333,1.14364
263.97226,1.14938
263.73119,1.16076
263.49012,1.17555
263.24905,1.18811
263.00798,1.19514
262.76691,1.19971
262.52584,1.20694
262.28477,1.21776
262.04370,1.22768
261.80262,1.23387
261.56155,1.24018
261.32048,1.25233
261.07941,1.27206
260.83834,1.29536
260.59727,1.31511
260.35620,1.32595
260.11513,1.33074
259.87406,1.34015
259.63299,1.36023
259.39192,1.38556
259.15085,1.40731
258.90978,1.42526
258.66871,1.44827
258.42764,1.48146
258.18657,1.51679
257.94550,1.54307
257.70443,1.56175
257.46335,1.58401
257.22228,1.61841
256.98121,1.66518
256.74014,1.71791
256.49907,1.77064
256.25800,1.81661
256.01693,1.85031
255.77586,1.87799
255.53479,1.91783
255.29372,1.98677
255.05265,2.07238
254.81158,2.12533
254.57051,2.13408
254.32944,2.13405
254.08837,2.14539
253.84730,2.17019
253.60623,2.19008
253.36516,2.17765
253.12408,2.13941
252.88301,2.11439
252.64194,2.11474
252.40087,2.15362
252.15980,2.25452
251.91873,2.35769
251.67766,2.37353
251.43659,2.37800
251.19552,2.46330
250.95445,2.74592
250.71338,2.72279
250.47231,2.56596
250.23124,2.49091
249.99017,2.41782
249.74910,2.42511
249.50803,2.52523
249.26696,2.56222
249.02589,2.43942
248.78481,2.45937
248.54374,2.57593
248.30267,2.53189
248.06160,2.49919
247.82053,2.38721
247.57946,2.25922
247.33839,2.30825
247.09732,2.50531
246.85625,2.52027
246.61518,2.36293
246.37411,2.25101
246.13304,2.21558
245.89197,2.17184
245.65090,2.10132
245.40983,2.05910
245.16876,2.05784
244.92769,2.05096
244.68661,1.99402
244.44554,1.90126
244.20447,1.80713
243.96340,1.73225
243.72233,1.67596
243.48126,1.62697
243.24019,1.57716
242.99912,1.52004
242.75805,1.45637
242.51698,1.39462
242.27591,1.33769
242.03484,1.28350
241.79377,1.23405
241.55270,1.19424
241.31163,1.16238
241.07056,1.12948
240.82949,1.09074
240.58842,1.05139
240.34734,1.01815
240.10627,0.99247
239.86520,0.97197
239.62413,0.95349
239.38306,0.93418
239.14199,0.91240
238.90092,0.88922
238.65985,0.86718
238.41878,0.84777
238.17771,0.83163
237.93664,0.81943
237.69557,0.81059
237.45450,0.80248
237.21343,0.79328
236.97236,0.78424
236.73129,0.77723
236.49022,0.77161
236.24915,0.76517
236.00807,0.75679
235.76700,0.74676
235.52593,0.73600
235.28486,0.72660
235.04379,0.72110
234.80272,0.71900
234.56165,0.71665
234.32058,0.71237
234.07951,0.70805
233.83844,0.70387
233.59737,0.69703
233.35630,0.68767
233.11523,0.68024
232.87416,0.67809
232.63309,0.68046
232.39202,0.68473
232.15095,0.68861
231.90988,0.69046
231.66880,0.68974
231.42773,0.68669
231.18666,0.68158
230.94559,0.67549
230.70452,0.67090
230.46345,0.66978
230.22238,0.67125
229.98131,0.67259
229.74024,0.67237
229.49917,0.67130
229.25810,0.66992
229.01703,0.66761
228.77596,0.66509
228.53489,0.66513
228.29382,0.66846
228.05275,0.67145
227.81168,0.67060
227.57061,0.66738
227.32953,0.66559
227.08846,0.66610
226.84739,0.66713
226.60632,0.66790
226.36525,0.66933
226.12418,0.67206
225.88311,0.67533
225.64204,0.67793
225.40097,0.67936
225.15990,0.67995
224.91883,0.67988
224.67776,0.67929
224.43669,0.67922
224.19562,0.68128
223.95455,0.68591
223.71348,0.69149
223.47241,0.69556
223.23134,0.69686
222.99026,0.69646
222.74919,0.69702
222.50812,0.70074
222.26705,0.70755
222.02598,0.71512
221.78491,0.72099
221.54384,0.72516
221.30277,0.73034
221.06170,0.73871
220.82063,0.74925
220.57956,0.75847
220.33849,0.76402
220.09742,0.76699
219.85635,0.77031
219.61528,0.77589
219.37421,0.78442
219.13314,0.79626
218.89207,0.81072
218.65099,0.82590
218.40992,0.84057
218.16885,0.85444
217.92778,0.86621
217.68671,0.87452
217.44564,0.88037
217.20457,0.88552
216.96350,0.89021
216.72243,0.89539
216.48136,0.90435
216.24029,0.91930
215.99922,0.93845
215.75815,0.95843
215.51708,0.97753
215.27601,0.99464
215.03494,1.00633
214.79387,1.00937
214.55280,1.00692
214.31172,1.00770
214.07065,1.01695
213.82958,1.03151
213.58851,1.04518
213.34744,1.05489
213.10637,1.06103
212.86530,1.06543
212.62423,1.06991
212.38316,1.07485
212.14209,1.07874
211.90102,1.08002
211.65995,1.07918
211.41888,1.07854
211.17781,1.08079
210.93674,1.08658
210.69567,1.09174
210.45460,1.09018
210.21353,1.08299
209.97245,1.07898
209.73138,1.08256
209.49031,1.08779
209.24924,1.08808
209.00817,1.08485
208.76710,1.08104
208.52603,1.07437
208.28496,1.06416
208.04389,1.05637
207.80282,1.05416
207.56175,1.05131
207.32068,1.04169
207.07961,1.02914
206.83854,1.02124
206.59747,1.01908
206.35640,1.01837
206.11533,1.01541
205.87426,1.00804
205.63318,0.99496
205.39211,0.97827
205.15104,0.96332
204.90997,0.95366
204.66890,0.94782
204.42783,0.94171
204.18676,0.93316
203.94569,0.92232
203.70462,0.90894
203.46355,0.89297
203.22248,0.87685
202.98141,0.86297
202.74034,0.85013
202.49927,0.83588
202.25820,0.82091
202.01713,0.80771
201.77606,0.79736
201.53499,0.78905
201.29391,0.78096
201.05284,0.77133
200.81177,0.75969
200.57070,0.74712
200.32963,0.73496
200.08856,0.72376
199.84749,0.71319
199.60642,0.70288
199.36535,0.69294
199.12428,0.68385
198.88321,0.67584
198.64214,0.66820
198.40107,0.65971
198.16000,0.65021
197.91893,0.64099
197.67786,0.63283
197.43679,0.62440
197.19572,0.61396
196.95464,0.60215
196.71357,0.59177
196.47250,0.58485
196.23143,0.58059
195.99036,0.57633
195.74929,0.57036
195.50822,0.56364
195.26715,0.55848
195.02608,0.55598
194.78501,0.55493
194.54394,0.55287
194.30287,0.54780
194.06180,0.53975
193.82073,0.53089
193.57966,0.52409
193.33859,0.52054
193.09752,0.51870
192.85645,0.51603
192.61537,0.51136
192.37430,0.50568
192.13323,0.50063
191.89216,0.49689
191.65109,0.49398
191.41002,0.49144
191.16895,0.48936
190.92788,0.48745
190.68681,0.48513
190.44574,0.48266
190.20467,0.48108
189.96360,0.48072
189.72253,0.48082
189.48146,0.48040
189.24039,0.47906
188.99932,0.47728
188.75825,0.47588
188.51718,0.47502
188.27610,0.47430
188.03503,0.47387
187.79396,0.47380
187.55289,0.47281
187.31182,0.46984
187.07075,0.46607
186.82968,0.46361
186.58861,0.46305
186.34754,0.46345
186.10647,0.46374
185.86540,0.46346
185.62433,0.46293
185.38326,0.46287
185.14219,0.46351
184.90112,0.46425
184.66005,0.46467
184.41898,0.46524
184.17791,0.46663
183.93683,0.46885
183.69576,0.47137
183.45469,0.47369
183.21362,0.47561
182.97255,0.47733
182.73148,0.47906
182.49041,0.48064
182.24934,0.48213
182.00827,0.48392
181.76720,0.48625
181.52613,0.48894
181.28506,0.49183
181.04399,0.49428
180.80292,0.49490
180.56185,0.49336
180.32078,0.49174
180.07971,0.49275
179.83864,0.49693
179.59756,0.50262
179.35649,0.50803
179.11542,0.51253
178.87435,0.51685
178.63328,0.52251
178.39221,0.53048
178.15114,0.54025
177.91007,0.55070
177.66900,0.56156
177.42793,0.57299
177.18686,0.58470
176.94579,0.59662
176.70472,0.60906
176.46365,0.62188
176.22258,0.63447
175.98151,0.64652
175.74044,0.65861
175.49937,0.67290
175.25829,0.69205
175.01722,0.71600
174.77615,0.74100
174.53508,0.76308
174.29401,0.78084
174.05294,0.79464
173.81187,0.80565
173.57080,0.81589
173.32973,0.82724
173.08866,0.83975
172.84759,0.85110
172.60652,0.85867
172.36545,0.86270
172.12438,0.86626
171.88331,0.87125
171.64224,0.87616
171.40117,0.87815
171.16010,0.87655
170.91902,0.87319
170.67795,0.86967
170.43688,0.86636
170.19581,0.86282
169.95474,0.85753
169.71367,0.84847
169.47260,0.83622
169.23153,0.82527
168.99046,0.81969
168.74939,0.81836
168.50832,0.81661
168.26725,0.81211
168.02618,0.80711
167.78511,0.80470
167.54404,0.80531
167.30297,0.80762
167.06190,0.81061
166.82083,0.81319
166.57975,0.81445
166.33868,0.81618
166.09761,0.82224
165.85654,0.83289
165.61547,0.84355
165.37440,0.85073
165.13333,0.85555
164.89226,0.86001
164.65119,0.86427
164.41012,0.86868
164.16905,0.87477
163.92798,0.88335
163.68691,0.89393
163.44584,0.90575
163.20477,0.91821
162.96370,0.93045
162.72263,0.94155
162.48156,0.95107
162.24048,0.95950
161.99941,0.96855
161.75834,0.97851
161.51727,0.98568
161.27620,0.98618
161.03513,0.98202
160.79406,0.97905
160.55299,0.97958
160.31192,0.98027
160.07085,0.97617
159.82978,0.96547
159.58871,0.95111
159.34764,0.93750
159.10657,0.92657
158.86550,0.91809
158.62443,0.91213
158.38336,0.90854
158.14229,0.90549
157.90121,0.90124
157.66014,0.89613
157.41907,0.89141
157.17800,0.88700
156.93693,0.88191
156.69586,0.87609
156.45479,0.87058
156.21372,0.86611
155.97265,0.86302
155.73158,0.86140
155.49051,0.85972
155.24944,0.85509
155.00837,0.84679
154.76730,0.83718
154.52623,0.82777
154.28516,0.81714
154.04409,0.80344
153.80302,0.78704
153.56194,0.77002
153.32087,0.75368
153.07980,0.73759
152.83873,0.72116
152.59766,0.70515
152.35659,0.68993
152.11552,0.67405
151.87445,0.65626
151.63338,0.63726
151.39231,0.61866
151.15124,0.60181
150.91017,0.58775
150.66910,0.57633
150.42803,0.56561
150.18696,0.55368
149.94589,0.54099
149.70482,0.52950
149.46375,0.52025
149.22267,0.51274
148.98160,0.50639
148.74053,0.50108
148.49946,0.49625
148.25839,0.49077
148.01732,0.48444
147.77625,0.47855
147.53518,0.47446
147.29411,0.47222
147.05304,0.47097
146.81197,0.47009
146.57090,0.46964
146.32983,0.47032
146.08876,0.47308
145.84769,0.47829
145.60662,0.48500
145.36555,0.49193
145.12448,0.49898
144.88340,0.50680
144.64233,0.51469
144.40126,0.52055
144.16019,0.52299
143.91912,0.52220
143.67805,0.51907
143.43698,0.51447
143.19591,0.50923
142.95484,0.50369
142.71377,0.49721
142.47270,0.48885
142.23163,0.47888
141.99056,0.46900
141.74949,0.46068
141.50842,0.45388
141.26735,0.44770
141.02628,0.44189
140.78521,0.43712
140.54413,0.43411
140.30306,0.43301
140.06199,0.43325
139.82092,0.43420
139.57985,0.43603
139.33878,0.43933
139.09771,0.44398
138.85664,0.44939
138.61557,0.45587
138.37450,0.46470
138.13343,0.47627
137.89236,0.48954
137.65129,0.50335
137.41022,0.51756
137.16915,0.53264
136.92808,0.54910
136.68701,0.56684
136.44594,0.58454
136.20486,0.60112
135.96379,0.61874
135.72272,0.64206
135.48165,0.67237
135.24058,0.70513
134.99951,0.73544
134.75844,0.76303
134.51737,0.78905
134.27630,0.81232
134.03523,0.83216
133.79416,0.85091
133.55309,0.87119
133.31202,0.89355
133.07095,0.91678
132.82988,0.93764
132.58881,0.95152
132.34774,0.95618
132.10667,0.95392
131.86559,0.94864
131.62452,0.94294
131.38345,0.93763
131.14238,0.93092
130.90131,0.91955
130.66024,0.90188
130.41917,0.87819
130.17810,0.84915
129.93703,0.81647
129.69596,0.78272
129.45489,0.74929
129.21382,0.71695
128.97275,0.68681
128.73168,0.65870
128.49061,0.63087
128.24954,0.60283
128.00847,0.57606
127.76740,0.55177
127.52632,0.53030
127.28525,0.51207
127.04418,0.49700
126.80311,0.48369
126.56204,0.47042
126.32097,0.45627
126.07990,0.44137
125.83883,0.42678
125.59776,0.41388
125.35669,0.40313
125.11562,0.39381
124.87455,0.38512
124.63348,0.37660
124.39241,0.36816
124.15134,0.36019
123.91027,0.35336
123.66920,0.34801
123.42812,0.34390
123.18705,0.34082
122.94598,0.33877
122.70491,0.33743
122.46384,0.33640
122.22277,0.33588
121.98170,0.33652
121.74063,0.33817
121.49956,0.33982
121.25849,0.34165
121.01742,0.34591
120.77635,0.35443
120.53528,0.36623
120.29421,0.37875
120.05314,0.39138
119.81207,0.40550
119.57100,0.42140
119.32993,0.43766
119.08885,0.45414
118.84778,0.47325
118.60671,0.49742
118.36564,0.52629
118.12457,0.55634
117.88350,0.58301
117.64243,0.60420
117.40136,0.62149
117.16029,0.63686
116.91922,0.64858
116.67815,0.65204
116.43708,0.64562
116.19601,0.63339
115.95494,0.62046
115.71387,0.60821
115.47280,0.59569
115.23173,0.58278
114.99066,0.57013
114.74958,0.55791
114.50851,0.54635
114.26744,0.53644
114.02637,0.52947
113.78530,0.52674
113.54423,0.52832
113.30316,0.53154
113.06209,0.53345
112.82102,0.53500
112.57995,0.53896
112.33888,0.54443
112.09781,0.54773
111.85674,0.54857
111.61567,0.55137
111.37460,0.55968
111.13353,0.57191
110.89246,0.58279
110.65139,0.58732
110.41031,0.58358
110.16924,0.57384
109.92817,0.56243
109.68710,0.55135
109.44603,0.53939
109.20496,0.52537
108.96389,0.50988
108.72282,0.49337
108.48175,0.47536
108.24068,0.45596
107.99961,0.43665
107.75854,0.41906
107.51747,0.40370
107.27640,0.38949
107.03533,0.37482
106.79426,0.35969
106.55319,0.34595
106.31212,0.33478
106.07104,0.32555
105.82997,0.31718
105.58890,0.30922
105.34783,0.30148
105.10676,0.29389
104.86569,0.28620
104.62462,0.27801
104.38355,0.26941
104.14248,0.26104
103.90141,0.25311
103.66034,0.24541
103.41927,0.23867
103.17820,0.23408
102.93713,0.23145
102.69606,0.22941
102.45499,0.22740
102.21392,0.22551
101.97285,0.22305
101.73177,0.21901
101.49070,0.21394
101.24963,0.20985
101.00856,0.20771
100.76749,0.20587
100.52642,0.20203
100.28535,0.19638
100.04428,0.19133
99.80321,0.18829
99.56214,0.18649
99.32107,0.18470
99.08000,0.18260
98.83893,0.18058
98.59786,0.17939
98.35679,0.17967
98.11572,0.18108
97.87465,0.18252
97.63358,0.18363
97.39250,0.18516
97.15143,0.18744
96.91036,0.19013
96.66929,0.19372
96.42822,0.19948
96.18715,0.20764
95.94608,0.21670
95.70501,0.22504
95.46394,0.23227
95.22287,0.23895
94.98180,0.24529
94.74073,0.25023
94.49966,0.25255
94.25859,0.25290
94.01752,0.25304
93.77645,0.25350
93.53538,0.25384
93.29431,0.25430
93.05323,0.25537
92.81216,0.25647
92.57109,0.25681
92.33002,0.25650
92.08895,0.25645
91.84788,0.25810
91.60681,0.26310
91.36574,0.27237
91.12467,0.28606
90.88360,0.30454
90.64253,0.32847
90.40146,0.35768
90.16039,0.39094
89.91932,0.42688
89.67825,0.46452
89.43718,0.50256
89.19611,0.53821
88.95504,0.56728
88.71396,0.58577
88.47289,0.59046
88.23182,0.57822
87.99075,0.54831
87.74968,0.50592
87.50861,0.46005
87.26754,0.41764
87.02647,0.38100
86.78540,0.34943
86.54433,0.32169
86.30326,0.29722
86.06219,0.27588
85.82112,0.25764
85.58005,0.24232
85.33898,0.22889
85.09791,0.21554
84.85684,0.20126
84.61577,0.18683
84.37469,0.17404
84.13362,0.16416
83.89255,0.15743
83.65148,0.15315
83.41041,0.15012
83.16934,0.14703
82.92827,0.14305
82.68720,0.13837
82.44613,0.13390
82.20506,0.13012
81.96399,0.12654
81.72292,0.12287
81.48185,0.12009
81.24078,0.11955
80.99971,0.12087
80.75864,0.12209
80.51757,0.12181
80.27650,0.12024
80.03542,0.11803
79.79435,0.11571
79.55328,0.11381
79.31221,0.11226
79.07114,0.11035
78.83007,0.10816
78.58900,0.10670
78.34793,0.10618
78.10686,0.10551
77.86579,0.10409
77.62472,0.10279
77.38365,0.10251
77.14258,0.10291
76.90151,0.10321
76.66044,0.10370
76.41937,0.10493
76.17830,0.10591
75.93723,0.10479
75.69615,0.10131
75.45508,0.09703
75.21401,0.09347
74.97294,0.09117
74.73187,0.09024
74.49080,0.09073
74.24973,0.09225
74.00866,0.09376
73.76759,0.09428
73.52652,0.09377
73.28545,0.09290
73.04438,0.09208
72.80331,0.09148
72.56224,0.09128
72.32117,0.09151
72.08010,0.09196
71.83903,0.09292
71.59796,0.09527
71.35688,0.09926
71.11581,0.10376
70.87474,0.10768
70.63367,0.11156
70.39260,0.11692
70.15153,0.12448
69.91046,0.13405
69.66939,0.14535
69.42832,0.15728
69.18725,0.16662
68.94618,0.16943
68.70511,0.16457
68.46404,0.15429
68.22297,0.14158
67.98190,0.12843
67.74083,0.11642
67.49976,0.10726
67.25869,0.10170
67.01761,0.09867
66.77654,0.09653
66.53547,0.09457
66.29440,0.09285
66.05333,0.09149
65.81226,0.09085
65.57119,0.09153
65.33012,0.09378
65.08905,0.09712
64.84798,0.10082
64.60691,0.10467
64.36584,0.10891
64.12477,0.11289
63.88370,0.11486
63.64263,0.11421
63.40156,0.11247
63.16049,0.11043
62.91942,0.10677
62.67834,0.10091
62.43727,0.09480
62.19620,0.09053
61.95513,0.08780
61.71406,0.08493
61.47299,0.08111
61.23192,0.07687
60.99085,0.07298
60.74978,0.06990
60.50871,0.06828
60.26764,0.06910
60.02657,0.07223
59.78550,0.07555
59.54443,0.07715
59.30336,0.07755
59.06229,0.07821
58.82122,0.07895
58.58015,0.07827
58.33907,0.07542
58.09800,0.07110
57.85693,0.06686
57.61586,0.06425
57.37479,0.06388
57.13372,0.06488
56.89265,0.06515
56.65158,0.06290
56.41051,0.05835
56.16944,0.05387
55.92837,0.05190
55.68730,0.05314
55.44623,0.05656
55.20516,0.06014
54.96409,0.06203
54.72302,0.06213
54.48195,0.06194
54.24088,0.06208
53.99980,0.06142
53.75873,0.05996
53.51766,0.06017
53.27659,0.06366
53.03552,0.06830
52.79445,0.07057
52.55338,0.06931
52.31231,0.06571
52.07124,0.06113
51.83017,0.05672
51.58910,0.05396
51.34803,0.05342
51.10696,0.05397
50.86589,0.05454
50.62482,0.05571
50.38375,0.05831
50.14268,0.06133
49.90161,0.06236
49.66053,0.06017
49.41946,0.05566
49.17839,0.05060
48.93732,0.04636
48.69625,0.04301
48.45518,0.03928
48.21411,0.03534
47.97304,0.03464
47.73197,0.03966
47.49090,0.04687
47.24983,0.04996
47.00876,0.04730
46.76769,0.04295
46.52662,0.04097
46.28555,0.04219
46.04448,0.04532
45.80341,0.04794
45.56234,0.04762
45.32126,0.04410
45.08019,0.04009
44.83912,0.03845
44.59805,0.03965
44.35698,0.04186
44.11591,0.04246
43.87484,0.03995
43.63377,0.03595
43.39270,0.03417
43.15163,0.03569
42.91056,0.03724
42.66949,0.03654
42.42842,0.03589
42.18735,0.03770
41.94628,0.03985
41.70521,0.03916
41.46414,0.03621
41.22307,0.03444
40.98199,0.03685
40.74092,0.04351
40.49985,0.05057
40.25878,0.05333
40.01771,0.05218
39.77664,0.05227
39.53557,0.05644
39.29450,0.06182
39.05343,0.06448
38.81236,0.06474
38.57129,0.06689
38.33022,0.07533
38.08915,0.09132
37.84808,0.10943
37.60701,0.11822
37.36594,0.11020
37.12487,0.09037
36.88380,0.07248
36.64272,0.06620
36.40165,0.06928
36.16058,0.07322
35.91951,0.07331
35.67844,0.07219
35.43737,0.07455
35.19630,0.08032
34.95523,0.08362
34.71416,0.07806
34.47309,0.06291
34.23202,0.04602
33.99095,0.04311
33.74988,0.06502
33.50881,0.10005
33.26774,0.12162
33.02667,0.11781
32.78560,0.10534
32.54453,0.10543
32.30345,0.11533
32.06238,0.11769
31.82131,0.10919
31.58024,0.10588
31.33917,0.11821
31.09810,0.13250
30.85703,0.12959
30.61596,0.11008
30.37489,0.08933
30.13382,0.07472
29.89275,0.06052
29.65168,0.04821
29.41061,0.05108
29.16954,0.07585
28.92847,0.11628
28.68740,0.15923
28.44633,0.18927
28.20526,0.19270
27.96418,0.16768
27.72311,0.13839
27.48204,0.13474
27.24097,0.15892
26.99990,0.18610
26.75883,0.18877
26.51776,0.17100
26.27669,0.16385
26.03562,0.18593
25.79455,0.23067
25.55348,0.26705
25.31241,0.26322
25.07134,0.21872
24.83027,0.15491
24.58920,0.10618
24.34813,0.10381
24.10706,0.16240
23.86599,0.27298
23.62491,0.39658
23.38384,0.46304
23.14277,0.43851
22.90170,0.37261
22.66063,0.31826
22.41956,0.30901
22.17849,0.34637
21.93742,0.40621
21.69635,0.45464
21.45528,0.47955
21.21421,0.49844
20.97314,0.51576
20.73207,0.51460
20.49100,0.49881
20.24993,0.50107
20.00886,0.54055
19.76779,0.60183
19.52672,0.63895
19.28564,0.61815
19.04457,0.59129
18.80350,0.58210
18.56243,0.62848
18.32136,0.75845
18.08029,0.90284
17.83922,0.93539
17.59815,0.78498
17.35708,0.72074
17.11601,0.74555
16.87494,0.70962
16.63387,0.68321
16.39280,0.69758
16.15173,0.75435
15.91066,0.79057
15.66959,0.79015
15.42852,0.73984
15.18745,0.62099
14.94637,0.57048
14.70530,0.66477
14.46423,0.83394
14.22316,0.93963
13.98209,0.86543
13.74102,0.82013
13.49995,0.80350
13.25888,0.78862
13.01781,0.85504
12.77674,0.98023
12.53567,0.85903
12.29460,0.81733
12.05353,0.86264
11.81246,0.92444
11.57139,0.87942
11.33032,0.81378
11.08925,0.66756
10.84818,0.54116
10.60710,0.49332
10.36603,0.46724
10.12496,0.47359
9.88389,0.56415
9.64282,0.70064
9.40175,0.69523
9.16068,0.61823
8.91961,0.57339
8.67854,0.62793
8.43747,0.61753
8.19640,0.54067
7.95533,0.58279
7.71426,0.66962
7.47319,0.72202
7.23212,0.71511
6.99105,0.62258
6.74998,0.58507
6.50891,0.50910
6.26783,0.59917
6.02676,0.73846
5.78569,0.77770
5.54462,0.73097
5.30355,0.69557
5.06248,0.79608
4.82141,1.00241
4.58034,0.77120
4.33927,0.60177
4.09820,0.60098
3.85713,0.59363
3.61606,0.56180
3.37499,0.57439
3.13392,0.67734
2.89285,0.68553
2.65178,0.58415
2.41071,0.57461
2.16964,0.66667
1.92856,0.78146
1.68749,0.71421
1.44642,0.61731
1.20535,0.62346
0.96428,0.69861
0.72321,0.74065
0.48214,0.76240
0.24107,0.86545
-0.00000,0.30666
