399.69498,1.75337
399.45391,1.74115
399.21284,1.73198
398.97177,1.74212
398.73070,1.78097
398.48963,1.83031
398.24856,1.85791
398.00749,1.85487
397.76642,1.83708
397.52535,1.83465
397.28428,1.86324
397.04321,1.91000
396.80214,1.95896
396.56107,1.98969
396.32000,1.95663
396.07892,1.90132
395.83785,1.89256
395.59678,1.92732
395.35571,1.97489
395.11464,1.98788
394.87357,1.93803
394.63250,1.87048
394.39143,1.84366
394.15036,1.87115
393.90929,1.91901
393.66822,1.95494
393.42715,1.98252
393.18608,1.99528
392.94501,1.98443
392.70394,1.95145
392.46287,1.92028
392.22180,1.90835
391.98073,1.90215
391.73965,1.90607
391.49858,1.96685
391.25751,2.10279
391.01644,2.23640
390.77537,2.25471
390.53430,2.17619
390.29323,2.13701
390.05216,2.13455
389.81109,2.12401
389.57002,2.12679
389.32895,2.18014
389.08788,2.25166
388.84681,2.25659
388.60574,2.34315
388.36467,2.55357
388.12360,2.62988
387.88253,2.28802
387.64146,2.08743
387.40038,2.06841
387.15931,2.12368
386.91824,2.17411
386.67717,2.19885
386.43610,2.23583
386.19503,2.30548
385.95396,2.38917
385.71289,2.48736
385.47182,2.32892
385.23075,2.10568
384.98968,1.96087
384.74861,1.91269
384.50754,1.94473
384.26647,1.93542
384.02540,1.88684
383.78433,1.88378
383.54326,1.99337
383.30219,2.19646
383.06111,2.25880
382.82004,2.16744
382.57897,2.00124
382.33790,1.89260
382.09683,1.85211
381.85576,1.84221
381.61469,1.90607
381.37362,2.03261
381.13255,2.09782
380.89148,2.02479
380.65041,2.00437
380.40934,2.01761
380.16827,2.00100
379.92720,1.97611
379.68613,2.00978
379.44506,2.00656
379.20399,1.97626
378.96292,1.89460
378.72184,1.86278
378.48077,1.92336
378.23970,2.03990
377.99863,2.15546
377.75756,2.19157
377.51649,2.21733
377.27542,2.23378
377.03435,2.08211
376.79328,2.04706
376.55221,2.15207
376.31114,2.42943
376.07007,2.76990
375.82900,2.40391
375.58793,2.24209
375.34686,2.24137
375.10579,2.19397
374.86472,2.11302
374.62365,2.07621
374.38257,2.03906
374.14150,1.99008
373.90043,1.96454
373.65936,1.99565
373.41829,2.10224
373.17722,2.18358
372.93615,2.09398
372.69508,1.95711
372.45401,1.86916
372.21294,1.81499
371.97187,1.75574
371.73080,1.70334
371.48973,1.67737
371.24866,1.67228
371.00759,1.67163
370.76652,1.66851
370.52545,1.67213
370.28437,1.68556
370.04330,1.69050
369.80223,1.66684
369.56116,1.62887
369.32009,1.60196
369.07902,1.57802
368.83795,1.53957
368.59688,1.49471
368.35581,1.46452
368.11474,1.45749
367.87367,1.46841
367.63260,1.48802
367.39153,1.50546
367.15046,1.50801
366.90939,1.49155
366.66832,1.46859
366.42725,1.45597
366.18618,1.45205
365.94510,1.43726
365.70403,1.41051
365.46296,1.39739
365.22189,1.41717
364.98082,1.45840
364.73975,1.48523
364.49868,1.47858
364.25761,1.45470
364.01654,1.43823
363.77547,1.43860
363.53440,1.44780
363.29333,1.45029
363.05226,1.43563
362.81119,1.40907
362.57012,1.38780
362.32905,1.38234
362.08798,1.38488
361.84691,1.38042
361.60583,1.36691
361.36476,1.35682
361.12369,1.36273
360.88262,1.38401
360.64155,1.40772
360.40048,1.42344
360.15941,1.43311
359.91834,1.44223
359.67727,1.44651
359.43620,1.43647
359.19513,1.41556
358.95406,1.39881
358.71299,1.39454
358.47192,1.39674
358.23085,1.39410
357.98978,1.38374
357.74871,1.37199
357.50764,1.36798
357.26656,1.37677
357.02549,1.39446
356.78442,1.41093
356.54335,1.41472
356.30228,1.39974
356.06121,1.37678
355.82014,1.36170
355.57907,1.35440
355.33800,1.34458
355.09693,1.33135
354.85586,1.32381
354.61479,1.32572
354.37372,1.33298
354.13265,1.34159
353.89158,1.34731
353.65051,1.34579
353.40944,1.33993
353.16837,1.34076
352.92729,1.35603
352.68622,1.37945
352.44515,1.39527
352.20408,1.39463
351.96301,1.38229
351.72194,1.36472
351.48087,1.34716
351.23980,1.33983
350.99873,1.34727
350.75766,1.36175
350.51659,1.37378
350.27552,1.38355
350.03445,1.39664
349.79338,1.41113
349.55231,1.41631
349.31124,1.40849
349.07017,1.39850
348.82910,1.39554
348.58802,1.40201
348.34695,1.41819
348.10588,1.43726
347.86481,1.44835
347.62374,1.45089
347.38267,1.45012
347.14160,1.44645
346.90053,1.44065
346.65946,1.43756
346.41839,1.43796
346.17732,1.43811
345.93625,1.43967
345.69518,1.45052
345.45411,1.47366
345.21304,1.50136
344.97197,1.52154
344.73090,1.53049
344.48983,1.53272
344.24875,1.53062
344.00768,1.53214
343.76661,1.54463
343.52554,1.55683
343.28447,1.55502
343.04340,1.54388
342.80233,1.53933
342.56126,1.55124
342.32019,1.57813
342.07912,1.60977
341.83805,1.63461
341.59698,1.65479
341.35591,1.68101
341.11484,1.71796
340.87377,1.75956
340.63270,1.77564
340.39163,1.73392
340.15056,1.66742
339.90948,1.62186
339.66841,1.61544
339.42734,1.64398
339.18627,1.69354
338.94520,1.74270
338.70413,1.77621
338.46306,1.81373
338.22199,1.86295
337.98092,1.88327
337.73985,1.85516
337.49878,1.82978
337.25771,1.87335
337.01664,2.01660
336.77557,2.18611
336.53450,2.21540
336.29343,2.14181
336.05236,2.09444
335.81129,2.10445
335.57021,2.06339
335.32914,1.96326
335.08807,1.96444
334.84700,2.00017
334.60593,1.98376
334.36486,1.96351
334.12379,1.91888
333.88272,1.85523
333.64165,1.81340
333.40058,1.81304
333.15951,1.83304
332.91844,1.83299
332.67737,1.79367
332.43630,1.73441
332.19523,1.69664
331.95416,1.70871
331.71309,1.75621
331.47202,1.79236
331.23094,1.80435
330.98987,1.80485
330.74880,1.78334
330.50773,1.73413
330.26666,1.67838
330.02559,1.64754
329.78452,1.64430
329.54345,1.64217
329.30238,1.61980
329.06131,1.58855
328.82024,1.57586
328.57917,1.58499
328.33810,1.59245
328.09703,1.57948
327.85596,1.55325
327.61489,1.54737
327.37382,1.58278
327.13275,1.64773
326.89167,1.71280
326.65060,1.75000
326.40953,1.74208
326.16846,1.69245
325.92739,1.62987
325.68632,1.58865
325.44525,1.58358
325.20418,1.61257
324.96311,1.67409
324.72204,1.75746
324.48097,1.81957
324.23990,1.80496
323.99883,1.74900
323.75776,1.72517
323.51669,1.72378
323.27562,1.71501
323.03455,1.72186
322.79348,1.78012
322.55240,1.89791
322.31133,2.00991
322.07026,2.01395
321.82919,1.98023
321.58812,1.98564
321.34705,2.02142
321.10598,2.00290
320.86491,1.93379
320.62384,1.91116
320.38277,1.94696
320.14170,2.01006
319.90063,2.02733
319.65956,1.95076
319.41849,1.86314
319.17742,1.83791
318.93635,1.90253
318.69528,2.03597
318.45421,2.20087
318.21313,2.31354
317.97206,2.24480
317.73099,2.16174
317.48992,2.13096
317.24885,2.10984
317.00778,1.99995
316.76671,1.90513
316.52564,1.91327
316.28457,2.03023
316.04350,2.10736
315.80243,2.20442
315.56136,2.34404
315.32029,2.35121
315.07922,2.20363
314.83815,2.02454
314.59708,1.94664
314.35601,1.96100
314.11494,1.98060
313.87386,1.94577
313.63279,1.91582
313.39172,1.94390
313.15065,2.00509
312.90958,2.05671
312.66851,2.14741
312.42744,2.12355
312.18637,2.00848
311.94530,1.95641
311.70423,2.03804
311.46316,2.19645
311.22209,2.26842
310.98102,2.26363
310.73995,2.27780
310.49888,2.35706
310.25781,2.45336
310.01674,2.37197
309.77567,2.20366
309.53459,2.06848
309.29352,1.98293
309.05245,1.93763
308.81138,1.92107
308.57031,1.92465
308.32924,1.93892
308.08817,1.93870
307.84710,1.89354
307.60603,1.84260
307.36496,1.85578
307.12389,1.95274
306.88282,2.06105
306.64175,2.05455
306.40068,1.93881
306.15961,1.79787
305.91854,1.68676
305.67747,1.62478
305.43640,1.60794
305.19532,1.61940
304.95425,1.63451
304.71318,1.62660
304.47211,1.59581
304.23104,1.56738
303.98997,1.55254
303.74890,1.54335
303.50783,1.52787
303.26676,1.50126
303.02569,1.46855
302.78462,1.44134
302.54355,1.42938
302.30248,1.42938
302.06141,1.42466
301.82034,1.40360
301.57927,1.37541
301.33820,1.35885
301.09713,1.36072
300.85605,1.36872
300.61498,1.36182
300.37391,1.33369
300.13284,1.29831
299.89177,1.27141
299.65070,1.25839
299.40963,1.25505
299.16856,1.25431
298.92749,1.25313
298.68642,1.25392
298.44535,1.25705
298.20428,1.25642
297.96321,1.24713
297.72214,1.23181
297.48107,1.21587
297.24000,1.20273
296.99893,1.19462
296.75786,1.19155
296.51678,1.19144
296.27571,1.19325
296.03464,1.19572
295.79357,1.19547
295.55250,1.19100
295.31143,1.18463
295.07036,1.17685
294.82929,1.16514
294.58822,1.15146
294.34715,1.14289
294.10608,1.14194
293.86501,1.14208
293.62394,1.13594
293.38287,1.12445
293.14180,1.11375
292.90073,1.10736
292.65966,1.10519
292.41859,1.10594
292.17751,1.10837
291.93644,1.11241
291.69537,1.11827
291.45430,1.12376
291.21323,1.12442
290.97216,1.11779
290.73109,1.10623
290.49002,1.09411
290.24895,1.08447
290.00788,1.07820
289.76681,1.07533
289.52574,1.07626
289.28467,1.08006
289.04360,1.08235
288.80253,1.07863
288.56146,1.06929
288.32039,1.05824
288.07932,1.04817
287.83824,1.04075
287.59717,1.03921
287.35610,1.04512
287.11503,1.05351
286.87396,1.05609
286.63289,1.05107
286.39182,1.04520
286.15075,1.04475
285.90968,1.04862
285.66861,1.05108
285.42754,1.04857
285.18647,1.04237
284.94540,1.03621
284.70433,1.03321
284.46326,1.03476
284.22219,1.03929
283.98112,1.04194
283.74005,1.03918
283.49897,1.03390
283.25790,1.03195
283.01683,1.03508
282.77576,1.03933
282.53469,1.03829
282.29362,1.02937
282.05255,1.01897
281.81148,1.01647
281.57041,1.02212
281.32934,1.02657
281.08827,1.02402
280.84720,1.01909
280.60613,1.01804
280.36506,1.02072
280.12399,1.02347
279.88292,1.02487
279.64185,1.02593
279.40078,1.02682
279.15970,1.02688
278.91863,1.02703
278.67756,1.02921
278.43649,1.03330
278.19542,1.03561
277.95435,1.03243
277.71328,1.02511
277.47221,1.01903
277.23114,1.01722
276.99007,1.01770
276.74900,1.01776
276.50793,1.01835
276.26686,1.02245
276.02579,1.03029
275.78472,1.03765
275.54365,1.04011
275.30258,1.03835
275.06151,1.03617
274.82043,1.03428
274.57936,1.03072
274.33829,1.02667
274.09722,1.02642
273.85615,1.03127
273.61508,1.03730
273.37401,1.03982
273.13294,1.03870
272.89187,1.03770
272.65080,1.03912
272.40973,1.04250
272.16866,1.04650
271.92759,1.04883
271.68652,1.04713
271.44545,1.04370
271.20438,1.04409
270.96331,1.04942
270.72224,1.05626
270.48116,1.06245
270.24009,1.06722
269.99902,1.06925
269.75795,1.06954
269.51688,1.07063
269.27581,1.07179
269.03474,1.07105
268.79367,1.06985
268.55260,1.07046
268.31153,1.07190
268.07046,1.07250
267.82939,1.07460
267.58832,1.08245
267.34725,1.09484
267.10618,1.10376
266.86511,1.10450
266.62404,1.10232
266.38297,1.10459
266.14189,1.11210
265.90082,1.12090
265.65975,1.12864
265.41868,1.13703
265.17761,1.14824
264.93654,1.15969
264.69547,1.16532
264.45440,1.16357
264.21333,1.16008
263.97226,1.16163
263.73119,1.17192
263.49012,1.19101
263.24905,1.21430
263.00798,1.23347
262.76691,1.24215
262.52584,1.24221
262.28477,1.24140
262.04370,1.24554
261.80262,1.25644
261.56155,1.27548
261.32048,1.30324
261.07941,1.33281
260.83834,1.35163
260.59727,1.35562
260.35620,1.35561
260.11513,1.36670
259.87406,1.39415
259.63299,1.42856
259.39192,1.45431
259.15085,1.46677
258.90978,1.47472
258.66871,1.48380
258.42764,1.49185
258.18657,1.50042
257.94550,1.51991
257.70443,1.55964
257.46335,1.61304
257.22228,1.65694
256.98121,1.67539
256.74014,1.68047
256.49907,1.69996
256.25800,1.74996
256.01693,1.81796
255.77586,1.86738
255.53479,1.86748
255.29372,1.83319
255.05265,1.83268
254.81158,1.90920
254.57051,2.05591
254.32944,2.23434
254.08837,2.36907
253.84730,2.37160
253.60623,2.28473
253.36516,2.24864
253.12408,2.25392
252.88301,2.27954
252.64194,2.35726
252.40087,2.50158
252.15980,2.62033
251.91873,2.64060
251.67766,2.76423
251.43659,2.75957
251.19552,2.60153
250.95445,2.45896
250.71338,2.46830
250.47231,2.57555
250.23124,2.63598
249.99017,2.60017
249.74910,2.58571
249.50803,2.57243
249.26696,2.46501
249.02589,2.29007
248.78481,2.21671
248.54374,2.27600
248.30267,2.38819
248.06160,2.42550
247.82053,2.37031
247.57946,2.32604
247.33839,2.28793
247.09732,2.31243
246.85625,2.46712
246.61518,2.62020
246.37411,2.52687
246.13304,2.49254
245.89197,2.43351
245.65090,2.28310
245.40983,2.18422
245.16876,2.13555
244.92769,2.08468
244.68661,2.02298
244.44554,1.97527
244.20447,1.94306
243.96340,1.89481
243.72233,1.81106
243.48126,1.71220
243.24019,1.62466
242.99912,1.55433
242.75805,1.49981
242.51698,1.45733
242.27591,1.41926
242.03484,1.37837
241.79377,1.33154
241.55270,1.27949
241.31163,1.22473
241.07056,1.17227
240.82949,1.12820
240.58842,1.09421
240.34734,1.06598
240.10627,1.03874
239.86520,1.01212
239.62413,0.98743
239.38306,0.96271
239.14199,0.93518
238.90092,0.90621
238.65985,0.88002
238.41878,0.85938
238.17771,0.84450
237.93664,0.83349
237.69557,0.82298
237.45450,0.81081
237.21343,0.79795
236.97236,0.78637
236.73129,0.77682
236.49022,0.76940
236.24915,0.76392
236.00807,0.75941
235.76700,0.75464
235.52593,0.74849
235.28486,0.73996
235.04379,0.72956
234.80272,0.72049
234.56165,0.71605
234.32058,0.71610
234.07951,0.71732
233.83844,0.71648
233.59737,0.71298
233.35630,0.70835
233.11523,0.70414
232.87416,0.70100
232.63309,0.69900
232.39202,0.69782
232.15095,0.69704
231.90988,0.69682
231.66880,0.69754
231.42773,0.69858
231.18666,0.69810
230.94559,0.69508
230.70452,0.69089
230.46345,0.68812
230.22238,0.68858
229.98131,0.69178
229.74024,0.69451
229.49917,0.69342
229.25810,0.68923
229.01703,0.68576
228.77596,0.68462
228.53489,0.68419
228.29382,0.68359
228.05275,0.68402
227.81168,0.68604
227.57061,0.68794
227.32953,0.68713
227.08846,0.68252
226.84739,0.67622
226.60632,0.67255
226.36525,0.67392
226.12418,0.67818
225.88311,0.68114
225.64204,0.68170
225.40097,0.68258
225.15990,0.68606
224.91883,0.69094
224.67776,0.69409
224.43669,0.69402
224.19562,0.69257
223.95455,0.69319
223.71348,0.69740
223.47241,0.70307
223.23134,0.70680
222.99026,0.70802
222.74919,0.70972
222.50812,0.71499
222.26705,0.72368
222.02598,0.73249
221.78491,0.73843
221.54384,0.74194
221.30277,0.74610
221.06170,0.75309
220.82063,0.76261
220.57956,0.77289
220.33849,0.78158
220.09742,0.78739
219.85635,0.79220
219.61528,0.79995
219.37421,0.81165
219.13314,0.82365
218.89207,0.83245
218.65099,0.83889
218.40992,0.84589
218.16885,0.85511
217.92778,0.86723
217.68671,0.88207
217.44564,0.89721
217.20457,0.90911
216.96350,0.91740
216.72243,0.92625
216.48136,0.94030
216.24029,0.95997
215.99922,0.98044
215.75815,0.99563
215.51708,1.00365
215.27601,1.00776
215.03494,1.01292
214.79387,1.02312
214.55280,1.03961
214.31172,1.05865
214.07065,1.07255
213.82958,1.07643
213.58851,1.07461
213.34744,1.07723
213.10637,1.08950
212.86530,1.10617
212.62423,1.11794
212.38316,1.12248
212.14209,1.12523
211.90102,1.12938
211.65995,1.13130
211.41888,1.12808
211.17781,1.12354
210.93674,1.12276
210.69567,1.12611
210.45460,1.13068
210.21353,1.13377
209.97245,1.13447
209.73138,1.13342
209.49031,1.13133
209.24924,1.12877
209.00817,1.12732
208.76710,1.12776
208.52603,1.12778
208.28496,1.12599
208.04389,1.12542
207.80282,1.12718
207.56175,1.12606
207.32068,1.11700
207.07961,1.10143
206.83854,1.08428
206.59747,1.06880
206.35640,1.05488
206.11533,1.04132
205.87426,1.02863
205.63318,1.01877
205.39211,1.01259
205.15104,1.00809
204.90997,1.00202
204.66890,0.99270
204.42783,0.98064
204.18676,0.96698
203.94569,0.95222
203.70462,0.93669
203.46355,0.92183
203.22248,0.90950
202.98141,0.89948
202.74034,0.88844
202.49927,0.87295
202.25820,0.85385
202.01713,0.83599
201.77606,0.82333
201.53499,0.81540
201.29391,0.80762
201.05284,0.79562
200.81177,0.78000
200.57070,0.76500
200.32963,0.75314
200.08856,0.74342
199.84749,0.73403
199.60642,0.72456
199.36535,0.71534
199.12428,0.70650
198.88321,0.69808
198.64214,0.69007
198.40107,0.68174
198.16000,0.67177
197.91893,0.65981
197.67786,0.64771
197.43679,0.63781
197.19572,0.63003
196.95464,0.62212
196.71357,0.61291
196.47250,0.60383
196.23143,0.59691
195.99036,0.59237
195.74929,0.58829
195.50822,0.58231
195.26715,0.57405
195.02608,0.56556
194.78501,0.55889
194.54394,0.55411
194.30287,0.55039
194.06180,0.54734
193.82073,0.54448
193.57966,0.54063
193.33859,0.53508
193.09752,0.52809
192.85645,0.52044
192.61537,0.51330
192.37430,0.50810
192.13323,0.50506
191.89216,0.50277
191.65109,0.50011
191.41002,0.49745
191.16895,0.49528
190.92788,0.49326
190.68681,0.49078
190.44574,0.48775
190.20467,0.48488
189.96360,0.48300
189.72253,0.48196
189.48146,0.48077
189.24039,0.47907
188.99932,0.47743
188.75825,0.47605
188.51718,0.47461
188.27610,0.47325
188.03503,0.47251
187.79396,0.47218
187.55289,0.47167
187.31182,0.47113
187.07075,0.47108
186.82968,0.47124
186.58861,0.47113
186.34754,0.47137
186.10647,0.47274
185.86540,0.47455
185.62433,0.47551
185.38326,0.47531
185.14219,0.47418
184.90112,0.47255
184.66005,0.47186
184.41898,0.47363
184.17791,0.47712
183.93683,0.47998
183.69576,0.48114
183.45469,0.48130
183.21362,0.48145
182.97255,0.48232
182.73148,0.48445
182.49041,0.48737
182.24934,0.48977
182.00827,0.49110
181.76720,0.49215
181.52613,0.49392
181.28506,0.49681
181.04399,0.50035
180.80292,0.50313
180.56185,0.50375
180.32078,0.50286
180.07971,0.50294
179.83864,0.50529
179.59756,0.50896
179.35649,0.51307
179.11542,0.51848
178.87435,0.52611
178.63328,0.53522
178.39221,0.54426
178.15114,0.55246
177.91007,0.55993
177.66900,0.56720
177.42793,0.57530
177.18686,0.58543
176.94579,0.59774
176.70472,0.61123
176.46365,0.62609
176.22258,0.64407
175.98151,0.66472
175.74044,0.68414
175.49937,0.70049
175.25829,0.71733
175.01722,0.73827
174.77615,0.76199
174.53508,0.78474
174.29401,0.80410
174.05294,0.81903
173.81187,0.83016
173.57080,0.84097
173.32973,0.85470
173.08866,0.87002
172.84759,0.88287
172.60652,0.89223
172.36545,0.90071
172.12438,0.90974
171.88331,0.91750
171.64224,0.92174
171.40117,0.92187
171.16010,0.91825
170.91902,0.91180
170.67795,0.90413
170.43688,0.89693
170.19581,0.89107
169.95474,0.88583
169.71367,0.87919
169.47260,0.86963
169.23153,0.85848
168.99046,0.84915
168.74939,0.84346
168.50832,0.83982
168.26725,0.83534
168.02618,0.82901
167.78511,0.82252
167.54404,0.81887
167.30297,0.82046
167.06190,0.82763
166.82083,0.83811
166.57975,0.84835
166.33868,0.85584
166.09761,0.85992
165.85654,0.86119
165.61547,0.86169
165.37440,0.86476
165.13333,0.87293
164.89226,0.88543
164.65119,0.89843
164.41012,0.90877
164.16905,0.91752
163.92798,0.92790
163.68691,0.94041
163.44584,0.95228
163.20477,0.96148
162.96370,0.96931
162.72263,0.97790
162.48156,0.98728
162.24048,0.99616
161.99941,1.00370
161.75834,1.00956
161.51727,1.01392
161.27620,1.01792
161.03513,1.02180
160.79406,1.02248
160.55299,1.01600
160.31192,1.00328
160.07085,0.99034
159.82978,0.98204
159.58871,0.97790
159.34764,0.97494
159.10657,0.97257
158.86550,0.97249
158.62443,0.97402
158.38336,0.97298
158.14229,0.96704
157.90121,0.95842
157.66014,0.94920
157.41907,0.93913
157.17800,0.92944
156.93693,0.92401
156.69586,0.92476
156.45479,0.92838
156.21372,0.92888
155.97265,0.92285
155.73158,0.91174
155.49051,0.89884
155.24944,0.88566
155.00837,0.87249
154.76730,0.86103
154.52623,0.85317
154.28516,0.84685
154.04409,0.83665
153.80302,0.81997
153.56194,0.79996
153.32087,0.78096
153.07980,0.76431
152.83873,0.74876
152.59766,0.73218
152.35659,0.71347
152.11552,0.69416
151.87445,0.67682
151.63338,0.66184
151.39231,0.64800
151.15124,0.63450
150.91017,0.62071
150.66910,0.60549
150.42803,0.58871
150.18696,0.57186
149.94589,0.55648
149.70482,0.54342
149.46375,0.53318
149.22267,0.52567
148.98160,0.51986
148.74053,0.51424
148.49946,0.50778
148.25839,0.50076
148.01732,0.49438
147.77625,0.48945
147.53518,0.48612
147.29411,0.48458
147.05304,0.48487
146.81197,0.48641
146.57090,0.48856
146.32983,0.49095
146.08876,0.49299
145.84769,0.49445
145.60662,0.49679
145.36555,0.50184
145.12448,0.50918
144.88340,0.51640
144.64233,0.52219
144.40126,0.52720
144.16019,0.53165
143.91912,0.53421
143.67805,0.53375
143.43698,0.53066
143.19591,0.52580
142.95484,0.51952
142.71377,0.51200
142.47270,0.50336
142.23163,0.49330
141.99056,0.48168
141.74949,0.46971
141.50842,0.45977
141.26735,0.45345
141.02628,0.45010
140.78521,0.44775
140.54413,0.44515
140.30306,0.44267
140.06199,0.44155
139.82092,0.44276
139.57985,0.44619
139.33878,0.45096
139.09771,0.45677
138.85664,0.46441
138.61557,0.47420
138.37450,0.48480
138.13343,0.49475
137.89236,0.50436
137.65129,0.51505
137.41022,0.52720
137.16915,0.54029
136.92808,0.55508
136.68701,0.57364
136.44594,0.59647
136.20486,0.62158
135.96379,0.64723
135.72272,0.67355
135.48165,0.70127
135.24058,0.73045
134.99951,0.76059
134.75844,0.79029
134.51737,0.81774
134.27630,0.84249
134.03523,0.86598
133.79416,0.88886
133.55309,0.91018
133.31202,0.93031
133.07095,0.95100
132.82988,0.97131
132.58881,0.98663
132.34774,0.99402
132.10667,0.99551
131.86559,0.99424
131.62452,0.99046
131.38345,0.98189
131.14238,0.96694
130.90131,0.94671
130.66024,0.92312
130.41917,0.89651
130.17810,0.86704
129.93703,0.83645
129.69596,0.80641
129.45489,0.77673
129.21382,0.74646
128.97275,0.71562
128.73168,0.68496
128.49061,0.65465
128.24954,0.62463
128.00847,0.59602
127.76740,0.57053
127.52632,0.54843
127.28525,0.52838
127.04418,0.50924
126.80311,0.49104
126.56204,0.47434
126.32097,0.45932
126.07990,0.44578
125.83883,0.43354
125.59776,0.42239
125.35669,0.41154
125.11562,0.40004
124.87455,0.38836
124.63348,0.37832
124.39241,0.37064
124.15134,0.36421
123.91027,0.35794
123.66920,0.35186
123.42812,0.34630
123.18705,0.34161
122.94598,0.33864
122.70491,0.33802
122.46384,0.33929
122.22277,0.34151
121.98170,0.34447
121.74063,0.34847
121.49956,0.35337
121.25849,0.35851
121.01742,0.36357
120.77635,0.36918
120.53528,0.37626
120.29421,0.38526
120.05314,0.39615
119.81207,0.40946
119.57100,0.42659
119.32993,0.44848
119.08885,0.47391
118.84778,0.50018
118.60671,0.52595
118.36564,0.55166
118.12457,0.57644
117.88350,0.59804
117.64243,0.61667
117.40136,0.63535
117.16029,0.65447
116.91922,0.66935
116.67815,0.67455
116.43708,0.66921
116.19601,0.65693
115.95494,0.64211
115.71387,0.62815
115.47280,0.61703
115.23173,0.60781
114.99066,0.59718
114.74958,0.58377
114.50851,0.57042
114.26744,0.56062
114.02637,0.55470
113.78530,0.55065
113.54423,0.54709
113.30316,0.54444
113.06209,0.54376
112.82102,0.54536
112.57995,0.54867
112.33888,0.55339
112.09781,0.55997
111.85674,0.56847
111.61567,0.57738
111.37460,0.58459
111.13353,0.58918
110.89246,0.59216
110.65139,0.59526
110.41031,0.59832
110.16924,0.59793
109.92817,0.58993
109.68710,0.57345
109.44603,0.55237
109.20496,0.53245
108.96389,0.51624
108.72282,0.50110
108.48175,0.48335
108.24068,0.46343
107.99961,0.44453
107.75854,0.42757
107.51747,0.41081
107.27640,0.39349
107.03533,0.37677
106.79426,0.36188
106.55319,0.34911
106.31212,0.33801
106.07104,0.32779
105.82997,0.31811
105.58890,0.30933
105.34783,0.30179
105.10676,0.29505
104.86569,0.28788
104.62462,0.27946
104.38355,0.27050
104.14248,0.26251
103.90141,0.25613
103.66034,0.25083
103.41927,0.24591
103.17820,0.24083
102.93713,0.23526
102.69606,0.22937
102.45499,0.22380
102.21392,0.21902
101.97285,0.21486
101.73177,0.21071
101.49070,0.20624
101.24963,0.20167
101.00856,0.19741
100.76749,0.19399
100.52642,0.19191
100.28535,0.19068
100.04428,0.18912
99.80321,0.18732
99.56214,0.18655
99.32107,0.18674
99.08000,0.18614
98.83893,0.18389
98.59786,0.18072
98.35679,0.17774
98.11572,0.17614
97.87465,0.17699
97.63358,0.18013
97.39250,0.18440
97.15143,0.18922
96.91036,0.19464
96.66929,0.20024
96.42822,0.20558
96.18715,0.21112
95.94608,0.21732
95.70501,0.22350
95.46394,0.22899
95.22287,0.23459
94.98180,0.24115
94.74073,0.24789
94.49966,0.25333
94.25859,0.25676
94.01752,0.25789
93.77645,0.25670
93.53538,0.25426
93.29431,0.25220
93.05323,0.25133
92.81216,0.25132
92.57109,0.25187
92.33002,0.25354
92.08895,0.25716
91.84788,0.26246
91.60681,0.26873
91.36574,0.27700
91.12467,0.28965
90.88360,0.30758
90.64253,0.32985
90.40146,0.35624
90.16039,0.38797
89.91932,0.42547
89.67825,0.46646
89.43718,0.50677
89.19611,0.54287
88.95504,0.57264
88.71396,0.59252
88.47289,0.59647
88.23182,0.58061
87.99075,0.54806
87.74968,0.50670
87.50861,0.46326
87.26754,0.42144
87.02647,0.38353
86.78540,0.35114
86.54433,0.32410
86.30326,0.30046
86.06219,0.27845
85.82112,0.25777
85.58005,0.23879
85.33898,0.22160
85.09791,0.20597
84.85684,0.19141
84.61577,0.17760
84.37469,0.16516
84.13362,0.15523
83.89255,0.14796
83.65148,0.14214
83.41041,0.13667
83.16934,0.13162
82.92827,0.12775
82.68720,0.12503
82.44613,0.12222
82.20506,0.11849
81.96399,0.11463
81.72292,0.11210
81.48185,0.11111
81.24078,0.11068
80.99971,0.11019
80.75864,0.10984
80.51757,0.10947
80.27650,0.10837
80.03542,0.10645
79.79435,0.10447
79.55328,0.10274
79.31221,0.10055
79.07114,0.09757
78.83007,0.09445
78.58900,0.09178
78.34793,0.08963
78.10686,0.08820
77.86579,0.08791
77.62472,0.08840
77.38365,0.08830
77.14258,0.08643
76.90151,0.08324
76.66044,0.08068
76.41937,0.08005
76.17830,0.08048
75.93723,0.08018
75.69615,0.07897
75.45508,0.07809
75.21401,0.07774
74.97294,0.07680
74.73187,0.07499
74.49080,0.07369
74.24973,0.07402
74.00866,0.07553
73.76759,0.07721
73.52652,0.07866
73.28545,0.07950
73.04438,0.07929
72.80331,0.07865
72.56224,0.07896
72.32117,0.08042
72.08010,0.08208
71.83903,0.08368
71.59796,0.08604
71.35688,0.08926
71.11581,0.09248
70.87474,0.09575
70.63367,0.10066
70.39260,0.10858
70.15153,0.11922
69.91046,0.13161
69.66939,0.14529
69.42832,0.15907
69.18725,0.16958
68.94618,0.17306
68.70511,0.16819
68.46404,0.15633
68.22297,0.14052
67.98190,0.12426
67.74083,0.10978
67.49976,0.09795
67.25869,0.08971
67.01761,0.08533
66.77654,0.08264
66.53547,0.07871
66.29440,0.07349
66.05333,0.06945
65.81226,0.06845
65.57119,0.07032
65.33012,0.07373
65.08905,0.07741
64.84798,0.08100
64.60691,0.08488
64.36584,0.08940
64.12477,0.09414
63.88370,0.09770
63.64263,0.09795
63.40156,0.09360
63.16049,0.08571
62.91942,0.07736
62.67834,0.07149
62.43727,0.06896
62.19620,0.06864
61.95513,0.06888
61.71406,0.06817
61.47299,0.06538
61.23192,0.06079
60.99085,0.05652
60.74978,0.05454
60.50871,0.05477
60.26764,0.05607
60.02657,0.05810
59.78550,0.06082
59.54443,0.06309
59.30336,0.06353
59.06229,0.06238
58.82122,0.06078
58.58015,0.05882
58.33907,0.05617
58.09800,0.05368
57.85693,0.05261
57.61586,0.05252
57.37479,0.05146
57.13372,0.04849
56.89265,0.04492
56.65158,0.04247
56.41051,0.04100
56.16944,0.03959
55.92837,0.03858
55.68730,0.03889
55.44623,0.04004
55.20516,0.04078
54.96409,0.04116
54.72302,0.04229
54.48195,0.04447
54.24088,0.04672
53.99980,0.04754
53.75873,0.04611
53.51766,0.04349
53.27659,0.04218
53.03552,0.04365
52.79445,0.04694
52.55338,0.04958
52.31231,0.04982
52.07124,0.04807
51.83017,0.04635
51.58910,0.04612
51.34803,0.04709
51.10696,0.04833
50.86589,0.04884
50.62482,0.04713
50.38375,0.04235
50.14268,0.03606
49.90161,0.03111
49.66053,0.02865
49.41946,0.02787
49.17839,0.02733
48.93732,0.02604
48.69625,0.02433
48.45518,0.02278
48.21411,0.02051
47.97304,0.01628
47.73197,0.01160
47.49090,0.00929
47.24983,0.00901
47.00876,0.00931
46.76769,0.01157
46.52662,0.01726
46.28555,0.02357
46.04448,0.02720
45.80341,0.02888
45.56234,0.02945
45.32126,0.02668
45.08019,0.01973
44.83912,0.01343
44.59805,0.01347
44.35698,0.01926
44.11591,0.02545
43.87484,0.02831
43.63377,0.02832
43.39270,0.02667
43.15163,0.02167
42.91056,0.01017
42.66949,-0.00812
42.42842,-0.02751
42.18735,-0.03946
41.94628,-0.04076
41.70521,-0.03623
41.46414,-0.03150
41.22307,-0.02676
40.98199,-0.01950
40.74092,-0.00886
40.49985,0.00333
40.25878,0.01288
40.01771,0.01574
39.77664,0.01206
39.53557,0.00714
39.29450,0.00610
39.05343,0.00995
38.81236,0.01724
38.57129,0.02624
38.33022,0.03432
38.08915,0.03570
37.84808,0.02596
37.60701,0.01037
37.36594,-0.00002
37.12487,-0.00207
36.88380,-0.00317
36.64272,-0.00642
36.40165,-0.00625
36.16058,-0.00182
35.91951,-0.00113
35.67844,-0.00722
35.43737,-0.01094
35.19630,-0.00247
34.95523,0.01477
34.71416,0.02690
34.47309,0.02294
34.23202,-0.00081
33.99095,-0.03952
33.74988,-0.07016
33.50881,-0.06261
33.26774,-0.01492
33.02667,0.05035
32.78560,0.11776
32.54453,0.17712
32.30345,0.20791
32.06238,0.18847
31.82131,0.12370
31.58024,0.04760
31.33917,-0.00862
31.09810,-0.03064
30.85703,-0.02345
30.61596,-0.01046
30.37489,-0.00720
30.13382,-0.00398
29.89275,0.01609
29.65168,0.05440
29.41061,0.08979
29.16954,0.09737
28.92847,0.07509
28.68740,0.04357
28.44633,0.03182
28.20526,0.04339
27.96418,0.03829
27.72311,-0.01698
27.48204,-0.08732
27.24097,-0.08556
26.99990,0.01065
26.75883,0.13456
26.51776,0.21938
26.27669,0.23747
26.03562,0.20737
25.79455,0.16584
25.55348,0.13747
25.31241,0.15085
25.07134,0.20684
24.83027,0.25336
24.58920,0.25554
24.34813,0.23281
24.10706,0.21703
23.86599,0.22178
23.62491,0.24142
23.38384,0.26564
23.14277,0.28854
22.90170,0.31923
22.66063,0.37711
22.41956,0.44322
22.17849,0.46357
21.93742,0.41405
21.69635,0.32509
21.45528,0.26358
21.21421,0.27352
20.97314,0.31516
20.73207,0.31449
20.49100,0.25491
20.24993,0.19822
20.00886,0.23624
19.76779,0.39106
19.52672,0.52673
19.28564,0.57326
19.04457,0.54235
18.80350,0.49949
18.56243,0.52882
18.32136,0.66156
18.08029,0.83133
17.83922,0.85506
17.59815,0.77304
17.35708,0.71970
17.11601,0.58148
16.87494,0.51255
16.63387,0.53170
16.39280,0.62303
16.15173,0.76574
15.91066,0.88724
15.66959,0.85891
15.42852,0.73759
15.18745,0.67706
14.94637,0.76805
14.70530,0.93480
14.46423,1.06477
14.22316,1.04229
13.98209,0.87773
13.74102,0.71942
13.49995,0.62796
13.25888,0.66328
13.01781,0.86063
12.77674,1.14265
12.53567,1.18298
12.29460,1.11326
12.05353,1.12910
11.81246,1.16410
11.57139,1.16801
11.33032,1.17657
11.08925,0.95992
10.84818,0.68785
10.60710,0.73414
10.36603,0.83647
10.12496,0.81658
9.88389,0.86741
9.64282,1.11863
9.40175,1.15192
9.16068,0.97056
8.91961,0.85991
8.67854,0.94221
8.43747,0.92316
8.19640,0.86195
7.95533,1.05291
7.71426,1.37679
7.47319,1.53927
7.23212,1.55221
6.99105,1.29292
6.74998,1.00637
6.50891,0.95316
6.26783,1.08996
6.02676,1.32770
5.78569,1.43696
5.54462,1.22893
5.30355,0.98493
5.06248,0.90564
4.82141,1.21027
4.58034,1.54890
4.33927,1.61139
4.09820,1.50891
3.85713,1.36528
3.61606,1.28808
3.37499,1.28583
3.13392,1.12769
2.89285,1.05249
2.65178,0.94905
2.41071,0.74113
2.16964,0.64090
1.92856,0.74823
1.68749,0.85903
1.44642,0.89251
1.20535,0.97067
0.96428,1.19881
0.72321,1.18595
0.48214,0.78945
0.24107,0.61022
-0.00000,0.57471
