399.69498,1.89346
399.45391,1.92579
399.21284,1.91641
398.97177,1.87366
398.73070,1.84145
398.48963,1.83825
398.24856,1.86788
398.00749,1.93547
397.76642,2.01768
397.52535,2.06691
397.28428,2.06786
397.04321,2.04895
396.80214,2.03441
396.56107,2.03889
396.32000,2.07141
396.07892,2.08761
395.83785,2.03415
395.59678,1.95599
395.35571,1.90503
395.11464,1.91513
394.87357,1.97616
394.63250,2.00791
394.39143,2.00840
394.15036,2.08464
393.90929,2.25919
393.66822,2.36485
393.42715,2.29688
393.18608,2.17831
392.94501,2.22212
392.70394,2.25625
392.46287,2.08258
392.22180,1.99029
391.98073,1.96607
391.73965,1.94458
391.49858,1.90671
391.25751,1.87890
391.01644,1.90599
390.77537,1.99634
390.53430,2.15865
390.29323,2.24392
390.05216,2.17367
389.81109,2.11505
389.57002,2.07033
389.32895,2.03606
389.08788,2.07820
388.84681,2.14888
388.60574,2.05347
388.36467,1.96524
388.12360,1.98210
387.88253,2.01623
387.64146,1.97411
387.40038,1.89037
387.15931,1.86644
386.91824,1.86190
386.67717,1.85445
386.43610,1.92508
386.19503,2.08350
385.95396,2.18164
385.71289,2.28115
385.47182,2.24433
385.23075,2.18269
384.98968,2.17656
384.74861,2.20252
384.50754,2.13670
384.26647,2.15732
384.02540,2.19464
383.78433,2.07752
383.54326,1.90961
383.30219,1.88336
383.06111,2.03618
382.82004,2.17359
382.57897,2.03310
382.33790,1.89072
382.09683,1.87472
381.85576,1.88799
381.61469,1.90827
381.37362,2.03351
381.13255,1.96931
380.89148,1.92715
380.65041,2.01507
380.40934,2.13444
380.16827,2.22620
379.92720,2.23303
379.68613,2.10432
379.44506,1.94783
379.20399,1.88934
378.96292,2.17998
378.72184,3.04869
378.48077,2.28251
378.23970,2.03324
377.99863,2.05225
377.75756,2.16484
377.51649,2.31940
377.27542,2.15094
377.03435,1.88404
376.79328,1.76069
376.55221,1.74751
376.31114,1.86961
376.07007,2.05371
375.82900,2.00490
375.58793,1.96006
375.34686,2.02246
375.10579,2.00195
374.86472,1.91120
374.62365,1.85773
374.38257,1.87236
374.14150,1.99776
373.90043,2.32320
373.65936,2.65146
373.41829,2.23518
373.17722,1.94983
372.93615,1.87699
372.69508,1.87368
372.45401,1.87152
372.21294,1.84663
371.97187,1.80747
371.73080,1.76285
371.48973,1.71441
371.24866,1.68050
371.00759,1.68425
370.76652,1.71281
370.52545,1.71933
370.28437,1.68490
370.04330,1.63619
369.80223,1.59853
369.56116,1.57376
369.32009,1.55470
369.07902,1.54164
368.83795,1.53271
368.59688,1.52000
368.35581,1.50538
368.11474,1.49833
367.87367,1.49660
367.63260,1.48726
367.39153,1.47313
367.15046,1.47246
366.90939,1.48757
366.66832,1.49708
366.42725,1.48383
366.18618,1.45576
365.94510,1.42683
365.70403,1.40172
365.46296,1.38153
365.22189,1.37311
364.98082,1.38337
364.73975,1.40640
364.49868,1.42659
364.25761,1.43915
364.01654,1.45389
363.77547,1.47508
363.53440,1.49116
363.29333,1.49022
363.05226,1.47881
362.81119,1.46863
362.57012,1.45715
362.32905,1.43719
362.08798,1.41717
361.84691,1.40652
361.60583,1.39327
361.36476,1.36126
361.12369,1.31811
360.88262,1.28877
360.64155,1.28879
360.40048,1.31339
360.15941,1.34324
359.91834,1.35722
359.67727,1.34982
359.43620,1.33715
359.19513,1.33858
358.95406,1.35880
358.71299,1.38657
358.47192,1.40374
358.23085,1.40267
357.98978,1.38837
357.74871,1.36610
357.50764,1.34610
357.26656,1.34214
357.02549,1.35591
356.78442,1.36603
356.54335,1.35134
356.30228,1.32048
356.06121,1.30036
355.82014,1.30848
355.57907,1.34054
355.33800,1.38072
355.09693,1.41258
354.85586,1.42081
354.61479,1.40357
354.37372,1.37471
354.13265,1.34953
353.89158,1.33857
353.65051,1.34366
353.40944,1.36304
353.16837,1.39535
352.92729,1.42889
352.68622,1.43549
352.44515,1.40400
352.20408,1.36102
351.96301,1.32620
351.72194,1.30087
351.48087,1.29085
351.23980,1.30536
350.99873,1.33943
350.75766,1.37345
350.51659,1.39085
350.27552,1.39044
350.03445,1.38007
349.79338,1.36952
349.55231,1.37058
349.31124,1.39097
349.07017,1.42339
348.82910,1.44688
348.58802,1.44634
348.34695,1.42677
348.10588,1.40317
347.86481,1.38767
347.62374,1.38515
347.38267,1.39296
347.14160,1.40585
346.90053,1.42146
346.65946,1.43664
346.41839,1.44872
346.17732,1.46771
345.93625,1.49480
345.69518,1.50734
345.45411,1.48873
345.21304,1.45593
344.97197,1.43763
344.73090,1.44447
344.48983,1.46339
344.24875,1.47079
344.00768,1.46388
343.76661,1.46369
343.52554,1.47956
343.28447,1.49995
343.04340,1.52389
342.80233,1.55303
342.56126,1.57085
342.32019,1.56647
342.07912,1.56340
341.83805,1.58955
341.59698,1.63209
341.35591,1.65720
341.11484,1.65371
340.87377,1.63332
340.63270,1.61461
340.39163,1.62137
340.15056,1.65790
339.90948,1.69157
339.66841,1.69011
339.42734,1.66932
339.18627,1.66681
338.94520,1.67781
338.70413,1.68135
338.46306,1.69263
338.22199,1.72908
337.98092,1.78366
337.73985,1.83488
337.49878,1.86034
337.25771,1.85432
337.01664,1.87037
336.77557,1.97989
336.53450,2.19691
336.29343,2.40729
336.05236,2.43242
335.81129,2.29032
335.57021,2.11786
335.32914,2.00370
335.08807,1.96209
334.84700,1.96470
334.60593,1.96679
334.36486,1.93001
334.12379,1.85845
333.88272,1.78471
333.64165,1.73997
333.40058,1.71993
333.15951,1.70807
332.91844,1.72501
332.67737,1.77785
332.43630,1.82342
332.19523,1.81208
331.95416,1.76339
331.71309,1.73074
331.47202,1.72171
331.23094,1.73756
330.98987,1.78250
330.74880,1.83056
330.50773,1.86096
330.26666,1.85204
330.02559,1.79538
329.78452,1.73807
329.54345,1.72332
329.30238,1.75062
329.06131,1.78231
328.82024,1.80852
328.57917,1.80566
328.33810,1.77127
328.09703,1.71337
327.85596,1.66175
327.61489,1.65077
327.37382,1.68099
327.13275,1.70658
326.89167,1.67668
326.65060,1.61003
326.40953,1.56575
326.16846,1.58262
325.92739,1.66111
325.68632,1.74917
325.44525,1.78768
325.20418,1.78719
324.96311,1.77535
324.72204,1.75751
324.48097,1.73988
324.23990,1.71818
323.99883,1.69981
323.75776,1.71003
323.51669,1.75681
323.27562,1.80316
323.03455,1.80443
322.79348,1.76004
322.55240,1.71674
322.31133,1.72152
322.07026,1.77001
321.82919,1.81244
321.58812,1.79784
321.34705,1.78387
321.10598,1.83570
320.86491,1.91579
320.62384,1.93722
320.38277,1.88285
320.14170,1.85740
319.90063,1.94129
319.65956,2.10198
319.41849,2.10647
319.17742,2.03313
318.93635,1.99996
318.69528,2.02205
318.45421,2.08576
318.21313,2.14811
317.97206,2.23723
317.73099,2.24259
317.48992,2.03620
317.24885,1.88808
317.00778,1.80336
316.76671,1.80099
316.52564,1.89772
316.28457,1.97147
316.04350,1.97869
315.80243,1.92018
315.56136,1.88281
315.32029,1.90144
315.07922,1.95021
314.83815,1.99682
314.59708,2.01837
314.35601,2.03940
314.11494,1.97608
313.87386,1.89317
313.63279,1.89995
313.39172,1.91353
313.15065,1.91613
312.90958,1.90184
312.66851,1.88150
312.42744,1.91179
312.18637,2.02762
311.94530,2.07047
311.70423,1.96047
311.46316,1.90555
311.22209,1.91792
310.98102,1.95034
310.73995,2.07057
310.49888,2.24644
310.25781,2.17275
310.01674,2.08543
309.77567,2.16943
309.53459,2.46646
309.29352,2.54029
309.05245,2.20491
308.81138,2.08937
308.57031,2.15875
308.32924,2.17600
308.08817,2.19035
307.84710,2.31807
307.60603,2.26965
307.36496,2.11916
307.12389,2.04498
306.88282,1.97261
306.64175,1.84458
306.40068,1.74682
306.15961,1.71628
305.91854,1.73073
305.67747,1.77080
305.43640,1.81975
305.19532,1.83129
304.95425,1.81506
304.71318,1.81158
304.47211,1.79126
304.23104,1.70424
303.98997,1.59064
303.74890,1.50381
303.50783,1.45754
303.26676,1.44491
303.02569,1.45523
302.78462,1.47484
302.54355,1.48416
302.30248,1.47343
302.06141,1.45349
301.82034,1.43978
301.57927,1.43283
301.33820,1.41978
301.09713,1.39412
300.85605,1.36458
300.61498,1.34342
300.37391,1.33121
300.13284,1.32038
299.89177,1.30645
299.65070,1.28945
299.40963,1.27105
299.16856,1.25453
298.92749,1.24373
298.68642,1.23763
298.44535,1.23028
298.20428,1.21804
297.96321,1.20265
297.72214,1.18878
297.48107,1.18193
297.24000,1.18538
296.99893,1.19621
296.75786,1.20374
296.51678,1.19713
296.27571,1.18067
296.03464,1.16970
295.79357,1.17028
295.55250,1.17224
295.31143,1.16480
295.07036,1.15212
294.82929,1.14443
294.58822,1.14329
294.34715,1.14115
294.10608,1.13299
293.86501,1.12242
293.62394,1.11509
293.38287,1.11259
293.14180,1.11369
292.90073,1.11683
292.65966,1.11805
292.41859,1.11298
292.17751,1.10363
291.93644,1.09513
291.69537,1.08727
291.45430,1.07718
291.21323,1.06738
290.97216,1.06253
290.73109,1.06199
290.49002,1.06196
290.24895,1.06128
290.00788,1.06027
289.76681,1.05917
289.52574,1.06165
289.28467,1.07093
289.04360,1.07959
288.80253,1.07463
288.56146,1.05616
288.32039,1.03741
288.07932,1.02840
287.83824,1.03069
287.59717,1.04040
287.35610,1.04983
287.11503,1.05196
286.87396,1.04725
286.63289,1.04212
286.39182,1.03967
286.15075,1.03646
285.90968,1.02938
285.66861,1.02180
285.42754,1.02022
285.18647,1.02562
284.94540,1.03058
284.70433,1.02757
284.46326,1.01806
284.22219,1.00905
283.98112,1.00554
283.74005,1.00859
283.49897,1.01519
283.25790,1.02082
283.01683,1.02372
282.77576,1.02435
282.53469,1.02221
282.29362,1.01659
282.05255,1.00872
281.81148,1.00104
281.57041,0.99589
281.32934,0.99583
281.08827,1.00122
280.84720,1.00781
280.60613,1.01090
280.36506,1.01004
280.12399,1.00632
279.88292,0.99964
279.64185,0.99266
279.40078,0.99107
279.15970,0.99601
278.91863,1.00178
278.67756,1.00450
278.43649,1.00739
278.19542,1.01329
277.95435,1.01840
277.71328,1.01819
277.47221,1.01367
277.23114,1.00776
276.99007,1.00077
276.74900,0.99198
276.50793,0.98332
276.26686,0.97867
276.02579,0.97961
275.78472,0.98429
275.54365,0.98980
275.30258,0.99383
275.06151,0.99504
274.82043,0.99340
274.57936,0.98970
274.33829,0.98593
274.09722,0.98613
273.85615,0.99362
273.61508,1.00631
273.37401,1.01676
273.13294,1.01918
272.89187,1.01541
272.65080,1.01217
272.40973,1.01391
272.16866,1.01890
271.92759,1.02163
271.68652,1.01884
271.44545,1.01398
271.20438,1.01397
270.96331,1.02108
270.72224,1.03164
270.48116,1.04014
270.24009,1.04206
269.99902,1.03697
269.75795,1.02968
269.51688,1.02538
269.27581,1.02451
269.03474,1.02474
268.79367,1.02675
268.55260,1.03368
268.31153,1.04616
268.07046,1.06158
267.82939,1.07579
267.58832,1.08315
267.34725,1.08060
267.10618,1.07368
266.86511,1.07176
266.62404,1.07721
266.38297,1.08483
266.14189,1.09091
265.90082,1.09717
265.65975,1.10455
265.41868,1.10962
265.17761,1.10983
264.93654,1.10766
264.69547,1.10888
264.45440,1.11906
264.21333,1.13958
263.97226,1.16503
263.73119,1.18638
263.49012,1.19799
263.24905,1.20055
263.00798,1.19928
262.76691,1.20137
262.52584,1.21066
262.28477,1.22480
262.04370,1.23952
261.80262,1.25167
261.56155,1.25896
261.32048,1.26262
261.07941,1.26844
260.83834,1.27986
260.59727,1.29521
260.35620,1.31500
260.11513,1.34107
259.87406,1.36472
259.63299,1.37104
259.39192,1.36502
259.15085,1.36896
258.90978,1.39288
258.66871,1.42679
258.42764,1.45814
258.18657,1.49182
257.94550,1.54027
257.70443,1.59260
257.46335,1.61562
257.22228,1.60260
256.98121,1.59100
256.74014,1.61154
256.49907,1.65138
256.25800,1.66955
256.01693,1.66045
255.77586,1.65999
255.53479,1.68756
255.29372,1.73131
255.05265,1.77659
254.81158,1.83023
254.57051,1.89965
254.32944,1.97122
254.08837,2.00945
253.84730,2.01094
253.60623,2.01766
253.36516,2.07643
253.12408,2.20934
252.88301,2.37226
252.64194,2.52114
252.40087,2.55959
252.15980,2.44159
251.91873,2.28386
251.67766,2.19145
251.43659,2.17955
251.19552,2.21643
250.95445,2.28062
250.71338,2.36874
250.47231,2.43618
250.23124,2.40290
249.99017,2.26107
249.74910,2.15104
249.50803,2.14854
249.26696,2.19510
249.02589,2.11922
248.78481,2.08956
248.54374,2.11199
248.30267,2.10722
248.06160,2.05511
247.82053,2.01009
247.57946,2.01773
247.33839,2.07004
247.09732,2.11607
246.85625,2.15447
246.61518,2.18042
246.37411,2.08825
246.13304,2.10271
245.89197,2.17553
245.65090,2.07009
245.40983,1.92625
245.16876,1.84265
244.92769,1.82317
244.68661,1.83728
244.44554,1.82840
244.20447,1.77711
243.96340,1.72302
243.72233,1.69065
243.48126,1.65787
243.24019,1.60184
242.99912,1.53861
242.75805,1.48290
242.51698,1.42261
242.27591,1.35179
242.03484,1.28356
241.79377,1.22947
241.55270,1.19002
241.31163,1.15887
241.07056,1.12876
240.82949,1.09502
240.58842,1.05799
240.34734,1.02273
240.10627,0.99432
239.86520,0.97275
239.62413,0.95254
239.38306,0.92954
239.14199,0.90660
238.90092,0.88891
238.65985,0.87596
238.41878,0.86171
238.17771,0.84238
237.93664,0.82125
237.69557,0.80467
237.45450,0.79546
237.21343,0.79077
236.97236,0.78533
236.73129,0.77625
236.49022,0.76460
236.24915,0.75235
236.00807,0.73986
235.76700,0.72786
235.52593,0.71911
235.28486,0.71550
235.04379,0.71522
234.80272,0.71514
234.56165,0.71420
234.32058,0.71231
234.07951,0.70828
233.83844,0.70209
233.59737,0.69719
233.35630,0.69674
233.11523,0.69879
232.87416,0.69795
232.63309,0.69157
232.39202,0.68288
232.15095,0.67710
231.90988,0.67619
231.66880,0.67848
231.42773,0.68186
231.18666,0.68510
230.94559,0.68614
230.70452,0.68268
230.46345,0.67578
230.22238,0.66975
229.98131,0.66754
229.74024,0.66877
229.49917,0.67128
229.25810,0.67154
229.01703,0.66630
228.77596,0.65749
228.53489,0.65183
228.29382,0.65329
228.05275,0.65939
227.81168,0.66490
227.57061,0.66678
227.32953,0.66586
227.08846,0.66493
226.84739,0.66571
226.60632,0.66763
226.36525,0.66879
226.12418,0.66801
225.88311,0.66566
225.64204,0.66339
225.40097,0.66330
225.15990,0.66644
224.91883,0.67212
224.67776,0.67864
224.43669,0.68441
224.19562,0.68900
223.95455,0.69324
223.71348,0.69813
223.47241,0.70314
223.23134,0.70612
222.99026,0.70638
222.74919,0.70592
222.50812,0.70624
222.26705,0.70736
222.02598,0.71077
221.78491,0.71989
221.54384,0.73529
221.30277,0.75127
221.06170,0.76089
220.82063,0.76310
220.57956,0.76206
220.33849,0.76160
220.09742,0.76287
219.85635,0.76576
219.61528,0.77130
219.37421,0.78251
219.13314,0.80156
218.89207,0.82445
218.65099,0.84182
218.40992,0.84893
218.16885,0.85073
217.92778,0.85430
217.68671,0.86191
217.44564,0.87238
217.20457,0.88386
216.96350,0.89484
216.72243,0.90573
216.48136,0.91878
216.24029,0.93502
215.99922,0.95252
215.75815,0.96790
215.51708,0.97871
215.27601,0.98586
215.03494,0.99343
214.79387,1.00283
214.55280,1.00964
214.31172,1.01077
214.07065,1.01030
213.82958,1.01426
213.58851,1.02274
213.34744,1.03108
213.10637,1.03650
212.86530,1.03982
212.62423,1.04247
212.38316,1.04648
212.14209,1.05581
211.90102,1.07142
211.65995,1.08537
211.41888,1.08808
211.17781,1.08082
210.93674,1.07374
210.69567,1.07536
210.45460,1.08710
210.21353,1.10181
209.97245,1.10819
209.73138,1.10350
209.49031,1.09595
209.24924,1.09060
209.00817,1.08295
208.76710,1.07047
208.52603,1.06094
208.28496,1.06146
208.04389,1.06775
207.80282,1.07071
207.56175,1.06891
207.32068,1.06672
207.07961,1.06249
206.83854,1.04846
206.59747,1.02438
206.35640,1.00268
206.11533,0.99384
205.87426,0.99359
205.63318,0.99011
205.39211,0.97997
205.15104,0.97005
204.90997,0.96437
204.66890,0.95785
204.42783,0.94534
204.18676,0.92891
203.94569,0.91293
203.70462,0.89819
203.46355,0.88327
203.22248,0.86827
202.98141,0.85532
202.74034,0.84653
202.49927,0.84116
202.25820,0.83557
202.01713,0.82655
201.77606,0.81329
201.53499,0.79730
201.29391,0.78258
201.05284,0.77299
200.81177,0.76737
200.57070,0.76005
200.32963,0.74804
200.08856,0.73434
199.84749,0.72297
199.60642,0.71382
199.36535,0.70375
199.12428,0.69143
198.88321,0.67916
198.64214,0.66937
198.40107,0.66128
198.16000,0.65233
197.91893,0.64189
197.67786,0.63166
197.43679,0.62308
197.19572,0.61609
196.95464,0.61010
196.71357,0.60463
196.47250,0.59873
196.23143,0.59104
195.99036,0.58109
195.74929,0.57056
195.50822,0.56202
195.26715,0.55620
195.02608,0.55140
194.78501,0.54660
194.54394,0.54281
194.30287,0.54035
194.06180,0.53725
193.82073,0.53245
193.57966,0.52794
193.33859,0.52562
193.09752,0.52387
192.85645,0.51963
192.61537,0.51228
192.37430,0.50397
192.13323,0.49734
191.89216,0.49370
191.65109,0.49202
191.41002,0.48983
191.16895,0.48609
190.92788,0.48234
190.68681,0.48040
190.44574,0.48001
190.20467,0.47948
189.96360,0.47793
189.72253,0.47575
189.48146,0.47335
189.24039,0.47078
188.99932,0.46830
188.75825,0.46609
188.51718,0.46392
188.27610,0.46263
188.03503,0.46452
187.79396,0.47010
187.55289,0.47563
187.31182,0.47647
187.07075,0.47201
186.82968,0.46567
186.58861,0.46112
186.34754,0.45956
186.10647,0.45946
185.86540,0.45887
185.62433,0.45794
185.38326,0.45829
185.14219,0.46021
184.90112,0.46249
184.66005,0.46408
184.41898,0.46458
184.17791,0.46444
183.93683,0.46550
183.69576,0.46974
183.45469,0.47718
183.21362,0.48563
182.97255,0.49226
182.73148,0.49498
182.49041,0.49344
182.24934,0.48898
182.00827,0.48392
181.76720,0.48090
181.52613,0.48153
181.28506,0.48492
181.04399,0.48890
180.80292,0.49246
180.56185,0.49529
180.32078,0.49681
180.07971,0.49724
179.83864,0.49815
179.59756,0.50056
179.35649,0.50419
179.11542,0.50884
178.87435,0.51538
178.63328,0.52492
178.39221,0.53699
178.15114,0.54883
177.91007,0.55757
177.66900,0.56323
177.42793,0.56851
177.18686,0.57607
176.94579,0.58687
176.70472,0.60045
176.46365,0.61602
176.22258,0.63317
175.98151,0.65157
175.74044,0.67027
175.49937,0.68815
175.25829,0.70510
175.01722,0.72275
174.77615,0.74286
174.53508,0.76467
174.29401,0.78558
174.05294,0.80398
173.81187,0.81924
173.57080,0.83099
173.32973,0.84152
173.08866,0.85492
172.84759,0.87065
172.60652,0.88247
172.36545,0.88632
172.12438,0.88446
171.88331,0.87980
171.64224,0.87311
171.40117,0.86684
171.16010,0.86467
170.91902,0.86609
170.67795,0.86535
170.43688,0.85887
170.19581,0.85073
169.95474,0.84599
169.71367,0.84315
169.47260,0.83770
169.23153,0.82926
168.99046,0.82064
168.74939,0.81383
168.50832,0.80984
168.26725,0.80875
168.02618,0.80806
167.78511,0.80453
167.54404,0.79892
167.30297,0.79562
167.06190,0.79688
166.82083,0.80089
166.57975,0.80510
166.33868,0.80899
166.09761,0.81367
165.85654,0.82097
165.61547,0.83243
165.37440,0.84755
165.13333,0.86280
164.89226,0.87337
164.65119,0.87743
164.41012,0.87891
164.16905,0.88413
163.92798,0.89510
163.68691,0.90787
163.44584,0.91734
163.20477,0.92259
162.96370,0.92718
162.72263,0.93518
162.48156,0.94819
162.24048,0.96401
161.99941,0.97705
161.75834,0.98184
161.51727,0.97840
161.27620,0.97256
161.03513,0.96928
160.79406,0.96781
160.55299,0.96395
160.31192,0.95622
160.07085,0.94712
159.82978,0.93983
159.58871,0.93626
159.34764,0.93679
159.10657,0.93995
158.86550,0.94193
158.62443,0.93760
158.38336,0.92476
158.14229,0.90769
157.90121,0.89428
157.66014,0.88949
157.41907,0.89164
157.17800,0.89432
156.93693,0.89220
156.69586,0.88612
156.45479,0.88081
156.21372,0.87782
155.97265,0.87417
155.73158,0.86805
155.49051,0.86074
155.24944,0.85262
155.00837,0.84139
154.76730,0.82578
154.52623,0.80964
154.28516,0.79992
154.04409,0.79900
153.80302,0.79995
153.56194,0.79223
153.32087,0.77422
153.07980,0.75435
152.83873,0.73823
152.59766,0.72260
152.35659,0.70303
152.11552,0.68077
151.87445,0.65952
151.63338,0.64085
151.39231,0.62448
151.15124,0.60911
150.91017,0.59325
150.66910,0.57683
150.42803,0.56152
150.18696,0.54908
149.94589,0.54007
149.70482,0.53389
149.46375,0.52903
149.22267,0.52367
148.98160,0.51685
148.74053,0.50893
148.49946,0.50098
148.25839,0.49402
148.01732,0.48875
147.77625,0.48486
147.53518,0.48135
147.29411,0.47796
147.05304,0.47539
146.81197,0.47427
146.57090,0.47443
146.32983,0.47554
146.08876,0.47761
145.84769,0.48093
145.60662,0.48570
145.36555,0.49179
145.12448,0.49855
144.88340,0.50548
144.64233,0.51261
144.40126,0.51923
144.16019,0.52312
143.91912,0.52304
143.67805,0.52072
143.43698,0.51811
143.19591,0.51432
142.95484,0.50770
142.71377,0.49902
142.47270,0.49032
142.23163,0.48204
141.99056,0.47322
141.74949,0.46354
141.50842,0.45433
141.26735,0.44735
141.02628,0.44317
140.78521,0.44090
140.54413,0.43975
140.30306,0.44030
140.06199,0.44328
139.82092,0.44754
139.57985,0.45054
139.33878,0.45126
139.09771,0.45155
138.85664,0.45446
138.61557,0.46135
138.37450,0.47072
138.13343,0.47974
137.89236,0.48723
137.65129,0.49528
137.41022,0.50704
137.16915,0.52302
136.92808,0.54129
136.68701,0.56110
136.44594,0.58361
136.20486,0.60887
135.96379,0.63434
135.72272,0.65714
135.48165,0.67663
135.24058,0.69465
134.99951,0.71457
134.75844,0.73966
134.51737,0.77045
134.27630,0.80346
134.03523,0.83382
133.79416,0.85970
133.55309,0.88275
133.31202,0.90381
133.07095,0.92094
132.82988,0.93349
132.58881,0.94498
132.34774,0.95998
132.10667,0.97675
131.86559,0.98524
131.62452,0.97819
131.38345,0.95951
131.14238,0.93722
130.90131,0.91549
130.66024,0.89452
130.41917,0.87252
130.17810,0.84742
129.93703,0.81876
129.69596,0.78769
129.45489,0.75494
129.21382,0.72080
128.97275,0.68653
128.73168,0.65381
128.49061,0.62357
128.24954,0.59593
128.00847,0.57105
127.76740,0.54942
127.52632,0.53082
127.28525,0.51337
127.04418,0.49508
126.80311,0.47681
126.56204,0.46126
126.32097,0.44817
126.07990,0.43417
125.83883,0.41814
125.59776,0.40316
125.35669,0.39209
125.11562,0.38445
124.87455,0.37822
124.63348,0.37216
124.39241,0.36550
124.15134,0.35751
123.91027,0.34864
123.66920,0.34109
123.42812,0.33706
123.18705,0.33637
122.94598,0.33667
122.70491,0.33602
122.46384,0.33468
122.22277,0.33370
121.98170,0.33319
121.74063,0.33344
121.49956,0.33608
121.25849,0.34205
121.01742,0.34966
120.77635,0.35638
120.53528,0.36185
120.29421,0.36851
120.05314,0.37956
119.81207,0.39617
119.57100,0.41640
119.32993,0.43738
119.08885,0.45787
118.84778,0.47820
118.60671,0.49939
118.36564,0.52277
118.12457,0.54798
117.88350,0.57213
117.64243,0.59301
117.40136,0.61123
117.16029,0.62689
116.91922,0.63734
116.67815,0.64056
116.43708,0.63772
116.19601,0.63087
115.95494,0.62109
115.71387,0.61018
115.47280,0.60058
115.23173,0.59212
114.99066,0.58260
114.74958,0.57195
114.50851,0.56173
114.26744,0.55060
114.02637,0.53538
113.78530,0.51814
113.54423,0.50673
113.30316,0.50649
113.06209,0.51538
112.82102,0.52778
112.57995,0.53996
112.33888,0.54986
112.09781,0.55503
111.85674,0.55455
111.61567,0.55156
111.37460,0.55142
111.13353,0.55658
110.89246,0.56425
110.65139,0.56896
110.41031,0.56670
110.16924,0.55806
109.92817,0.54697
109.68710,0.53628
109.44603,0.52603
109.20496,0.51474
108.96389,0.50088
108.72282,0.48432
108.48175,0.46664
108.24068,0.44954
107.99961,0.43348
107.75854,0.41799
107.51747,0.40224
107.27640,0.38545
107.03533,0.36778
106.79426,0.35108
106.55319,0.33772
106.31212,0.32829
106.07104,0.32059
105.82997,0.31167
105.58890,0.30127
105.34783,0.29230
105.10676,0.28750
104.86569,0.28608
104.62462,0.28394
104.38355,0.27718
104.14248,0.26597
103.90141,0.25424
103.66034,0.24585
103.41927,0.24148
103.17820,0.23874
102.93713,0.23492
102.69606,0.22962
102.45499,0.22360
102.21392,0.21674
101.97285,0.20915
101.73177,0.20284
101.49070,0.20006
101.24963,0.20016
101.00856,0.19988
100.76749,0.19660
100.52642,0.19085
100.28535,0.18554
100.04428,0.18294
99.80321,0.18261
99.56214,0.18281
99.32107,0.18281
99.08000,0.18268
98.83893,0.18193
98.59786,0.18024
98.35679,0.17879
98.11572,0.17906
97.87465,0.18086
97.63358,0.18278
97.39250,0.18421
97.15143,0.18575
96.91036,0.18842
96.66929,0.19280
96.42822,0.19812
96.18715,0.20283
95.94608,0.20715
95.70501,0.21384
95.46394,0.22457
95.22287,0.23675
94.98180,0.24579
94.74073,0.25011
94.49966,0.25208
94.25859,0.25397
94.01752,0.25477
93.77645,0.25257
93.53538,0.24844
93.29431,0.24590
93.05323,0.24690
92.81216,0.25000
92.57109,0.25263
92.33002,0.25409
92.08895,0.25588
91.84788,0.25969
91.60681,0.26593
91.36574,0.27445
91.12467,0.28599
90.88360,0.30158
90.64253,0.32106
90.40146,0.34377
90.16039,0.37053
89.91932,0.40325
89.67825,0.44218
89.43718,0.48369
89.19611,0.52121
88.95504,0.54854
88.71396,0.56196
88.47289,0.56049
88.23182,0.54680
87.99075,0.52492
87.74968,0.49553
87.50861,0.45815
87.26754,0.41639
87.02647,0.37679
86.78540,0.34320
86.54433,0.31500
86.30326,0.29009
86.06219,0.26758
85.82112,0.24773
85.58005,0.23063
85.33898,0.21574
85.09791,0.20266
84.85684,0.19113
84.61577,0.18016
84.37469,0.16905
84.13362,0.15913
83.89255,0.15215
83.65148,0.14753
83.41041,0.14321
83.16934,0.13847
82.92827,0.13420
82.68720,0.13138
82.44613,0.13004
82.20506,0.12918
81.96399,0.12715
81.72292,0.12294
81.48185,0.11745
81.24078,0.11303
80.99971,0.11140
80.75864,0.11221
80.51757,0.11370
80.27650,0.11418
80.03542,0.11278
79.79435,0.10969
79.55328,0.10632
79.31221,0.10421
79.07114,0.10405
78.83007,0.10521
78.58900,0.10571
78.34793,0.10311
78.10686,0.09714
77.86579,0.09056
77.62472,0.08651
77.38365,0.08590
77.14258,0.08762
76.90151,0.08984
76.66044,0.09099
76.41937,0.09029
76.17830,0.08779
75.93723,0.08395
75.69615,0.07988
75.45508,0.07734
75.21401,0.07756
74.97294,0.08015
74.73187,0.08372
74.49080,0.08698
74.24973,0.08894
74.00866,0.08862
73.76759,0.08536
73.52652,0.08006
73.28545,0.07544
73.04438,0.07430
72.80331,0.07717
72.56224,0.08209
72.32117,0.08603
72.08010,0.08687
71.83903,0.08521
71.59796,0.08417
71.35688,0.08600
71.11581,0.08959
70.87474,0.09299
70.63367,0.09663
70.39260,0.10272
70.15153,0.11242
69.91046,0.12510
69.66939,0.13958
69.42832,0.15417
69.18725,0.16586
68.94618,0.17100
68.70511,0.16764
68.46404,0.15651
68.22297,0.14013
67.98190,0.12209
67.74083,0.10623
67.49976,0.09486
67.25869,0.08784
67.01761,0.08358
66.77654,0.08008
66.53547,0.07614
66.29440,0.07260
66.05333,0.07128
65.81226,0.07218
65.57119,0.07315
65.33012,0.07304
65.08905,0.07334
64.84798,0.07612
64.60691,0.08169
64.36584,0.08894
64.12477,0.09629
63.88370,0.10213
63.64263,0.10586
63.40156,0.10828
63.16049,0.10963
62.91942,0.10827
62.67834,0.10258
62.43727,0.09368
62.19620,0.08526
61.95513,0.07990
61.71406,0.07587
61.47299,0.06944
61.23192,0.06062
60.99085,0.05357
60.74978,0.05109
60.50871,0.05210
60.26764,0.05398
60.02657,0.05459
59.78550,0.05337
59.54443,0.05234
59.30336,0.05366
59.06229,0.05577
58.82122,0.05514
58.58015,0.05146
58.33907,0.04795
58.09800,0.04735
57.85693,0.04960
57.61586,0.05240
57.37479,0.05351
57.13372,0.05273
56.89265,0.05128
56.65158,0.04956
56.41051,0.04716
56.16944,0.04422
55.92837,0.04135
55.68730,0.03906
55.44623,0.03784
55.20516,0.03839
54.96409,0.04106
54.72302,0.04435
54.48195,0.04543
54.24088,0.04345
53.99980,0.04090
53.75873,0.03999
53.51766,0.04012
53.27659,0.04011
53.03552,0.04066
52.79445,0.04372
52.55338,0.04932
52.31231,0.05378
52.07124,0.05289
51.83017,0.04725
51.58910,0.04177
51.34803,0.03965
51.10696,0.03992
50.86589,0.04016
50.62482,0.03942
50.38375,0.03849
50.14268,0.03823
49.90161,0.03839
49.66053,0.03918
49.41946,0.04142
49.17839,0.04374
48.93732,0.04277
48.69625,0.03690
48.45518,0.02771
48.21411,0.01896
47.97304,0.01506
47.73197,0.01678
47.49090,0.01870
47.24983,0.01683
47.00876,0.01473
46.76769,0.01650
46.52662,0.01970
46.28555,0.01850
46.04448,0.01089
45.80341,0.00154
45.56234,-0.00322
45.32126,-0.00235
45.08019,0.00064
44.83912,0.00356
44.59805,0.00581
44.35698,0.00566
44.11591,0.00160
43.87484,-0.00611
43.63377,-0.01615
43.39270,-0.02596
43.15163,-0.03180
42.91056,-0.03203
42.66949,-0.02907
42.42842,-0.02560
42.18735,-0.02134
41.94628,-0.01788
41.70521,-0.02069
41.46414,-0.03181
41.22307,-0.04603
40.98199,-0.05735
40.74092,-0.06280
40.49985,-0.05979
40.25878,-0.04829
40.01771,-0.03466
39.77664,-0.02588
39.53557,-0.02169
39.29450,-0.01548
39.05343,-0.00402
38.81236,0.00560
38.57129,0.00317
38.33022,-0.01226
38.08915,-0.02882
37.84808,-0.03278
37.60701,-0.02761
37.36594,-0.02802
37.12487,-0.03250
36.88380,-0.02396
36.64272,0.00358
36.40165,0.03270
36.16058,0.04155
35.91951,0.02997
35.67844,0.01855
35.43737,0.02097
35.19630,0.02648
34.95523,0.01857
34.71416,0.00074
34.47309,-0.00801
34.23202,-0.00055
33.99095,0.00859
33.74988,0.00535
33.50881,-0.00922
33.26774,-0.01949
33.02667,-0.00334
32.78560,0.04262
32.54453,0.08946
32.30345,0.10418
32.06238,0.08509
31.82131,0.06266
31.58024,0.05907
31.33917,0.06874
31.09810,0.07833
30.85703,0.07950
30.61596,0.06618
30.37489,0.03890
30.13382,0.01049
29.89275,-0.00527
29.65168,-0.00254
29.41061,0.02049
29.16954,0.06072
28.92847,0.10135
28.68740,0.11316
28.44633,0.07716
28.20526,0.01204
27.96418,-0.02887
27.72311,-0.00711
27.48204,0.05578
27.24097,0.10556
26.99990,0.10950
26.75883,0.07606
26.51776,0.03283
26.27669,-0.00134
26.03562,-0.02596
25.79455,-0.04871
25.55348,-0.05997
25.31241,-0.05335
25.07134,-0.04803
24.83027,-0.04539
24.58920,-0.04935
24.34813,-0.01145
24.10706,0.03423
23.86599,0.05887
23.62491,0.07076
23.38384,0.09668
23.14277,0.13601
22.90170,0.21370
22.66063,0.30390
22.41956,0.32800
22.17849,0.31584
21.93742,0.29354
21.69635,0.27907
21.45528,0.30510
21.21421,0.35661
20.97314,0.41831
20.73207,0.46879
20.49100,0.48216
20.24993,0.49921
20.00886,0.55507
19.76779,0.60287
19.52672,0.61794
19.28564,0.64503
19.04457,0.62661
18.80350,0.59738
18.56243,0.57938
18.32136,0.57599
18.08029,0.56838
17.83922,0.54884
17.59815,0.51167
17.35708,0.47609
17.11601,0.50390
16.87494,0.60104
16.63387,0.73668
16.39280,0.83548
16.15173,0.88369
15.91066,0.89476
15.66959,0.80212
15.42852,0.62821
15.18745,0.48894
14.94637,0.41298
14.70530,0.44003
14.46423,0.58049
14.22316,0.76375
13.98209,0.82030
13.74102,0.86644
13.49995,0.93150
13.25888,0.84195
13.01781,0.70406
12.77674,0.65271
12.53567,0.69023
12.29460,0.76699
12.05353,0.84625
11.81246,0.90695
11.57139,0.79376
11.33032,0.64024
11.08925,0.55947
10.84818,0.56821
10.60710,0.67553
10.36603,0.87185
10.12496,1.19315
9.88389,1.20071
9.64282,0.98083
9.40175,0.82918
9.16068,0.67473
8.91961,0.55060
8.67854,0.54869
8.43747,0.70499
8.19640,0.82497
7.95533,0.89688
7.71426,1.09353
7.47319,0.90071
7.23212,0.66871
6.99105,0.59707
6.74998,0.70171
6.50891,1.00164
6.26783,1.21726
6.02676,1.34203
5.78569,1.53551
5.54462,1.00317
5.30355,0.78075
5.06248,0.76289
4.82141,0.79487
4.58034,0.76148
4.33927,0.68303
4.09820,0.55274
3.85713,0.47554
3.61606,0.55428
3.37499,0.79893
3.13392,1.09774
2.89285,1.09119
2.65178,0.83391
2.41071,0.83532
2.16964,0.99763
1.92856,0.71010
1.68749,0.50256
1.44642,0.47280
1.20535,0.56649
0.96428,0.72465
0.72321,0.81727
0.48214,0.74961
0.24107,0.63874
-0.00000,0.40857
