399.69498,2.10080
399.45391,2.09433
399.21284,2.04778
398.97177,1.99682
398.73070,1.98219
398.48963,1.98870
398.24856,1.94759
398.00749,1.87688
397.76642,1.84214
397.52535,1.85694
397.28428,1.87983
397.04321,1.88073
396.80214,1.87035
396.56107,1.88678
396.32000,1.95132
396.07892,2.02081
395.83785,2.04854
395.59678,2.02713
395.35571,1.98676
395.11464,1.89945
394.87357,1.79604
394.63250,1.73777
394.39143,1.73572
394.15036,1.78282
393.90929,1.84485
393.66822,1.86119
393.42715,1.85282
393.18608,1.85678
392.94501,1.87800
392.70394,1.92054
392.46287,1.97991
392.22180,2.02905
391.98073,2.05011
391.73965,2.06784
391.49858,2.08673
391.25751,2.15607
391.01644,2.27246
390.77537,2.15336
390.53430,2.02278
390.29323,1.99882
390.05216,2.04302
389.81109,2.04400
389.57002,1.97691
389.32895,1.92025
389.08788,1.89366
388.84681,1.90935
388.60574,1.98830
388.36467,2.11154
388.12360,2.17371
387.88253,2.06721
387.64146,1.94623
387.40038,1.89971
387.15931,1.89930
386.91824,1.93181
386.67717,2.05425
386.43610,2.31208
386.19503,2.28286
385.95396,2.02434
385.71289,1.88797
385.47182,1.87912
385.23075,1.95406
384.98968,2.01560
384.74861,2.01670
384.50754,1.90503
384.26647,1.87745
384.02540,1.99816
383.78433,2.12337
383.54326,2.01680
383.30219,1.87637
383.06111,1.83799
382.82004,1.81344
382.57897,1.85601
382.33790,1.82660
382.09683,1.73403
381.85576,1.88311
381.61469,2.30879
381.37362,2.08601
381.13255,1.87358
380.89148,1.84390
380.65041,1.91108
380.40934,1.99055
380.16827,2.03243
379.92720,2.13268
379.68613,2.26777
379.44506,2.06010
379.20399,1.93070
378.96292,1.95072
378.72184,2.06398
378.48077,2.10771
378.23970,2.15428
377.99863,2.15230
377.75756,2.16489
377.51649,2.14319
377.27542,1.99726
377.03435,1.86877
376.79328,1.84262
376.55221,1.97641
376.31114,2.26661
376.07007,2.50931
375.82900,2.40207
375.58793,2.16858
375.34686,2.01535
375.10579,1.96971
374.86472,1.97035
374.62365,1.91809
374.38257,1.81960
374.14150,1.76860
373.90043,1.79738
373.65936,1.87951
373.41829,1.92175
373.17722,1.90512
372.93615,1.92831
372.69508,1.99298
372.45401,2.04333
372.21294,1.96226
371.97187,1.90261
371.73080,1.86624
371.48973,1.80158
371.24866,1.73184
371.00759,1.69544
370.76652,1.68069
370.52545,1.66000
370.28437,1.63852
370.04330,1.62421
369.80223,1.60881
369.56116,1.58891
369.32009,1.56816
369.07902,1.54691
368.83795,1.52411
368.59688,1.50931
368.35581,1.51310
368.11474,1.53150
367.87367,1.54528
367.63260,1.53395
367.39153,1.50115
367.15046,1.47047
366.90939,1.45981
366.66832,1.47182
366.42725,1.50033
366.18618,1.53074
365.94510,1.53538
365.70403,1.50251
365.46296,1.45308
365.22189,1.41417
364.98082,1.39946
364.73975,1.40137
364.49868,1.40206
364.25761,1.39427
364.01654,1.38716
363.77547,1.39251
363.53440,1.41005
363.29333,1.42536
363.05226,1.42628
362.81119,1.41634
362.57012,1.40554
362.32905,1.39790
362.08798,1.39238
361.84691,1.39331
361.60583,1.40803
361.36476,1.43309
361.12369,1.45206
360.88262,1.45068
360.64155,1.42857
360.40048,1.39646
360.15941,1.36624
359.91834,1.34403
359.67727,1.33382
359.43620,1.34020
359.19513,1.36102
358.95406,1.38048
358.71299,1.37842
358.47192,1.35274
358.23085,1.32261
357.98978,1.31197
357.74871,1.33053
357.50764,1.36368
357.26656,1.38695
357.02549,1.39568
356.78442,1.40104
356.54335,1.40528
356.30228,1.40589
356.06121,1.40361
355.82014,1.39266
355.57907,1.36914
355.33800,1.34818
355.09693,1.34656
354.85586,1.36072
354.61479,1.37531
354.37372,1.38402
354.13265,1.39173
353.89158,1.40182
353.65051,1.40484
353.40944,1.39544
353.16837,1.39313
352.92729,1.41451
352.68622,1.44742
352.44515,1.46207
352.20408,1.44520
351.96301,1.41079
351.72194,1.37870
351.48087,1.36201
351.23980,1.36522
350.99873,1.38066
350.75766,1.39559
350.51659,1.40757
350.27552,1.41727
350.03445,1.42246
349.79338,1.43151
349.55231,1.44264
349.31124,1.43533
349.07017,1.41277
348.82910,1.39946
348.58802,1.40268
348.34695,1.40506
348.10588,1.38851
347.86481,1.36052
347.62374,1.34829
347.38267,1.36887
347.14160,1.40747
346.90053,1.42943
346.65946,1.42041
346.41839,1.40109
346.17732,1.39897
345.93625,1.42284
345.69518,1.46078
345.45411,1.49176
345.21304,1.49866
344.97197,1.47749
344.73090,1.44600
344.48983,1.42451
344.24875,1.41833
344.00768,1.42940
343.76661,1.46531
343.52554,1.53270
343.28447,1.61969
343.04340,1.69063
342.80233,1.71800
342.56126,1.71444
342.32019,1.69842
342.07912,1.66714
341.83805,1.62506
341.59698,1.58636
341.35591,1.55911
341.11484,1.53537
340.87377,1.52032
340.63270,1.53745
340.39163,1.59311
340.15056,1.66316
339.90948,1.71018
339.66841,1.72733
339.42734,1.72684
339.18627,1.70347
338.94520,1.68342
338.70413,1.71147
338.46306,1.78059
338.22199,1.82387
337.98092,1.81462
337.73985,1.78023
337.49878,1.78219
337.25771,1.84441
337.01664,1.91077
336.77557,1.97956
336.53450,2.04966
336.29343,2.01609
336.05236,1.93538
335.81129,1.87640
335.57021,1.89260
335.32914,1.96194
335.08807,1.97043
334.84700,1.87290
334.60593,1.78000
334.36486,1.76770
334.12379,1.81130
333.88272,1.85388
333.64165,1.89720
333.40058,1.91991
333.15951,1.88590
332.91844,1.82512
332.67737,1.80353
332.43630,1.85016
332.19523,1.92637
331.95416,1.95300
331.71309,1.93324
331.47202,1.89626
331.23094,1.85243
330.98987,1.83524
330.74880,1.82727
330.50773,1.78329
330.26666,1.72445
330.02559,1.68197
329.78452,1.65565
329.54345,1.64430
329.30238,1.63114
329.06131,1.59521
328.82024,1.54615
328.57917,1.50485
328.33810,1.48377
328.09703,1.48719
327.85596,1.50475
327.61489,1.51750
327.37382,1.52796
327.13275,1.55331
326.89167,1.58811
326.65060,1.61083
326.40953,1.62099
326.16846,1.64148
325.92739,1.67010
325.68632,1.67805
325.44525,1.66270
325.20418,1.65665
324.96311,1.66533
324.72204,1.67083
324.48097,1.67382
324.23990,1.66070
323.99883,1.64766
323.75776,1.68402
323.51669,1.77617
323.27562,1.83078
323.03455,1.81634
322.79348,1.82511
322.55240,1.85090
322.31133,1.84061
322.07026,1.84712
321.82919,1.87556
321.58812,1.86098
321.34705,1.80778
321.10598,1.79654
320.86491,1.83062
320.62384,1.86786
320.38277,1.89980
320.14170,1.91504
319.90063,1.90326
319.65956,1.81549
319.41849,1.77284
319.17742,1.88042
318.93635,2.03622
318.69528,2.06240
318.45421,2.12738
318.21313,2.15945
317.97206,2.17875
317.73099,2.19372
317.48992,2.13239
317.24885,2.03619
317.00778,1.95310
316.76671,1.86903
316.52564,1.79920
316.28457,1.77984
316.04350,1.77873
315.80243,1.77097
315.56136,1.80325
315.32029,1.94135
315.07922,2.15448
314.83815,2.18252
314.59708,2.12653
314.35601,2.00226
314.11494,2.00166
313.87386,2.05706
313.63279,2.09513
313.39172,2.01774
313.15065,1.88468
312.90958,1.84528
312.66851,1.92418
312.42744,2.06389
312.18637,2.14404
311.94530,2.10914
311.70423,2.09022
311.46316,2.14173
311.22209,2.23375
310.98102,2.29157
310.73995,2.25553
310.49888,2.32631
310.25781,2.46216
310.01674,2.27947
309.77567,2.13259
309.53459,2.13995
309.29352,2.15309
309.05245,2.09293
308.81138,2.03321
308.57031,2.03087
308.32924,2.13356
308.08817,2.13737
307.84710,1.91059
307.60603,1.79197
307.36496,1.76733
307.12389,1.76721
306.88282,1.81310
306.64175,1.92474
306.40068,2.01358
306.15961,2.03360
305.91854,1.97065
305.67747,1.84177
305.43640,1.78713
305.19532,1.74427
304.95425,1.66100
304.71318,1.57582
304.47211,1.52531
304.23104,1.51579
303.98997,1.52458
303.74890,1.52120
303.50783,1.49804
303.26676,1.47057
303.02569,1.45007
302.78462,1.43294
302.54355,1.41645
302.30248,1.40191
302.06141,1.38712
301.82034,1.37220
301.57927,1.36426
301.33820,1.36625
301.09713,1.36804
300.85605,1.35819
300.61498,1.33969
300.37391,1.32239
300.13284,1.30591
299.89177,1.28418
299.65070,1.26297
299.40963,1.25466
299.16856,1.25968
298.92749,1.26634
298.68642,1.26625
298.44535,1.26015
298.20428,1.24916
297.96321,1.23530
297.72214,1.22311
297.48107,1.21283
297.24000,1.20203
296.99893,1.19299
296.75786,1.18865
296.51678,1.18600
296.27571,1.18045
296.03464,1.17227
295.79357,1.16490
295.55250,1.16022
295.31143,1.15764
295.07036,1.15611
294.82929,1.15398
294.58822,1.14868
294.34715,1.14040
294.10608,1.13257
293.86501,1.12635
293.62394,1.12074
293.38287,1.11685
293.14180,1.11658
292.90073,1.11941
292.65966,1.12278
292.41859,1.12355
292.17751,1.11896
291.93644,1.11029
291.69537,1.10231
291.45430,1.09779
291.21323,1.09597
290.97216,1.09563
290.73109,1.09743
290.49002,1.10231
290.24895,1.10731
290.00788,1.10440
289.76681,1.08804
289.52574,1.06478
289.28467,1.04921
289.04360,1.04911
288.80253,1.05981
288.56146,1.07115
288.32039,1.07652
288.07932,1.07405
287.83824,1.06365
287.59717,1.04763
287.35610,1.03088
287.11503,1.01831
286.87396,1.01274
286.63289,1.01478
286.39182,1.02248
286.15075,1.03158
285.90968,1.03825
285.66861,1.04125
285.42754,1.04115
285.18647,1.03864
284.94540,1.03564
284.70433,1.03464
284.46326,1.03413
284.22219,1.02927
283.98112,1.01936
283.74005,1.01073
283.49897,1.00975
283.25790,1.01616
283.01683,1.02471
282.77576,1.02960
282.53469,1.02682
282.29362,1.01650
282.05255,1.00435
281.81148,0.99852
281.57041,1.00279
281.32934,1.01272
281.08827,1.01969
280.84720,1.01941
280.60613,1.01541
280.36506,1.01446
280.12399,1.01918
279.88292,1.02436
279.64185,1.02382
279.40078,1.01959
279.15970,1.01724
278.91863,1.01686
278.67756,1.01421
278.43649,1.00894
278.19542,1.00485
277.95435,1.00215
277.71328,0.99835
277.47221,0.99549
277.23114,0.99882
276.99007,1.00999
276.74900,1.02442
276.50793,1.03245
276.26686,1.02597
276.02579,1.00978
275.78472,0.99893
275.54365,1.00114
275.30258,1.00950
275.06151,1.01305
274.82043,1.00937
274.57936,1.00336
274.33829,0.99930
274.09722,0.99919
273.85615,1.00405
273.61508,1.01232
273.37401,1.01915
273.13294,1.02086
272.89187,1.01940
272.65080,1.01955
272.40973,1.02230
272.16866,1.02301
271.92759,1.01746
271.68652,1.00983
271.44545,1.00916
271.20438,1.01802
270.96331,1.03112
270.72224,1.04175
270.48116,1.04570
270.24009,1.04314
269.99902,1.03812
269.75795,1.03529
269.51688,1.03660
269.27581,1.04074
269.03474,1.04543
268.79367,1.04914
268.55260,1.05093
268.31153,1.05206
268.07046,1.05700
267.82939,1.06843
267.58832,1.08230
267.34725,1.09110
267.10618,1.09154
266.86511,1.08774
266.62404,1.08674
266.38297,1.09181
266.14189,1.10083
265.90082,1.10944
265.65975,1.11465
265.41868,1.11708
265.17761,1.11936
264.93654,1.12335
264.69547,1.12964
264.45440,1.13756
264.21333,1.14563
263.97226,1.15277
263.73119,1.15785
263.49012,1.15989
263.24905,1.16188
263.00798,1.17115
262.76691,1.19222
262.52584,1.22009
262.28477,1.24291
262.04370,1.25224
261.80262,1.24970
261.56155,1.24562
261.32048,1.25308
261.07941,1.27753
260.83834,1.30896
260.59727,1.32876
260.35620,1.32844
260.11513,1.31977
259.87406,1.32245
259.63299,1.34720
259.39192,1.39015
259.15085,1.43669
258.90978,1.47193
258.66871,1.49159
258.42764,1.50597
258.18657,1.53012
257.94550,1.56798
257.70443,1.61079
257.46335,1.64831
257.22228,1.67343
256.98121,1.67815
256.74014,1.66254
256.49907,1.64631
256.25800,1.65577
256.01693,1.70491
255.77586,1.78954
255.53479,1.87010
255.29372,1.89806
255.05265,1.89543
254.81158,1.89202
254.57051,1.90336
254.32944,1.93383
254.08837,1.97632
253.84730,2.03941
253.60623,2.08394
253.36516,2.10225
253.12408,2.21675
252.88301,2.44515
252.64194,2.54534
252.40087,2.50049
252.15980,2.43927
251.91873,2.26528
251.67766,2.23815
251.43659,2.26146
251.19552,2.26912
250.95445,2.26145
250.71338,2.22571
250.47231,2.23185
250.23124,2.32180
249.99017,2.41003
249.74910,2.38716
249.50803,2.31869
249.26696,2.27147
249.02589,2.23440
248.78481,2.13062
248.54374,2.02289
248.30267,1.99444
248.06160,2.06186
247.82053,2.21195
247.57946,2.32070
247.33839,2.24655
247.09732,2.11946
246.85625,2.02604
246.61518,1.99246
246.37411,2.05994
246.13304,2.22408
245.89197,2.30665
245.65090,2.20960
245.40983,2.09372
245.16876,2.06403
244.92769,2.06506
244.68661,2.00104
244.44554,1.91442
244.20447,1.84784
243.96340,1.78481
243.72233,1.71234
243.48126,1.63795
243.24019,1.56448
242.99912,1.48962
242.75805,1.41918
242.51698,1.36412
242.27591,1.32627
242.03484,1.29606
241.79377,1.26093
241.55270,1.21787
241.31163,1.17541
241.07056,1.14024
240.82949,1.10985
240.58842,1.07725
240.34734,1.03917
240.10627,0.99893
239.86520,0.96314
239.62413,0.93730
239.38306,0.92226
239.14199,0.91213
238.90092,0.89871
238.65985,0.87936
238.41878,0.85734
238.17771,0.83636
237.93664,0.81756
237.69557,0.80147
237.45450,0.78938
237.21343,0.78139
236.97236,0.77522
236.73129,0.76803
236.49022,0.75834
236.24915,0.74690
236.00807,0.73765
235.76700,0.73518
235.52593,0.73869
235.28486,0.74126
235.04379,0.73745
234.80272,0.72869
234.56165,0.71930
234.32058,0.71214
234.07951,0.70853
233.83844,0.70748
233.59737,0.70487
233.35630,0.69788
233.11523,0.68893
232.87416,0.68237
232.63309,0.67953
232.39202,0.67903
232.15095,0.67912
231.90988,0.67795
231.66880,0.67402
231.42773,0.66864
231.18666,0.66583
230.94559,0.66732
230.70452,0.66995
230.46345,0.67099
230.22238,0.67302
229.98131,0.67930
229.74024,0.68627
229.49917,0.68621
229.25810,0.67759
229.01703,0.66723
228.77596,0.66201
228.53489,0.66336
228.29382,0.66817
228.05275,0.67108
227.81168,0.66839
227.57061,0.66186
227.32953,0.65642
227.08846,0.65436
226.84739,0.65483
226.60632,0.65704
226.36525,0.66033
226.12418,0.66300
225.88311,0.66424
225.64204,0.66557
225.40097,0.66835
225.15990,0.67185
224.91883,0.67527
224.67776,0.67958
224.43669,0.68592
224.19562,0.69358
223.95455,0.70028
223.71348,0.70429
223.47241,0.70560
223.23134,0.70530
222.99026,0.70483
222.74919,0.70540
222.50812,0.70711
222.26705,0.70909
222.02598,0.71114
221.78491,0.71425
221.54384,0.71947
221.30277,0.72715
221.06170,0.73647
220.82063,0.74529
220.57956,0.75173
220.33849,0.75664
220.09742,0.76296
219.85635,0.77219
219.61528,0.78317
219.37421,0.79494
219.13314,0.80844
218.89207,0.82335
218.65099,0.83601
218.40992,0.84422
218.16885,0.85149
217.92778,0.86243
217.68671,0.87566
217.44564,0.88526
217.20457,0.88887
216.96350,0.89085
216.72243,0.89695
216.48136,0.90881
216.24029,0.92355
215.99922,0.93766
215.75815,0.95074
215.51708,0.96441
215.27601,0.97929
215.03494,0.99434
214.79387,1.00771
214.55280,1.01718
214.31172,1.02142
214.07065,1.02272
213.82958,1.02476
213.58851,1.02741
213.34744,1.02893
213.10637,1.03131
212.86530,1.03724
212.62423,1.04393
212.38316,1.04759
212.14209,1.05276
211.90102,1.06790
211.65995,1.09219
211.41888,1.11292
211.17781,1.11913
210.93674,1.11485
210.69567,1.11097
210.45460,1.10855
210.21353,1.10173
209.97245,1.09251
209.73138,1.08941
209.49031,1.09378
209.24924,1.09854
209.00817,1.09928
208.76710,1.09735
208.52603,1.09246
208.28496,1.08092
208.04389,1.06382
207.80282,1.04790
207.56175,1.03775
207.32068,1.03335
207.07961,1.03333
206.83854,1.03640
206.59747,1.03911
206.35640,1.03678
206.11533,1.02923
205.87426,1.02075
205.63318,1.01288
205.39211,1.00182
205.15104,0.98532
204.90997,0.96806
204.66890,0.95550
204.42783,0.94648
204.18676,0.93497
203.94569,0.91850
203.70462,0.90032
203.46355,0.88357
203.22248,0.86881
202.98141,0.85669
202.74034,0.84811
202.49927,0.84128
202.25820,0.83253
202.01713,0.82008
201.77606,0.80471
201.53499,0.78854
201.29391,0.77419
201.05284,0.76275
200.81177,0.75294
200.57070,0.74313
200.32963,0.73296
200.08856,0.72263
199.84749,0.71197
199.60642,0.70104
199.36535,0.69073
199.12428,0.68202
198.88321,0.67516
198.64214,0.66956
198.40107,0.66382
198.16000,0.65626
197.91893,0.64671
197.67786,0.63685
197.43679,0.62768
197.19572,0.61882
196.95464,0.61054
196.71357,0.60361
196.47250,0.59709
196.23143,0.58926
195.99036,0.58084
195.74929,0.57427
195.50822,0.56989
195.26715,0.56506
195.02608,0.55767
194.78501,0.54884
194.54394,0.54106
194.30287,0.53537
194.06180,0.53132
193.82073,0.52854
193.57966,0.52671
193.33859,0.52472
193.09752,0.52122
192.85645,0.51607
192.61537,0.51047
192.37430,0.50599
192.13323,0.50293
191.89216,0.49938
191.65109,0.49341
191.41002,0.48653
191.16895,0.48274
190.92788,0.48321
190.68681,0.48468
190.44574,0.48415
190.20467,0.48223
189.96360,0.48078
189.72253,0.47990
189.48146,0.47849
189.24039,0.47549
188.99932,0.47047
188.75825,0.46432
188.51718,0.45908
188.27610,0.45643
188.03503,0.45674
187.79396,0.45919
187.55289,0.46227
187.31182,0.46459
187.07075,0.46538
186.82968,0.46420
186.58861,0.46138
186.34754,0.45898
186.10647,0.45923
185.86540,0.46185
185.62433,0.46474
185.38326,0.46690
185.14219,0.46879
184.90112,0.47012
184.66005,0.46969
184.41898,0.46765
184.17791,0.46658
183.93683,0.46888
183.69576,0.47363
183.45469,0.47729
183.21362,0.47753
182.97255,0.47550
182.73148,0.47452
182.49041,0.47698
182.24934,0.48193
182.00827,0.48595
181.76720,0.48687
181.52613,0.48559
181.28506,0.48416
181.04399,0.48411
180.80292,0.48654
180.56185,0.49140
180.32078,0.49649
180.07971,0.49893
179.83864,0.49837
179.59756,0.49769
179.35649,0.49988
179.11542,0.50518
178.87435,0.51215
178.63328,0.52056
178.39221,0.53130
178.15114,0.54351
177.91007,0.55415
177.66900,0.56133
177.42793,0.56682
177.18686,0.57419
176.94579,0.58543
176.70472,0.59978
176.46365,0.61575
176.22258,0.63301
175.98151,0.65177
175.74044,0.67061
175.49937,0.68701
175.25829,0.70087
175.01722,0.71584
174.77615,0.73500
174.53508,0.75652
174.29401,0.77625
174.05294,0.79399
173.81187,0.81303
173.57080,0.83290
173.32973,0.84801
173.08866,0.85487
172.84759,0.85538
172.60652,0.85253
172.36545,0.84824
172.12438,0.84520
171.88331,0.84648
171.64224,0.85223
171.40117,0.85932
171.16010,0.86523
170.91902,0.87039
170.67795,0.87474
170.43688,0.87493
170.19581,0.86820
169.95474,0.85716
169.71367,0.84741
169.47260,0.84190
169.23153,0.83905
168.99046,0.83508
168.74939,0.82838
168.50832,0.82156
168.26725,0.81781
168.02618,0.81679
167.78511,0.81647
167.54404,0.81691
167.30297,0.81904
167.06190,0.82132
166.82083,0.82207
166.57975,0.82338
166.33868,0.82775
166.09761,0.83282
165.85654,0.83412
165.61547,0.83196
165.37440,0.83165
165.13333,0.83732
164.89226,0.84778
164.65119,0.85858
164.41012,0.86744
164.16905,0.87653
163.92798,0.88763
163.68691,0.89741
163.44584,0.90161
163.20477,0.90203
162.96370,0.90470
162.72263,0.91320
162.48156,0.92581
162.24048,0.93888
161.99941,0.95071
161.75834,0.96072
161.51727,0.96817
161.27620,0.97336
161.03513,0.97813
160.79406,0.98305
160.55299,0.98595
160.31192,0.98477
160.07085,0.97945
159.82978,0.97118
159.58871,0.96138
159.34764,0.95118
159.10657,0.94165
158.86550,0.93434
158.62443,0.92944
158.38336,0.92363
158.14229,0.91367
157.90121,0.90106
157.66014,0.89063
157.41907,0.88585
157.17800,0.88566
156.93693,0.88534
156.69586,0.88161
156.45479,0.87717
156.21372,0.87788
155.97265,0.88415
155.73158,0.88888
155.49051,0.88637
155.24944,0.87923
155.00837,0.87106
154.76730,0.85818
154.52623,0.83650
154.28516,0.80999
154.04409,0.78543
153.80302,0.76563
153.56194,0.75096
153.32087,0.74056
153.07980,0.73071
152.83873,0.71778
152.59766,0.70168
152.35659,0.68342
152.11552,0.66352
151.87445,0.64464
151.63338,0.63082
151.39231,0.62202
151.15124,0.61311
150.91017,0.59982
150.66910,0.58241
150.42803,0.56369
150.18696,0.54609
149.94589,0.53095
149.70482,0.51931
149.46375,0.51205
149.22267,0.50832
148.98160,0.50493
148.74053,0.49890
148.49946,0.49027
148.25839,0.48154
148.01732,0.47530
147.77625,0.47248
147.53518,0.47187
147.29411,0.47116
147.05304,0.46902
146.81197,0.46609
146.57090,0.46428
146.32983,0.46525
146.08876,0.46911
145.84769,0.47435
145.60662,0.47937
145.36555,0.48443
145.12448,0.49109
144.88340,0.49945
144.64233,0.50729
144.40126,0.51243
144.16019,0.51475
143.91912,0.51504
143.67805,0.51362
143.43698,0.51112
143.19591,0.50853
142.95484,0.50541
142.71377,0.49973
142.47270,0.49029
142.23163,0.47814
141.99056,0.46580
141.74949,0.45560
141.50842,0.44851
141.26735,0.44417
141.02628,0.44157
140.78521,0.43928
140.54413,0.43588
140.30306,0.43179
140.06199,0.42948
139.82092,0.43010
139.57985,0.43172
139.33878,0.43260
139.09771,0.43411
138.85664,0.43866
138.61557,0.44638
138.37450,0.45564
138.13343,0.46597
137.89236,0.47859
137.65129,0.49354
137.41022,0.50869
137.16915,0.52305
136.92808,0.53862
136.68701,0.55705
136.44594,0.57774
136.20486,0.60077
135.96379,0.62770
135.72272,0.65762
135.48165,0.68559
135.24058,0.70823
134.99951,0.72845
134.75844,0.75111
134.51737,0.77641
134.27630,0.80094
134.03523,0.82379
133.79416,0.84771
133.55309,0.87402
133.31202,0.90049
133.07095,0.92460
132.82988,0.94416
132.58881,0.95485
132.34774,0.95371
132.10667,0.94526
131.86559,0.93737
131.62452,0.93133
131.38345,0.92358
131.14238,0.91406
130.90131,0.90476
130.66024,0.89401
130.41917,0.87689
130.17810,0.84904
129.93703,0.81127
129.69596,0.77059
129.45489,0.73425
129.21382,0.70417
128.97275,0.67820
128.73168,0.65442
128.49061,0.63179
128.24954,0.60838
128.00847,0.58302
127.76740,0.55780
127.52632,0.53518
127.28525,0.51422
127.04418,0.49251
126.80311,0.47029
126.56204,0.45027
126.32097,0.43440
126.07990,0.42234
125.83883,0.41195
125.59776,0.40107
125.35669,0.38955
125.11562,0.37928
124.87455,0.37141
124.63348,0.36510
124.39241,0.35926
124.15134,0.35397
123.91027,0.34934
123.66920,0.34450
123.42812,0.33860
123.18705,0.33237
122.94598,0.32786
122.70491,0.32648
122.46384,0.32751
122.22277,0.32856
121.98170,0.32756
121.74063,0.32524
121.49956,0.32541
121.25849,0.33138
121.01742,0.34213
120.77635,0.35372
120.53528,0.36389
120.29421,0.37365
120.05314,0.38462
119.81207,0.39740
119.57100,0.41218
119.32993,0.42922
119.08885,0.44828
118.84778,0.46836
118.60671,0.48868
118.36564,0.51021
118.12457,0.53433
117.88350,0.55983
117.64243,0.58369
117.40136,0.60484
117.16029,0.62348
116.91922,0.63705
116.67815,0.64145
116.43708,0.63603
116.19601,0.62408
115.95494,0.60965
115.71387,0.59526
115.47280,0.58118
115.23173,0.56634
114.99066,0.55142
114.74958,0.53977
114.50851,0.53370
114.26744,0.53134
114.02637,0.52922
113.78530,0.52630
113.54423,0.52380
113.30316,0.52266
113.06209,0.52375
112.82102,0.52886
112.57995,0.53772
112.33888,0.54540
112.09781,0.54751
111.85674,0.54670
111.61567,0.54819
111.37460,0.55099
111.13353,0.55052
110.89246,0.54814
110.65139,0.55012
110.41031,0.55768
110.16924,0.56424
109.92817,0.56288
109.68710,0.55267
109.44603,0.53599
109.20496,0.51466
108.96389,0.49145
108.72282,0.47094
108.48175,0.45507
108.24068,0.44121
107.99961,0.42663
107.75854,0.41113
107.51747,0.39481
107.27640,0.37673
107.03533,0.35739
106.79426,0.34001
106.55319,0.32777
106.31212,0.32075
106.07104,0.31553
105.82997,0.30747
105.58890,0.29487
105.34783,0.28111
105.10676,0.27076
104.86569,0.26437
104.62462,0.25862
104.38355,0.25121
104.14248,0.24370
103.90141,0.23872
103.66034,0.23612
103.41927,0.23338
103.17820,0.22914
102.93713,0.22457
102.69606,0.22101
102.45499,0.21795
102.21392,0.21441
101.97285,0.21072
101.73177,0.20811
101.49070,0.20711
101.24963,0.20672
101.00856,0.20502
100.76749,0.20052
100.52642,0.19357
100.28535,0.18654
100.04428,0.18218
99.80321,0.18136
99.56214,0.18246
99.32107,0.18264
99.08000,0.18030
98.83893,0.17693
98.59786,0.17530
98.35679,0.17585
98.11572,0.17664
97.87465,0.17703
97.63358,0.17820
97.39250,0.18034
97.15143,0.18273
96.91036,0.18613
96.66929,0.19171
96.42822,0.19828
96.18715,0.20377
95.94608,0.20841
95.70501,0.21433
95.46394,0.22261
95.22287,0.23171
94.98180,0.23872
94.74073,0.24234
94.49966,0.24449
94.25859,0.24772
94.01752,0.25151
93.77645,0.25338
93.53538,0.25282
93.29431,0.25195
93.05323,0.25201
92.81216,0.25155
92.57109,0.24927
92.33002,0.24723
92.08895,0.24894
91.84788,0.25513
91.60681,0.26334
91.36574,0.27200
91.12467,0.28303
90.88360,0.30000
90.64253,0.32435
90.40146,0.35427
90.16039,0.38719
89.91932,0.42215
89.67825,0.45829
89.43718,0.49288
89.19611,0.52299
88.95504,0.54752
88.71396,0.56494
88.47289,0.57098
88.23182,0.56138
87.99075,0.53514
87.74968,0.49604
87.50861,0.45236
87.26754,0.41198
87.02647,0.37760
86.78540,0.34759
86.54433,0.32015
86.30326,0.29520
86.06219,0.27293
85.82112,0.25226
85.58005,0.23232
85.33898,0.21418
85.09791,0.19959
84.85684,0.18812
84.61577,0.17717
84.37469,0.16521
84.13362,0.15385
83.89255,0.14615
83.65148,0.14281
83.41041,0.14046
83.16934,0.13489
82.92827,0.12632
82.68720,0.11948
82.44613,0.11776
82.20506,0.11963
81.96399,0.12121
81.72292,0.12049
81.48185,0.11769
81.24078,0.11358
80.99971,0.10948
80.75864,0.10739
80.51757,0.10791
80.27650,0.10896
80.03542,0.10794
79.79435,0.10480
79.55328,0.10174
79.31221,0.10043
79.07114,0.10066
78.83007,0.10153
78.58900,0.10254
78.34793,0.10336
78.10686,0.10354
77.86579,0.10310
77.62472,0.10228
77.38365,0.10034
77.14258,0.09613
76.90151,0.09039
76.66044,0.08571
76.41937,0.08382
76.17830,0.08411
75.93723,0.08512
75.69615,0.08623
75.45508,0.08744
75.21401,0.08832
74.97294,0.08840
74.73187,0.08840
74.49080,0.08936
74.24973,0.09035
74.00866,0.08842
73.76759,0.08208
73.52652,0.07401
73.28545,0.06920
73.04438,0.07006
72.80331,0.07404
72.56224,0.07703
72.32117,0.07821
72.08010,0.07989
71.83903,0.08343
71.59796,0.08788
71.35688,0.09224
71.11581,0.09637
70.87474,0.09976
70.63367,0.10180
70.39260,0.10380
70.15153,0.10905
69.91046,0.12000
69.66939,0.13602
69.42832,0.15349
69.18725,0.16676
68.94618,0.17083
68.70511,0.16528
68.46404,0.15371
68.22297,0.13930
67.98190,0.12383
67.74083,0.10940
67.49976,0.09785
67.25869,0.08946
67.01761,0.08375
66.77654,0.07989
66.53547,0.07626
66.29440,0.07157
66.05333,0.06674
65.81226,0.06452
65.57119,0.06678
65.33012,0.07214
65.08905,0.07756
64.84798,0.08215
64.60691,0.08793
64.36584,0.09619
64.12477,0.10451
63.88370,0.10878
63.64263,0.10713
63.40156,0.10120
63.16049,0.09412
62.91942,0.08813
62.67834,0.08360
62.43727,0.07950
62.19620,0.07482
61.95513,0.06972
61.71406,0.06542
61.47299,0.06275
61.23192,0.06087
60.99085,0.05803
60.74978,0.05364
60.50871,0.04948
60.26764,0.04803
60.02657,0.04967
59.78550,0.05242
59.54443,0.05440
59.30336,0.05536
59.06229,0.05562
58.82122,0.05458
58.58015,0.05153
58.33907,0.04765
58.09800,0.04566
57.85693,0.04613
57.61586,0.04640
57.37479,0.04432
57.13372,0.04086
56.89265,0.03770
56.65158,0.03514
56.41051,0.03320
56.16944,0.03183
55.92837,0.03095
55.68730,0.03204
55.44623,0.03687
55.20516,0.04345
54.96409,0.04642
54.72302,0.04356
54.48195,0.03896
54.24088,0.03790
53.99980,0.04158
53.75873,0.04769
53.51766,0.05333
53.27659,0.05577
53.03552,0.05307
52.79445,0.04636
52.55338,0.04094
52.31231,0.04205
52.07124,0.04894
51.83017,0.05527
51.58910,0.05536
51.34803,0.04884
51.10696,0.03958
50.86589,0.03198
50.62482,0.02862
50.38375,0.02964
50.14268,0.03259
49.90161,0.03318
49.66053,0.02821
49.41946,0.01853
49.17839,0.00843
48.93732,0.00242
48.69625,0.00281
48.45518,0.00788
48.21411,0.01162
47.97304,0.00844
47.73197,-0.00107
47.49090,-0.01064
47.24983,-0.01512
47.00876,-0.01597
46.76769,-0.01886
46.52662,-0.02477
46.28555,-0.02746
46.04448,-0.02275
45.80341,-0.01556
45.56234,-0.01447
45.32126,-0.02251
45.08019,-0.03485
44.83912,-0.04271
44.59805,-0.03906
44.35698,-0.02492
44.11591,-0.00979
43.87484,-0.00089
43.63377,0.00351
43.39270,0.00649
43.15163,0.00496
42.91056,-0.00412
42.66949,-0.01539
42.42842,-0.02056
42.18735,-0.02019
41.94628,-0.02249
41.70521,-0.03032
41.46414,-0.03997
41.22307,-0.05026
40.98199,-0.06260
40.74092,-0.07421
40.49985,-0.07639
40.25878,-0.06250
40.01771,-0.03666
39.77664,-0.01143
39.53557,0.00239
39.29450,0.00223
39.05343,-0.00846
38.81236,-0.02330
38.57129,-0.03327
38.33022,-0.03388
38.08915,-0.03390
37.84808,-0.04601
37.60701,-0.06713
37.36594,-0.07671
37.12487,-0.06233
36.88380,-0.03593
36.64272,-0.01341
36.40165,0.00030
36.16058,0.00390
35.91951,-0.00379
35.67844,-0.01820
35.43737,-0.02861
35.19630,-0.02931
34.95523,-0.02564
34.71416,-0.02701
34.47309,-0.03669
34.23202,-0.04586
33.99095,-0.04170
33.74988,-0.02524
33.50881,-0.01307
33.26774,-0.01601
33.02667,-0.02281
32.78560,-0.00529
32.54453,0.04423
32.30345,0.08914
32.06238,0.08871
31.82131,0.04403
31.58024,-0.01126
31.33917,-0.04809
31.09810,-0.05527
30.85703,-0.04148
30.61596,-0.02746
30.37489,-0.02408
30.13382,-0.02905
29.89275,-0.03727
29.65168,-0.04120
29.41061,-0.03188
29.16954,-0.01047
28.92847,0.01242
28.68740,0.03858
28.44633,0.06504
28.20526,0.07642
27.96418,0.07046
27.72311,0.05980
27.48204,0.05403
27.24097,0.05335
26.99990,0.04542
26.75883,0.02415
26.51776,0.00205
26.27669,-0.00391
26.03562,0.00367
25.79455,0.00797
25.55348,0.01075
25.31241,0.03635
25.07134,0.09566
24.83027,0.16542
24.58920,0.21806
24.34813,0.23656
24.10706,0.21049
23.86599,0.16914
23.62491,0.18648
23.38384,0.28608
23.14277,0.37271
22.90170,0.36158
22.66063,0.31224
22.41956,0.30990
22.17849,0.32450
21.93742,0.28940
21.69635,0.22944
21.45528,0.22938
21.21421,0.29924
20.97314,0.36600
20.73207,0.37517
20.49100,0.36745
20.24993,0.39475
20.00886,0.42227
19.76779,0.40474
19.52672,0.39339
19.28564,0.44425
19.04457,0.46599
18.80350,0.53352
18.56243,0.49769
18.32136,0.47923
18.08029,0.47697
17.83922,0.46155
17.59815,0.46615
17.35708,0.54632
17.11601,0.74868
16.87494,0.96743
16.63387,0.90559
16.39280,0.72064
16.15173,0.58074
15.91066,0.51949
15.66959,0.53286
15.42852,0.55957
15.18745,0.58249
14.94637,0.59035
14.70530,0.56115
14.46423,0.54564
14.22316,0.60318
13.98209,0.68101
13.74102,0.70909
13.49995,0.68167
13.25888,0.60826
13.01781,0.63205
12.77674,0.62890
12.53567,0.71338
12.29460,0.79299
12.05353,0.67759
11.81246,0.53327
11.57139,0.47472
11.33032,0.55777
11.08925,0.84956
10.84818,1.08226
10.60710,0.79701
10.36603,0.67582
10.12496,0.59377
9.88389,0.51088
9.64282,0.49085
9.40175,0.49832
9.16068,0.52223
8.91961,0.53868
8.67854,0.58172
8.43747,0.68520
8.19640,0.82100
7.95533,0.97855
7.71426,0.94288
7.47319,0.67832
7.23212,0.59555
6.99105,0.58230
6.74998,0.69239
6.50891,0.98734
6.26783,0.86470
6.02676,0.74026
5.78569,0.77259
5.54462,0.71637
5.30355,0.54330
5.06248,0.44168
4.82141,0.43506
4.58034,0.46363
4.33927,0.49970
4.09820,0.52249
3.85713,0.53890
3.61606,0.56706
3.37499,0.60566
3.13392,0.78970
2.89285,1.18417
2.65178,0.89303
2.41071,0.72395
2.16964,0.69030
1.92856,0.59521
1.68749,0.46760
1.44642,0.44690
1.20535,0.58490
0.96428,0.81831
0.72321,0.99947
0.48214,1.07561
0.24107,0.98130
-0.00000,0.60831
