399.69498,1.44723
399.45391,1.45504
399.21284,1.47009
398.97177,1.48369
398.73070,1.48833
398.48963,1.48627
398.24856,1.48472
398.00749,1.48666
397.76642,1.48895
397.52535,1.48786
397.28428,1.48315
397.04321,1.47599
396.80214,1.46636
396.56107,1.45474
396.32000,1.44425
396.07892,1.43919
395.83785,1.44013
395.59678,1.44160
395.35571,1.43823
395.11464,1.43130
394.87357,1.42648
394.63250,1.42880
394.39143,1.43920
394.15036,1.45241
393.90929,1.45910
393.66822,1.45282
393.42715,1.43758
393.18608,1.42670
392.94501,1.43172
392.70394,1.45068
392.46287,1.46689
392.22180,1.46566
391.98073,1.45158
391.73965,1.43761
391.49858,1.42596
391.25751,1.41179
391.01644,1.39731
390.77537,1.39151
390.53430,1.39812
390.29323,1.41225
390.05216,1.42572
389.81109,1.43122
389.57002,1.42598
389.32895,1.41401
389.08788,1.40181
388.84681,1.39268
388.60574,1.38555
388.36467,1.37786
388.12360,1.36910
387.88253,1.36078
387.64146,1.35383
387.40038,1.34894
387.15931,1.34549
386.91824,1.33785
386.67717,1.32309
386.43610,1.31079
386.19503,1.31276
385.95396,1.32952
385.71289,1.34897
385.47182,1.35530
385.23075,1.34355
384.98968,1.32329
384.74861,1.30638
384.50754,1.29827
384.26647,1.29779
384.02540,1.29579
383.78433,1.27954
383.54326,1.24808
383.30219,1.21501
383.06111,1.19382
382.82004,1.18936
382.57897,1.19926
382.33790,1.21536
382.09683,1.22449
381.85576,1.21648
381.61469,1.19598
381.37362,1.17874
381.13255,1.17469
380.89148,1.17928
380.65041,1.18085
380.40934,1.17549
380.16827,1.16973
379.92720,1.16983
379.68613,1.17612
379.44506,1.18665
379.20399,1.19794
378.96292,1.20452
378.72184,1.20577
378.48077,1.20849
378.23970,1.21687
377.99863,1.22656
377.75756,1.23198
377.51649,1.23357
377.27542,1.23513
377.03435,1.23930
376.79328,1.24616
376.55221,1.25415
376.31114,1.26298
376.07007,1.27433
375.82900,1.28881
375.58793,1.30460
375.34686,1.31911
375.10579,1.32849
374.86472,1.32701
374.62365,1.31337
374.38257,1.29534
374.14150,1.28314
373.90043,1.28162
373.65936,1.28917
373.41829,1.29951
373.17722,1.30520
372.93615,1.30412
372.69508,1.30115
372.45401,1.30138
372.21294,1.30621
371.97187,1.31512
371.73080,1.32625
371.48973,1.33517
371.24866,1.33664
371.00759,1.33035
370.76652,1.32348
370.52545,1.32314
370.28437,1.32784
370.04330,1.33132
369.80223,1.33056
369.56116,1.32589
369.32009,1.31813
369.07902,1.30925
368.83795,1.30313
368.59688,1.30191
368.35581,1.30296
368.11474,1.30127
367.87367,1.29463
367.63260,1.28560
367.39153,1.27819
367.15046,1.27364
366.90939,1.27074
366.66832,1.26882
366.42725,1.26859
366.18618,1.27113
365.94510,1.27601
365.70403,1.27975
365.46296,1.27800
365.22189,1.27070
364.98082,1.26252
364.73975,1.25695
364.49868,1.25333
364.25761,1.25057
364.01654,1.24903
363.77547,1.24804
363.53440,1.24617
363.29333,1.24443
363.05226,1.24535
362.81119,1.24848
362.57012,1.25046
362.32905,1.24945
362.08798,1.24595
361.84691,1.24028
361.60583,1.23266
361.36476,1.22508
361.12369,1.22039
360.88262,1.21922
360.64155,1.21964
360.40048,1.21917
360.15941,1.21717
359.91834,1.21659
359.67727,1.22104
359.43620,1.22916
359.19513,1.23462
358.95406,1.23319
358.71299,1.22774
358.47192,1.22316
358.23085,1.21986
357.98978,1.21587
357.74871,1.21140
357.50764,1.20730
357.26656,1.20265
357.02549,1.19733
356.78442,1.19367
356.54335,1.19353
356.30228,1.19593
356.06121,1.19876
355.82014,1.20038
355.57907,1.19935
355.33800,1.19565
355.09693,1.19112
354.85586,1.18724
354.61479,1.18433
354.37372,1.18297
354.13265,1.18335
353.89158,1.18396
353.65051,1.18326
353.40944,1.18175
353.16837,1.18111
352.92729,1.18176
352.68622,1.18208
352.44515,1.18073
352.20408,1.17828
351.96301,1.17656
351.72194,1.17737
351.48087,1.18029
351.23980,1.18231
350.99873,1.18157
350.75766,1.17986
350.51659,1.17969
350.27552,1.18032
350.03445,1.17846
349.79338,1.17276
349.55231,1.16592
349.31124,1.16216
349.07017,1.16400
348.82910,1.17192
348.58802,1.18488
348.34695,1.19845
348.10588,1.20513
347.86481,1.20165
347.62374,1.19402
347.38267,1.19049
347.14160,1.19136
346.90053,1.19053
346.65946,1.18668
346.41839,1.18615
346.17732,1.19308
345.93625,1.20407
345.69518,1.21448
345.45411,1.22287
345.21304,1.22695
344.97197,1.22377
344.73090,1.21771
344.48983,1.21969
344.24875,1.23365
344.00768,1.25050
343.76661,1.25871
343.52554,1.25650
343.28447,1.25077
343.04340,1.24765
342.80233,1.24738
342.56126,1.24769
342.32019,1.24773
342.07912,1.24840
341.83805,1.25021
341.59698,1.25180
341.35591,1.25225
341.11484,1.25228
340.87377,1.25286
340.63270,1.25535
340.39163,1.26203
340.15056,1.27323
339.90948,1.28478
339.66841,1.29141
339.42734,1.29265
339.18627,1.29171
338.94520,1.29040
338.70413,1.28944
338.46306,1.28969
338.22199,1.29088
337.98092,1.29237
337.73985,1.29301
337.49878,1.29147
337.25771,1.28889
337.01664,1.28934
336.77557,1.29413
336.53450,1.29884
336.29343,1.29937
336.05236,1.29721
335.81129,1.29572
335.57021,1.29460
335.32914,1.29214
335.08807,1.28967
334.84700,1.28886
334.60593,1.28723
334.36486,1.28073
334.12379,1.26945
333.88272,1.25711
333.64165,1.24631
333.40058,1.23846
333.15951,1.23551
332.91844,1.23808
332.67737,1.24385
332.43630,1.24958
332.19523,1.25367
331.95416,1.25578
331.71309,1.25440
331.47202,1.24682
331.23094,1.23321
330.98987,1.21765
330.74880,1.20474
330.50773,1.19805
330.26666,1.19987
330.02559,1.20810
329.78452,1.21451
329.54345,1.21130
329.30238,1.19965
329.06131,1.18855
328.82024,1.18448
328.57917,1.18537
328.33810,1.18521
328.09703,1.18170
327.85596,1.17769
327.61489,1.17756
327.37382,1.18286
327.13275,1.19019
326.89167,1.19454
326.65060,1.19399
326.40953,1.19006
326.16846,1.18538
325.92739,1.18284
325.68632,1.18491
325.44525,1.19061
325.20418,1.19521
324.96311,1.19577
324.72204,1.19367
324.48097,1.18992
324.23990,1.18361
323.99883,1.17585
323.75776,1.17078
323.51669,1.17176
323.27562,1.17840
323.03455,1.18518
322.79348,1.18415
322.55240,1.17471
322.31133,1.16743
322.07026,1.17167
321.82919,1.18445
321.58812,1.19546
321.34705,1.19880
321.10598,1.19586
320.86491,1.19119
320.62384,1.18904
320.38277,1.19082
320.14170,1.19399
319.90063,1.19489
319.65956,1.19326
319.41849,1.19208
319.17742,1.19313
318.93635,1.19585
318.69528,1.19882
318.45421,1.19999
318.21313,1.19681
317.97206,1.19007
317.73099,1.18506
317.48992,1.18436
317.24885,1.18598
317.00778,1.18885
316.76671,1.19370
316.52564,1.19844
316.28457,1.19876
316.04350,1.19334
315.80243,1.18571
315.56136,1.18149
315.32029,1.18309
315.07922,1.19078
314.83815,1.20476
314.59708,1.22163
314.35601,1.23267
314.11494,1.22923
313.87386,1.21316
313.63279,1.19736
313.39172,1.19270
313.15065,1.19974
312.90958,1.21321
312.66851,1.22914
312.42744,1.24383
312.18637,1.25123
311.94530,1.24792
311.70423,1.23742
311.46316,1.22681
311.22209,1.22151
310.98102,1.22261
310.73995,1.22766
310.49888,1.23428
310.25781,1.24156
310.01674,1.24910
309.77567,1.25646
309.53459,1.26379
309.29352,1.27092
309.05245,1.27594
308.81138,1.27654
308.57031,1.27293
308.32924,1.26834
308.08817,1.26705
307.84710,1.27084
307.60603,1.27598
307.36496,1.27628
307.12389,1.27026
306.88282,1.26268
306.64175,1.25874
306.40068,1.25955
306.15961,1.26341
305.91854,1.26829
305.67747,1.27146
305.43640,1.27083
305.19532,1.26845
304.95425,1.26843
304.71318,1.27165
304.47211,1.27487
304.23104,1.27323
303.98997,1.26525
303.74890,1.25581
303.50783,1.25155
303.26676,1.25367
303.02569,1.25746
302.78462,1.25964
302.54355,1.26172
302.30248,1.26417
302.06141,1.26409
301.82034,1.26155
301.57927,1.26105
301.33820,1.26402
301.09713,1.26635
300.85605,1.26446
300.61498,1.25850
300.37391,1.25111
300.13284,1.24659
299.89177,1.24804
299.65070,1.25247
299.40963,1.25205
299.16856,1.24409
298.92749,1.23555
298.68642,1.23342
298.44535,1.23584
298.20428,1.23602
297.96321,1.23238
297.72214,1.22904
297.48107,1.22766
297.24000,1.22617
296.99893,1.22383
296.75786,1.22189
296.51678,1.22001
296.27571,1.21665
296.03464,1.21182
295.79357,1.20706
295.55250,1.20399
295.31143,1.20254
295.07036,1.20002
294.82929,1.19494
294.58822,1.19048
294.34715,1.18995
294.10608,1.19124
293.86501,1.18986
293.62394,1.18466
293.38287,1.17799
293.14180,1.17366
292.90073,1.17531
292.65966,1.18297
292.41859,1.19105
292.17751,1.19351
291.93644,1.19022
291.69537,1.18453
291.45430,1.17838
291.21323,1.17292
290.97216,1.16948
290.73109,1.16728
290.49002,1.16460
290.24895,1.16252
290.00788,1.16249
289.76681,1.16207
289.52574,1.15901
289.28467,1.15618
289.04360,1.15657
288.80253,1.15749
288.56146,1.15478
288.32039,1.14926
288.07932,1.14468
287.83824,1.14213
287.59717,1.13950
287.35610,1.13522
287.11503,1.13130
286.87396,1.13127
286.63289,1.13459
286.39182,1.13564
286.15075,1.13062
285.90968,1.12327
285.66861,1.12015
285.42754,1.12221
285.18647,1.12427
284.94540,1.12244
284.70433,1.11878
284.46326,1.11743
284.22219,1.11951
283.98112,1.12366
283.74005,1.12841
283.49897,1.13159
283.25790,1.13015
283.01683,1.12431
282.77576,1.11923
282.53469,1.11905
282.29362,1.12197
282.05255,1.12354
281.81148,1.12175
281.57041,1.11749
281.32934,1.11309
281.08827,1.11147
280.84720,1.11361
280.60613,1.11654
280.36506,1.11626
280.12399,1.11264
279.88292,1.10927
279.64185,1.10881
279.40078,1.11047
279.15970,1.11230
278.91863,1.11350
278.67756,1.11361
278.43649,1.11223
278.19542,1.11088
277.95435,1.11204
277.71328,1.11534
277.47221,1.11830
277.23114,1.12007
276.99007,1.12129
276.74900,1.12143
276.50793,1.11960
276.26686,1.11638
276.02579,1.11293
275.78472,1.11016
275.54365,1.10922
275.30258,1.11084
275.06151,1.11361
274.82043,1.11467
274.57936,1.11348
274.33829,1.11357
274.09722,1.11815
273.85615,1.12488
273.61508,1.12804
273.37401,1.12630
273.13294,1.12420
272.89187,1.12450
272.65080,1.12468
272.40973,1.12230
272.16866,1.11908
271.92759,1.11770
271.68652,1.11800
271.44545,1.11875
271.20438,1.12079
270.96331,1.12639
270.72224,1.13590
270.48116,1.14595
270.24009,1.15163
269.99902,1.15100
269.75795,1.14641
269.51688,1.14156
269.27581,1.13936
269.03474,1.14183
268.79367,1.14874
268.55260,1.15661
268.31153,1.16201
268.07046,1.16576
267.82939,1.17145
267.58832,1.18051
267.34725,1.19052
267.10618,1.19781
266.86511,1.20084
266.62404,1.20110
266.38297,1.20078
266.14189,1.20130
265.90082,1.20403
265.65975,1.20959
265.41868,1.21631
265.17761,1.22221
264.93654,1.22858
264.69547,1.23855
264.45440,1.25220
264.21333,1.26498
263.97226,1.27188
263.73119,1.27347
263.49012,1.27677
263.24905,1.28796
263.00798,1.30513
262.76691,1.32108
262.52584,1.33242
262.28477,1.34230
262.04370,1.35431
261.80262,1.36783
261.56155,1.38021
261.32048,1.39082
261.07941,1.40085
260.83834,1.41078
260.59727,1.42113
260.35620,1.43332
260.11513,1.44697
259.87406,1.46001
259.63299,1.47372
259.39192,1.49331
259.15085,1.52131
258.90978,1.55129
258.66871,1.57271
258.42764,1.58286
258.18657,1.58842
257.94550,1.59729
257.70443,1.61104
257.46335,1.62611
257.22228,1.63772
256.98121,1.64625
256.74014,1.65982
256.49907,1.68392
256.25800,1.71015
256.01693,1.72278
255.77586,1.72186
255.53479,1.72250
255.29372,1.72376
255.05265,1.70901
254.81158,1.67598
254.57051,1.63964
254.32944,1.61161
254.08837,1.59540
253.84730,1.59018
253.60623,1.58959
253.36516,1.58506
253.12408,1.57411
252.88301,1.56180
252.64194,1.55349
252.40087,1.54881
252.15980,1.54372
251.91873,1.53664
251.67766,1.53115
251.43659,1.52926
251.19552,1.52557
250.95445,1.51537
250.71338,1.50334
250.47231,1.49772
250.23124,1.50053
249.99017,1.50752
249.74910,1.51368
249.50803,1.51557
249.26696,1.51358
249.02589,1.51163
248.78481,1.51132
248.54374,1.51059
248.30267,1.50846
248.06160,1.50519
247.82053,1.49845
247.57946,1.48679
247.33839,1.47652
247.09732,1.47797
246.85625,1.49459
246.61518,1.51981
246.37411,1.54459
246.13304,1.56526
245.89197,1.58248
245.65090,1.59795
245.40983,1.61435
245.16876,1.63334
244.92769,1.65248
244.68661,1.67001
244.44554,1.69298
244.20447,1.73148
243.96340,1.78050
243.72233,1.82024
243.48126,1.84004
243.24019,1.85016
242.99912,1.85356
242.75805,1.82361
242.51698,1.77041
242.27591,1.73606
242.03484,1.72546
241.79377,1.70813
241.55270,1.65879
241.31163,1.58686
241.07056,1.51651
240.82949,1.46048
240.58842,1.42008
240.34734,1.39166
240.10627,1.36853
239.86520,1.34512
239.62413,1.32113
239.38306,1.29853
239.14199,1.27780
238.90092,1.25689
238.65985,1.23245
238.41878,1.20422
238.17771,1.17669
237.93664,1.15447
237.69557,1.13698
237.45450,1.12037
237.21343,1.10395
236.97236,1.09049
236.73129,1.08054
236.49022,1.07091
236.24915,1.05919
236.00807,1.04593
235.76700,1.03295
235.52593,1.02233
235.28486,1.01552
235.04379,1.01154
234.80272,1.00716
234.56165,1.00057
234.32058,0.99304
234.07951,0.98577
233.83844,0.97793
233.59737,0.96924
233.35630,0.96118
233.11523,0.95442
232.87416,0.94826
232.63309,0.94329
232.39202,0.94113
232.15095,0.94129
231.90988,0.94118
231.66880,0.93930
231.42773,0.93603
231.18666,0.93153
230.94559,0.92555
230.70452,0.91929
230.46345,0.91508
230.22238,0.91359
229.98131,0.91327
229.74024,0.91271
229.49917,0.91100
229.25810,0.90587
229.01703,0.89565
228.77596,0.88370
228.53489,0.87679
228.29382,0.87771
228.05275,0.88182
227.81168,0.88241
227.57061,0.87789
227.32953,0.87113
227.08846,0.86413
226.84739,0.85766
226.60632,0.85326
226.36525,0.85175
226.12418,0.85160
225.88311,0.85102
225.64204,0.84962
225.40097,0.84740
225.15990,0.84436
224.91883,0.84125
224.67776,0.83869
224.43669,0.83689
224.19562,0.83695
223.95455,0.83996
223.71348,0.84469
223.47241,0.84807
223.23134,0.84831
222.99026,0.84663
222.74919,0.84542
222.50812,0.84567
222.26705,0.84688
222.02598,0.84931
221.78491,0.85382
221.54384,0.85974
221.30277,0.86552
221.06170,0.87150
220.82063,0.87931
220.57956,0.88857
220.33849,0.89664
220.09742,0.90174
219.85635,0.90477
219.61528,0.90778
219.37421,0.91211
219.13314,0.91851
218.89207,0.92727
218.65099,0.93725
218.40992,0.94625
218.16885,0.95373
217.92778,0.96182
217.68671,0.97267
217.44564,0.98628
217.20457,1.00087
216.96350,1.01422
216.72243,1.02506
216.48136,1.03403
216.24029,1.04316
215.99922,1.05384
215.75815,1.06559
215.51708,1.07644
215.27601,1.08432
215.03494,1.08904
214.79387,1.09305
214.55280,1.09942
214.31172,1.10967
214.07065,1.12325
213.82958,1.13733
213.58851,1.14872
213.34744,1.15756
213.10637,1.16727
212.86530,1.17958
212.62423,1.19202
212.38316,1.20076
212.14209,1.20350
211.90102,1.20062
211.65995,1.19656
211.41888,1.19803
211.17781,1.20783
210.93674,1.22033
210.69567,1.22621
210.45460,1.22347
210.21353,1.21817
209.97245,1.21585
209.73138,1.21748
209.49031,1.22094
209.24924,1.22322
209.00817,1.22224
208.76710,1.21849
208.52603,1.21475
208.28496,1.21217
208.04389,1.20873
207.80282,1.20262
207.56175,1.19448
207.32068,1.18584
207.07961,1.17797
206.83854,1.17157
206.59747,1.16550
206.35640,1.15790
206.11533,1.14932
205.87426,1.14147
205.63318,1.13366
205.39211,1.12398
205.15104,1.11291
204.90997,1.10243
204.66890,1.09259
204.42783,1.08164
204.18676,1.06958
203.94569,1.05882
203.70462,1.05056
203.46355,1.04294
203.22248,1.03344
202.98141,1.02149
202.74034,1.00839
202.49927,0.99617
202.25820,0.98597
202.01713,0.97645
201.77606,0.96491
201.53499,0.95055
201.29391,0.93575
201.05284,0.92343
200.81177,0.91379
200.57070,0.90434
200.32963,0.89330
200.08856,0.88187
199.84749,0.87173
199.60642,0.86203
199.36535,0.85133
199.12428,0.84100
198.88321,0.83280
198.64214,0.82478
198.40107,0.81425
198.16000,0.80281
197.91893,0.79344
197.67786,0.78504
197.43679,0.77427
197.19572,0.76147
196.95464,0.75036
196.71357,0.74282
196.47250,0.73738
196.23143,0.73201
195.99036,0.72644
195.74929,0.72175
195.50822,0.71800
195.26715,0.71346
195.02608,0.70696
194.78501,0.69966
194.54394,0.69278
194.30287,0.68580
194.06180,0.67823
193.82073,0.67128
193.57966,0.66600
193.33859,0.66187
193.09752,0.65811
192.85645,0.65440
192.61537,0.64987
192.37430,0.64350
192.13323,0.63611
191.89216,0.62998
191.65109,0.62600
191.41002,0.62268
191.16895,0.61849
190.92788,0.61367
190.68681,0.60917
190.44574,0.60536
190.20467,0.60250
189.96360,0.60080
189.72253,0.59950
189.48146,0.59744
189.24039,0.59456
188.99932,0.59153
188.75825,0.58823
188.51718,0.58440
188.27610,0.58092
188.03503,0.57839
187.79396,0.57610
187.55289,0.57407
187.31182,0.57366
187.07075,0.57450
186.82968,0.57409
186.58861,0.57161
186.34754,0.56888
186.10647,0.56706
185.86540,0.56574
185.62433,0.56484
185.38326,0.56487
185.14219,0.56567
184.90112,0.56663
184.66005,0.56725
184.41898,0.56729
184.17791,0.56669
183.93683,0.56563
183.69576,0.56468
183.45469,0.56460
183.21362,0.56537
182.97255,0.56597
182.73148,0.56585
182.49041,0.56568
182.24934,0.56613
182.00827,0.56707
181.76720,0.56829
181.52613,0.56952
181.28506,0.57016
181.04399,0.57017
180.80292,0.57032
180.56185,0.57074
180.32078,0.57071
180.07971,0.57054
179.83864,0.57236
179.59756,0.57768
179.35649,0.58495
179.11542,0.59098
178.87435,0.59464
178.63328,0.59747
178.39221,0.60119
178.15114,0.60655
177.91007,0.61398
177.66900,0.62337
177.42793,0.63360
177.18686,0.64315
176.94579,0.65177
176.70472,0.66137
176.46365,0.67434
176.22258,0.69048
175.98151,0.70685
175.74044,0.72117
175.49937,0.73398
175.25829,0.74699
175.01722,0.76147
174.77615,0.77812
174.53508,0.79659
174.29401,0.81466
174.05294,0.82949
173.81187,0.84088
173.57080,0.85186
173.32973,0.86419
173.08866,0.87605
172.84759,0.88610
172.60652,0.89582
172.36545,0.90583
172.12438,0.91358
171.88331,0.91649
171.64224,0.91454
171.40117,0.90950
171.16010,0.90413
170.91902,0.90113
170.67795,0.90125
170.43688,0.90244
170.19581,0.90160
169.95474,0.89689
169.71367,0.88850
169.47260,0.87803
169.23153,0.86802
168.99046,0.86056
168.74939,0.85562
168.50832,0.85188
168.26725,0.84880
168.02618,0.84637
167.78511,0.84387
167.54404,0.84074
167.30297,0.83809
167.06190,0.83777
166.82083,0.84041
166.57975,0.84488
166.33868,0.84939
166.09761,0.85297
165.85654,0.85605
165.61547,0.85966
165.37440,0.86429
165.13333,0.86983
164.89226,0.87605
164.65119,0.88317
164.41012,0.89167
164.16905,0.90171
163.92798,0.91319
163.68691,0.92596
163.44584,0.93934
163.20477,0.95133
162.96370,0.95954
162.72263,0.96373
162.48156,0.96633
162.24048,0.96978
161.99941,0.97452
161.75834,0.98014
161.51727,0.98606
161.27620,0.98986
161.03513,0.98877
160.79406,0.98429
160.55299,0.98131
160.31192,0.98249
160.07085,0.98634
159.82978,0.98897
159.58871,0.98696
159.34764,0.98064
159.10657,0.97415
158.86550,0.97065
158.62443,0.96864
158.38336,0.96431
158.14229,0.95666
157.90121,0.94827
157.66014,0.94233
157.41907,0.94039
157.17800,0.94173
156.93693,0.94325
156.69586,0.94150
156.45479,0.93630
156.21372,0.93106
155.97265,0.92842
155.73158,0.92709
155.49051,0.92409
155.24944,0.91890
155.00837,0.91287
154.76730,0.90624
154.52623,0.89792
154.28516,0.88757
154.04409,0.87647
153.80302,0.86547
153.56194,0.85378
153.32087,0.84038
153.07980,0.82540
152.83873,0.80978
152.59766,0.79486
152.35659,0.78197
152.11552,0.77097
151.87445,0.75992
151.63338,0.74725
151.39231,0.73414
151.15124,0.72294
150.91017,0.71345
150.66910,0.70258
150.42803,0.68838
150.18696,0.67256
149.94589,0.65795
149.70482,0.64535
149.46375,0.63421
149.22267,0.62452
148.98160,0.61641
148.74053,0.60890
148.49946,0.60060
148.25839,0.59182
148.01732,0.58439
147.77625,0.57899
147.53518,0.57448
147.29411,0.57013
147.05304,0.56672
146.81197,0.56487
146.57090,0.56399
146.32983,0.56365
146.08876,0.56453
145.84769,0.56709
145.60662,0.57054
145.36555,0.57394
145.12448,0.57749
144.88340,0.58187
144.64233,0.58668
144.40126,0.59067
144.16019,0.59309
143.91912,0.59391
143.67805,0.59293
143.43698,0.59017
143.19591,0.58645
142.95484,0.58232
142.71377,0.57706
142.47270,0.57003
142.23163,0.56189
141.99056,0.55328
141.74949,0.54404
141.50842,0.53460
141.26735,0.52629
141.02628,0.51973
140.78521,0.51464
140.54413,0.51090
140.30306,0.50837
140.06199,0.50631
139.82092,0.50466
139.57985,0.50460
139.33878,0.50673
139.09771,0.51000
138.85664,0.51340
138.61557,0.51743
138.37450,0.52290
138.13343,0.52965
137.89236,0.53752
137.65129,0.54745
137.41022,0.56005
137.16915,0.57440
136.92808,0.58939
136.68701,0.60521
136.44594,0.62229
136.20486,0.64019
135.96379,0.65860
135.72272,0.67841
135.48165,0.70053
135.24058,0.72474
134.99951,0.74999
134.75844,0.77565
134.51737,0.80189
134.27630,0.82866
134.03523,0.85495
133.79416,0.87969
133.55309,0.90243
133.31202,0.92257
133.07095,0.93948
132.82988,0.95337
132.58881,0.96494
132.34774,0.97437
132.10667,0.98162
131.86559,0.98657
131.62452,0.98871
131.38345,0.98747
131.14238,0.98244
130.90131,0.97311
130.66024,0.95883
130.41917,0.93978
130.17810,0.91804
129.93703,0.89621
129.69596,0.87493
129.45489,0.85251
129.21382,0.82740
128.97275,0.80011
128.73168,0.77247
128.49061,0.74621
128.24954,0.72236
128.00847,0.70114
127.76740,0.68220
127.52632,0.66495
127.28525,0.64867
127.04418,0.63312
126.80311,0.61885
126.56204,0.60620
126.32097,0.59432
126.07990,0.58235
125.83883,0.57044
125.59776,0.55877
125.35669,0.54662
125.11562,0.53362
124.87455,0.52090
124.63348,0.50976
124.39241,0.50037
124.15134,0.49234
123.91027,0.48571
123.66920,0.48057
123.42812,0.47644
123.18705,0.47247
122.94598,0.46799
122.70491,0.46294
122.46384,0.45789
122.22277,0.45370
121.98170,0.45099
121.74063,0.44986
121.49956,0.44996
121.25849,0.45114
121.01742,0.45382
120.77635,0.45828
120.53528,0.46424
120.29421,0.47158
120.05314,0.48074
119.81207,0.49180
119.57100,0.50437
119.32993,0.51887
119.08885,0.53678
118.84778,0.55897
118.60671,0.58497
118.36564,0.61398
118.12457,0.64493
117.88350,0.67522
117.64243,0.70121
117.40136,0.72119
117.16029,0.73629
116.91922,0.74760
116.67815,0.75424
116.43708,0.75534
116.19601,0.75248
115.95494,0.74873
115.71387,0.74481
115.47280,0.73759
115.23173,0.72418
114.99066,0.70674
114.74958,0.69095
114.50851,0.68055
114.26744,0.67511
114.02637,0.67299
113.78530,0.67397
113.54423,0.67737
113.30316,0.67981
113.06209,0.67832
112.82102,0.67474
112.57995,0.67415
112.33888,0.67967
112.09781,0.69058
111.85674,0.70378
111.61567,0.71548
111.37460,0.72250
111.13353,0.72443
110.89246,0.72470
110.65139,0.72725
110.41031,0.73180
110.16924,0.73399
109.92817,0.73046
109.68710,0.72128
109.44603,0.70759
109.20496,0.69024
108.96389,0.67104
108.72282,0.65260
108.48175,0.63612
108.24068,0.62067
107.99961,0.60479
107.75854,0.58843
107.51747,0.57283
107.27640,0.55914
107.03533,0.54767
106.79426,0.53676
106.55319,0.52280
106.31212,0.50475
106.07104,0.48646
105.82997,0.47266
105.58890,0.46448
105.34783,0.45843
105.10676,0.44930
104.86569,0.43570
104.62462,0.42207
104.38355,0.41327
104.14248,0.40850
103.90141,0.40251
103.66034,0.39240
103.41927,0.38087
103.17820,0.37199
102.93713,0.36671
102.69606,0.36266
102.45499,0.35703
102.21392,0.34972
101.97285,0.34314
101.73177,0.33864
101.49070,0.33466
101.24963,0.32943
101.00856,0.32378
100.76749,0.31969
100.52642,0.31695
100.28535,0.31296
100.04428,0.30624
99.80321,0.29900
99.56214,0.29430
99.32107,0.29178
99.08000,0.28855
98.83893,0.28398
98.59786,0.28090
98.35679,0.28088
98.11572,0.28125
97.87465,0.27896
97.63358,0.27549
97.39250,0.27484
97.15143,0.27744
96.91036,0.27988
96.66929,0.28081
96.42822,0.28283
96.18715,0.28769
95.94608,0.29382
95.70501,0.29996
95.46394,0.30697
95.22287,0.31446
94.98180,0.32035
94.74073,0.32461
94.49966,0.32857
94.25859,0.33127
94.01752,0.33181
93.77645,0.33239
93.53538,0.33427
93.29431,0.33538
93.05323,0.33515
92.81216,0.33582
92.57109,0.33743
92.33002,0.33786
92.08895,0.33723
91.84788,0.33738
91.60681,0.33891
91.36574,0.34209
91.12467,0.34861
90.88360,0.36057
90.64253,0.37925
90.40146,0.40538
90.16039,0.43927
89.91932,0.47945
89.67825,0.52150
89.43718,0.56070
89.19611,0.59593
88.95504,0.62757
88.71396,0.65269
88.47289,0.66652
88.23182,0.66596
87.99075,0.65019
87.74968,0.62196
87.50861,0.58742
87.26754,0.55231
87.02647,0.51980
86.78540,0.49097
86.54433,0.46539
86.30326,0.44233
86.06219,0.42158
85.82112,0.40241
85.58005,0.38352
85.33898,0.36484
85.09791,0.34750
84.85684,0.33211
84.61577,0.31875
84.37469,0.30752
84.13362,0.29808
83.89255,0.28972
83.65148,0.28237
83.41041,0.27645
83.16934,0.27160
82.92827,0.26649
82.68720,0.26028
82.44613,0.25367
82.20506,0.24789
81.96399,0.24334
81.72292,0.23975
81.48185,0.23726
81.24078,0.23607
80.99971,0.23566
80.75864,0.23477
80.51757,0.23237
80.27650,0.22868
80.03542,0.22508
79.79435,0.22271
79.55328,0.22156
79.31221,0.22109
79.07114,0.22091
78.83007,0.22067
78.58900,0.22006
78.34793,0.21869
78.10686,0.21598
77.86579,0.21171
77.62472,0.20671
77.38365,0.20219
77.14258,0.19855
76.90151,0.19543
76.66044,0.19266
76.41937,0.19055
76.17830,0.18921
75.93723,0.18801
75.69615,0.18601
75.45508,0.18297
75.21401,0.17973
74.97294,0.17768
74.73187,0.17766
74.49080,0.17918
74.24973,0.18101
74.00866,0.18253
73.76759,0.18394
73.52652,0.18505
73.28545,0.18505
73.04438,0.18392
72.80331,0.18279
72.56224,0.18269
72.32117,0.18365
72.08010,0.18495
71.83903,0.18576
71.59796,0.18568
71.35688,0.18519
71.11581,0.18545
70.87474,0.18743
70.63367,0.19170
70.39260,0.19889
70.15153,0.21021
69.91046,0.22683
69.66939,0.24811
69.42832,0.27020
69.18725,0.28718
68.94618,0.29437
68.70511,0.29069
68.46404,0.27822
68.22297,0.26053
67.98190,0.24135
67.74083,0.22385
67.49976,0.20995
67.25869,0.19961
67.01761,0.19111
66.77654,0.18267
66.53547,0.17365
66.29440,0.16439
66.05333,0.15610
65.81226,0.15085
65.57119,0.15038
65.33012,0.15453
65.08905,0.16173
64.84798,0.17099
64.60691,0.18273
64.36584,0.19727
64.12477,0.21257
63.88370,0.22403
63.64263,0.22765
63.40156,0.22303
63.16049,0.21278
62.91942,0.20021
62.67834,0.18786
62.43727,0.17733
62.19620,0.16973
61.95513,0.16586
61.71406,0.16560
61.47299,0.16757
61.23192,0.17033
60.99085,0.17321
60.74978,0.17545
60.50871,0.17572
60.26764,0.17325
60.02657,0.16890
59.78550,0.16448
59.54443,0.16150
59.30336,0.16068
59.06229,0.16272
58.82122,0.16857
58.58015,0.17797
58.33907,0.18741
58.09800,0.19111
57.85693,0.18605
57.61586,0.17509
57.37479,0.16384
57.13372,0.15667
56.89265,0.15599
56.65158,0.16229
56.41051,0.17241
56.16944,0.17902
55.92837,0.17586
55.68730,0.16347
55.44623,0.14837
55.20516,0.13895
54.96409,0.14175
54.72302,0.15749
54.48195,0.17664
54.24088,0.18301
53.99980,0.17300
53.75873,0.16149
53.51766,0.16268
53.27659,0.17875
53.03552,0.19866
52.79445,0.20380
52.55338,0.18963
52.31231,0.17424
52.07124,0.17526
51.83017,0.19341
51.58910,0.20932
51.34803,0.20179
51.10696,0.18176
50.86589,0.17521
50.62482,0.18879
50.38375,0.20451
50.14268,0.20089
49.90161,0.18662
49.66053,0.18587
49.41946,0.20039
49.17839,0.20627
48.93732,0.19352
48.69625,0.18494
48.45518,0.19368
48.21411,0.20148
47.97304,0.19132
47.73197,0.18200
47.49090,0.18788
47.24983,0.19224
47.00876,0.18236
46.76769,0.17277
46.52662,0.17159
46.28555,0.17068
46.04448,0.16955
45.80341,0.17381
45.56234,0.17894
45.32126,0.17989
45.08019,0.18064
44.83912,0.18208
44.59805,0.17969
44.35698,0.17627
44.11591,0.17917
43.87484,0.18795
43.63377,0.19558
43.39270,0.19784
43.15163,0.19711
42.91056,0.19772
42.66949,0.20083
42.42842,0.20531
42.18735,0.20811
41.94628,0.20399
41.70521,0.19374
41.46414,0.18698
41.22307,0.18960
40.98199,0.19713
40.74092,0.20388
40.49985,0.20980
40.25878,0.21690
40.01771,0.22554
39.77664,0.23374
39.53557,0.23907
39.29450,0.24326
39.05343,0.24997
38.81236,0.25917
38.57129,0.26974
38.33022,0.28176
38.08915,0.29113
37.84808,0.29280
37.60701,0.28860
37.36594,0.28182
37.12487,0.27268
36.88380,0.26411
36.64272,0.26028
36.40165,0.26024
36.16058,0.25914
35.91951,0.25348
35.67844,0.24409
35.43737,0.23227
35.19630,0.21582
34.95523,0.19506
34.71416,0.17692
34.47309,0.16737
34.23202,0.16658
33.99095,0.17246
33.74988,0.18324
33.50881,0.19470
33.26774,0.19907
33.02667,0.19060
32.78560,0.17325
32.54453,0.15736
32.30345,0.14616
32.06238,0.13401
31.82131,0.11885
31.58024,0.10554
31.33917,0.09652
31.09810,0.08894
30.85703,0.08161
30.61596,0.07482
30.37489,0.06410
30.13382,0.04510
29.89275,0.02372
29.65168,0.00839
29.41061,-0.00600
29.16954,-0.03288
28.92847,-0.07233
28.68740,-0.10732
28.44633,-0.12314
28.20526,-0.12030
27.96418,-0.11023
27.72311,-0.10399
27.48204,-0.10460
27.24097,-0.10949
26.99990,-0.11651
26.75883,-0.12518
26.51776,-0.13439
26.27669,-0.14186
26.03562,-0.14649
25.79455,-0.15089
25.55348,-0.16024
25.31241,-0.17665
25.07134,-0.19424
24.83027,-0.20305
24.58920,-0.19897
24.34813,-0.18896
24.10706,-0.18708
23.86599,-0.20279
23.62491,-0.23157
23.38384,-0.25798
23.14277,-0.27048
22.90170,-0.27025
22.66063,-0.26392
22.41956,-0.25522
22.17849,-0.24490
21.93742,-0.24023
21.69635,-0.25513
21.45528,-0.29031
21.21421,-0.32500
20.97314,-0.33705
20.73207,-0.32728
20.49100,-0.31465
20.24993,-0.31176
20.00886,-0.31301
19.76779,-0.30619
19.52672,-0.29236
19.28564,-0.28312
19.04457,-0.28406
18.80350,-0.29670
18.56243,-0.31759
18.32136,-0.33504
18.08029,-0.33917
17.83922,-0.32897
17.59815,-0.31225
17.35708,-0.30184
17.11601,-0.30697
16.87494,-0.32527
16.63387,-0.34543
16.39280,-0.35756
16.15173,-0.36256
15.91066,-0.36811
15.66959,-0.37480
15.42852,-0.37745
15.18745,-0.37598
14.94637,-0.37498
14.70530,-0.37308
14.46423,-0.36316
14.22316,-0.34853
13.98209,-0.33938
13.74102,-0.34097
13.49995,-0.34988
13.25888,-0.35744
13.01781,-0.36102
12.77674,-0.36663
12.53567,-0.37438
12.29460,-0.37372
12.05353,-0.36056
11.81246,-0.34434
11.57139,-0.33417
11.33032,-0.33220
11.08925,-0.33514
10.84818,-0.33704
10.60710,-0.33545
10.36603,-0.32988
10.12496,-0.31835
9.88389,-0.30452
9.64282,-0.29781
9.40175,-0.30444
9.16068,-0.32199
8.91961,-0.33746
8.67854,-0.33682
8.43747,-0.32475
8.19640,-0.31943
7.95533,-0.32631
7.71426,-0.33680
7.47319,-0.34250
7.23212,-0.33984
6.99105,-0.33279
6.74998,-0.32775
6.50891,-0.32538
6.26783,-0.32438
6.02676,-0.32567
5.78569,-0.32654
5.54462,-0.32431
5.30355,-0.32160
5.06248,-0.31924
4.82141,-0.31691
4.58034,-0.31946
4.33927,-0.32925
4.09820,-0.34068
3.85713,-0.34980
3.61606,-0.35641
3.37499,-0.35863
3.13392,-0.36069
2.89285,-0.36773
2.65178,-0.36974
2.41071,-0.35861
2.16964,-0.34230
1.92856,-0.32642
1.68749,-0.31479
1.44642,-0.31709
1.20535,-0.33008
0.96428,-0.34302
0.72321,-0.37492
0.48214,-0.45690
0.24107,-0.46245
-0.00000,-0.19020
