399.69498,1.78327
399.45391,1.80363
399.21284,1.82393
398.97177,1.87184
398.73070,1.92330
398.48963,1.91186
398.24856,1.86217
398.00749,1.83210
397.76642,1.83841
397.52535,1.85203
397.28428,1.84636
397.04321,1.83237
396.80214,1.82431
396.56107,1.83256
396.32000,1.87019
396.07892,1.91518
395.83785,1.90453
395.59678,1.83436
395.35571,1.80362
395.11464,1.86777
394.87357,1.97277
394.63250,2.05962
394.39143,2.17519
394.15036,2.29123
393.90929,2.33105
393.66822,2.30222
393.42715,2.20355
393.18608,2.06236
392.94501,1.95536
392.70394,1.90034
392.46287,1.90488
392.22180,2.01125
391.98073,2.22879
391.73965,2.28920
391.49858,2.16375
391.25751,2.20706
391.01644,2.30572
390.77537,2.13221
390.53430,1.96651
390.29323,1.92647
390.05216,1.99834
389.81109,2.10907
389.57002,2.19712
389.32895,2.28608
389.08788,2.43816
388.84681,2.34850
388.60574,2.09191
388.36467,1.99344
388.12360,2.02699
387.88253,2.07295
387.64146,2.01460
387.40038,1.94815
387.15931,1.93296
386.91824,1.93618
386.67717,1.96646
386.43610,2.10453
386.19503,2.22748
385.95396,2.05931
385.71289,1.82561
385.47182,1.73680
385.23075,1.72680
384.98968,1.76702
384.74861,1.86170
384.50754,1.89868
384.26647,1.81993
384.02540,1.75242
383.78433,1.75610
383.54326,1.81607
383.30219,1.93075
383.06111,1.95376
382.82004,1.81183
382.57897,1.75461
382.33790,1.75051
382.09683,1.81264
381.85576,1.92842
381.61469,1.92535
381.37362,1.85236
381.13255,1.78942
380.89148,1.77821
380.65041,1.81700
380.40934,1.88960
380.16827,1.88449
379.92720,1.85723
379.68613,1.85236
379.44506,1.78961
379.20399,1.74231
378.96292,1.78882
378.72184,1.92298
378.48077,2.06992
378.23970,2.14073
377.99863,2.17746
377.75756,2.39833
377.51649,2.59786
377.27542,2.20204
377.03435,2.02131
376.79328,2.05638
376.55221,1.99304
376.31114,1.95766
376.07007,2.00770
375.82900,2.08412
375.58793,2.04689
375.34686,2.03443
375.10579,2.17237
374.86472,2.27133
374.62365,2.10370
374.38257,1.97884
374.14150,1.98119
373.90043,2.04001
373.65936,2.03116
373.41829,1.95461
373.17722,1.92971
372.93615,1.91684
372.69508,1.82230
372.45401,1.73891
372.21294,1.71641
371.97187,1.74192
371.73080,1.77500
371.48973,1.78344
371.24866,1.76129
371.00759,1.71623
370.76652,1.67386
370.52545,1.65375
370.28437,1.64302
370.04330,1.61645
369.80223,1.58683
369.56116,1.58244
369.32009,1.59450
369.07902,1.58419
368.83795,1.54548
368.59688,1.50945
368.35581,1.48416
368.11474,1.45876
367.87367,1.43671
367.63260,1.42893
367.39153,1.43592
367.15046,1.45318
366.90939,1.47708
366.66832,1.49083
366.42725,1.47760
366.18618,1.44457
365.94510,1.41847
365.70403,1.41866
365.46296,1.43496
365.22189,1.43632
364.98082,1.41212
364.73975,1.38899
364.49868,1.38956
364.25761,1.40309
364.01654,1.40382
363.77547,1.38500
363.53440,1.36150
363.29333,1.34687
363.05226,1.34248
362.81119,1.34407
362.57012,1.34862
362.32905,1.35377
362.08798,1.35832
361.84691,1.36307
361.60583,1.36753
361.36476,1.36922
361.12369,1.36673
360.88262,1.36209
360.64155,1.36079
360.40048,1.36640
360.15941,1.37525
359.91834,1.37953
359.67727,1.37511
359.43620,1.36315
359.19513,1.35249
358.95406,1.36115
358.71299,1.39504
358.47192,1.42793
358.23085,1.42634
357.98978,1.39672
357.74871,1.36672
357.50764,1.34926
357.26656,1.34172
357.02549,1.33624
356.78442,1.32997
356.54335,1.32539
356.30228,1.32844
356.06121,1.34327
355.82014,1.36492
355.57907,1.38550
355.33800,1.40239
355.09693,1.40683
354.85586,1.38597
354.61479,1.34959
354.37372,1.32400
354.13265,1.32606
353.89158,1.35185
353.65051,1.38087
353.40944,1.39326
353.16837,1.38557
352.92729,1.36736
352.68622,1.34968
352.44515,1.33991
352.20408,1.34002
351.96301,1.34239
351.72194,1.33317
351.48087,1.31117
351.23980,1.29563
350.99873,1.30722
350.75766,1.34878
350.51659,1.40158
350.27552,1.43783
350.03445,1.44450
349.79338,1.43012
349.55231,1.41197
349.31124,1.40425
349.07017,1.40213
348.82910,1.39576
348.58802,1.39006
348.34695,1.38924
348.10588,1.39558
347.86481,1.41133
347.62374,1.42889
347.38267,1.43633
347.14160,1.43540
346.90053,1.43624
346.65946,1.43918
346.41839,1.43894
346.17732,1.43885
345.93625,1.44464
345.69518,1.45403
345.45411,1.46097
345.21304,1.45884
344.97197,1.44707
344.73090,1.44070
344.48983,1.46393
344.24875,1.52461
344.00768,1.58552
343.76661,1.58837
343.52554,1.54118
343.28447,1.50437
343.04340,1.51039
342.80233,1.55023
342.56126,1.58987
342.32019,1.60117
342.07912,1.59130
341.83805,1.56910
341.59698,1.53783
341.35591,1.52277
341.11484,1.54673
340.87377,1.60925
340.63270,1.68687
340.39163,1.73753
340.15056,1.73922
339.90948,1.71770
339.66841,1.70859
339.42734,1.73042
339.18627,1.78258
338.94520,1.83994
338.70413,1.86540
338.46306,1.83231
338.22199,1.78791
337.98092,1.78228
337.73985,1.81023
337.49878,1.87110
337.25771,1.94191
337.01664,1.96058
336.77557,1.94853
336.53450,1.92537
336.29343,1.87100
336.05236,1.83570
335.81129,1.85255
335.57021,1.86325
335.32914,1.81250
335.08807,1.73813
334.84700,1.69865
334.60593,1.71497
334.36486,1.76757
334.12379,1.80056
333.88272,1.80940
333.64165,1.84623
333.40058,1.87281
333.15951,1.80688
332.91844,1.72624
332.67737,1.69523
332.43630,1.69251
332.19523,1.67819
331.95416,1.64683
331.71309,1.63080
331.47202,1.64401
331.23094,1.65465
330.98987,1.62838
330.74880,1.58045
330.50773,1.54908
330.26666,1.55446
330.02559,1.58904
329.78452,1.62393
329.54345,1.64210
329.30238,1.65984
329.06131,1.67207
328.82024,1.65824
328.57917,1.61985
328.33810,1.57942
328.09703,1.56490
327.85596,1.59094
327.61489,1.66444
327.37382,1.76952
327.13275,1.85287
326.89167,1.85662
326.65060,1.78001
326.40953,1.67185
326.16846,1.59263
325.92739,1.55759
325.68632,1.56228
325.44525,1.60308
325.20418,1.65820
324.96311,1.69276
324.72204,1.69785
324.48097,1.70746
324.23990,1.75196
323.99883,1.80554
323.75776,1.86468
323.51669,1.94491
323.27562,1.97987
323.03455,1.99888
322.79348,2.00100
322.55240,1.90752
322.31133,1.84759
322.07026,1.87012
321.82919,1.92654
321.58812,1.97765
321.34705,2.00228
321.10598,1.96381
320.86491,1.84535
320.62384,1.72546
320.38277,1.65354
320.14170,1.66128
319.90063,1.77095
319.65956,1.98169
319.41849,2.18223
319.17742,2.21614
318.93635,2.27698
318.69528,2.17100
318.45421,1.94484
318.21313,1.81173
317.97206,1.75393
317.73099,1.74095
317.48992,1.76507
317.24885,1.79127
317.00778,1.78157
316.76671,1.79818
316.52564,1.89397
316.28457,1.98724
316.04350,2.02675
315.80243,2.12034
315.56136,2.07701
315.32029,1.86853
315.07922,1.77544
314.83815,1.78006
314.59708,1.86825
314.35601,1.99398
314.11494,1.90528
313.87386,1.82962
313.63279,1.85118
313.39172,1.91458
313.15065,1.94541
312.90958,1.94638
312.66851,1.97337
312.42744,2.08549
312.18637,2.12818
311.94530,2.04115
311.70423,2.02857
311.46316,2.10377
311.22209,2.19941
310.98102,2.37135
310.73995,2.52296
310.49888,2.13930
310.25781,1.93114
310.01674,1.91889
309.77567,2.03261
309.53459,2.23304
309.29352,2.24450
309.05245,2.15400
308.81138,2.25210
308.57031,2.22616
308.32924,1.98270
308.08817,1.87850
307.84710,1.89889
307.60603,1.93709
307.36496,1.88319
307.12389,1.84906
306.88282,1.81824
306.64175,1.75622
306.40068,1.68243
306.15961,1.63099
305.91854,1.59689
305.67747,1.56648
305.43640,1.55819
305.19532,1.57752
304.95425,1.59432
304.71318,1.58497
304.47211,1.56028
304.23104,1.53770
303.98997,1.51414
303.74890,1.47792
303.50783,1.44027
303.26676,1.42070
303.02569,1.41798
302.78462,1.41808
302.54355,1.41485
302.30248,1.40806
302.06141,1.39443
301.82034,1.37204
301.57927,1.34907
301.33820,1.33645
301.09713,1.33393
300.85605,1.33326
300.61498,1.33028
300.37391,1.32629
300.13284,1.32036
299.89177,1.31190
299.65070,1.30530
299.40963,1.30330
299.16856,1.30114
298.92749,1.29243
298.68642,1.27821
298.44535,1.26411
298.20428,1.25192
297.96321,1.23853
297.72214,1.22462
297.48107,1.21797
297.24000,1.22157
296.99893,1.22588
296.75786,1.21922
296.51678,1.20313
296.27571,1.18640
296.03464,1.17091
295.79357,1.15577
295.55250,1.14594
295.31143,1.14866
295.07036,1.16364
294.82929,1.17973
294.58822,1.18260
294.34715,1.16849
294.10608,1.14708
293.86501,1.12845
293.62394,1.11448
293.38287,1.10360
293.14180,1.09582
292.90073,1.09150
292.65966,1.08945
292.41859,1.08818
292.17751,1.08759
291.93644,1.08788
291.69537,1.08894
291.45430,1.09066
291.21323,1.09187
290.97216,1.09143
290.73109,1.09010
290.49002,1.08956
290.24895,1.09072
290.00788,1.09236
289.76681,1.09130
289.52574,1.08609
289.28467,1.07896
289.04360,1.07400
288.80253,1.07458
288.56146,1.08098
288.32039,1.08862
288.07932,1.08928
287.83824,1.07972
287.59717,1.06659
287.35610,1.05670
287.11503,1.05038
286.87396,1.04731
286.63289,1.04905
286.39182,1.05485
286.15075,1.05914
285.90968,1.05644
285.66861,1.04717
285.42754,1.03576
285.18647,1.02658
284.94540,1.02180
284.70433,1.02027
284.46326,1.01932
284.22219,1.01852
283.98112,1.01971
283.74005,1.02356
283.49897,1.02782
283.25790,1.02937
283.01683,1.02788
282.77576,1.02573
282.53469,1.02517
282.29362,1.02637
282.05255,1.02769
281.81148,1.02796
281.57041,1.02736
281.32934,1.02493
281.08827,1.01884
280.84720,1.01028
280.60613,1.00386
280.36506,1.00233
280.12399,1.00429
279.88292,1.00789
279.64185,1.01400
279.40078,1.02377
279.15970,1.03418
278.91863,1.03911
278.67756,1.03629
278.43649,1.02907
278.19542,1.01997
277.95435,1.00873
277.71328,0.99935
277.47221,0.99909
277.23114,1.00794
276.99007,1.01449
276.74900,1.00912
276.50793,0.99947
276.26686,1.00087
276.02579,1.01585
275.78472,1.03269
275.54365,1.04179
275.30258,1.04381
275.06151,1.04051
274.82043,1.03080
274.57936,1.01742
274.33829,1.00694
274.09722,1.00290
273.85615,1.00254
273.61508,1.00127
273.37401,0.99920
273.13294,1.00017
272.89187,1.00516
272.65080,1.01128
272.40973,1.01729
272.16866,1.02448
271.92759,1.03073
271.68652,1.03132
271.44545,1.02772
271.20438,1.02781
270.96331,1.03512
270.72224,1.04425
270.48116,1.04852
270.24009,1.04647
269.99902,1.03957
269.75795,1.03057
269.51688,1.02440
269.27581,1.02409
269.03474,1.02696
268.79367,1.02976
268.55260,1.03476
268.31153,1.04468
268.07046,1.05531
267.82939,1.06034
267.58832,1.06191
267.34725,1.06912
267.10618,1.08656
266.86511,1.10797
266.62404,1.12061
266.38297,1.11640
266.14189,1.10017
265.90082,1.08689
265.65975,1.08851
265.41868,1.10542
265.17761,1.12849
264.93654,1.14595
264.69547,1.15312
264.45440,1.15583
264.21333,1.16176
263.97226,1.17246
263.73119,1.18631
263.49012,1.20247
263.24905,1.21886
263.00798,1.23119
262.76691,1.23627
262.52584,1.23273
262.28477,1.22225
262.04370,1.21341
261.80262,1.21486
261.56155,1.22498
261.32048,1.23568
261.07941,1.24526
260.83834,1.26213
260.59727,1.29345
260.35620,1.33524
260.11513,1.37444
259.87406,1.39920
259.63299,1.40935
259.39192,1.41317
259.15085,1.41816
258.90978,1.43005
258.66871,1.44711
258.42764,1.45957
258.18657,1.46482
257.94550,1.47377
257.70443,1.49961
257.46335,1.54443
257.22228,1.59303
256.98121,1.62965
256.74014,1.66004
256.49907,1.70346
256.25800,1.76555
256.01693,1.82162
255.77586,1.84622
255.53479,1.85040
255.29372,1.86087
255.05265,1.88427
254.81158,1.91242
254.57051,1.95247
254.32944,2.01863
254.08837,2.11150
253.84730,2.19249
253.60623,2.16391
253.36516,2.13661
253.12408,2.22799
252.88301,2.48121
252.64194,2.55925
252.40087,2.26007
252.15980,2.15620
251.91873,2.20775
251.67766,2.18587
251.43659,2.07905
251.19552,2.00124
250.95445,2.00754
250.71338,2.08550
250.47231,2.19025
250.23124,2.33728
249.99017,2.56151
249.74910,2.56333
249.50803,2.47155
249.26696,2.35271
249.02589,2.35963
248.78481,2.41563
248.54374,2.24765
248.30267,2.14795
248.06160,2.14403
247.82053,2.23918
247.57946,2.50718
247.33839,2.85407
247.09732,2.59341
246.85625,2.36463
246.61518,2.25427
246.37411,2.13023
246.13304,2.03126
245.89197,2.01874
245.65090,2.06871
245.40983,2.16504
245.16876,2.30729
244.92769,2.24173
244.68661,2.02711
244.44554,1.90008
244.20447,1.83888
243.96340,1.77194
243.72233,1.69479
243.48126,1.62349
243.24019,1.55258
242.99912,1.48720
242.75805,1.43234
242.51698,1.38239
242.27591,1.33505
242.03484,1.29336
241.79377,1.25721
241.55270,1.22223
241.31163,1.18319
241.07056,1.13836
240.82949,1.09251
240.58842,1.05400
240.34734,1.02625
240.10627,1.00448
239.86520,0.98255
239.62413,0.96014
239.38306,0.94007
239.14199,0.92220
238.90092,0.90437
238.65985,0.88645
238.41878,0.86966
238.17771,0.85445
237.93664,0.84007
237.69557,0.82501
237.45450,0.80821
237.21343,0.79133
236.97236,0.77813
236.73129,0.77032
236.49022,0.76584
236.24915,0.76159
236.00807,0.75603
235.76700,0.74876
235.52593,0.74063
235.28486,0.73397
235.04379,0.72934
234.80272,0.72306
234.56165,0.71234
234.32058,0.70056
234.07951,0.69305
233.83844,0.69061
233.59737,0.69084
233.35630,0.69235
233.11523,0.69447
232.87416,0.69518
232.63309,0.69221
232.39202,0.68550
232.15095,0.67844
231.90988,0.67575
231.66880,0.67856
231.42773,0.68311
231.18666,0.68557
230.94559,0.68556
230.70452,0.68395
230.46345,0.68101
230.22238,0.67769
229.98131,0.67530
229.74024,0.67360
229.49917,0.67191
229.25810,0.67118
229.01703,0.67247
228.77596,0.67456
228.53489,0.67526
228.29382,0.67443
228.05275,0.67427
227.81168,0.67633
227.57061,0.67895
227.32953,0.67894
227.08846,0.67579
226.84739,0.67270
226.60632,0.67262
226.36525,0.67483
226.12418,0.67682
225.88311,0.67802
225.64204,0.67953
225.40097,0.68195
225.15990,0.68495
224.91883,0.68737
224.67776,0.68719
224.43669,0.68376
224.19562,0.67993
223.95455,0.67965
223.71348,0.68346
223.47241,0.68769
223.23134,0.68890
222.99026,0.68798
222.74919,0.68874
222.50812,0.69345
222.26705,0.70117
222.02598,0.70964
221.78491,0.71762
221.54384,0.72544
221.30277,0.73374
221.06170,0.74208
220.82063,0.74964
220.57956,0.75669
220.33849,0.76372
220.09742,0.77027
219.85635,0.77640
219.61528,0.78367
219.37421,0.79317
219.13314,0.80410
218.89207,0.81545
218.65099,0.82721
218.40992,0.83930
218.16885,0.85067
217.92778,0.86077
217.68671,0.87076
217.44564,0.88208
217.20457,0.89385
216.96350,0.90460
216.72243,0.91618
216.48136,0.93228
216.24029,0.95230
215.99922,0.97009
215.75815,0.98025
215.51708,0.98378
215.27601,0.98603
215.03494,0.99082
214.79387,0.99894
214.55280,1.01100
214.31172,1.02877
214.07065,1.05021
213.82958,1.06590
213.58851,1.06900
213.34744,1.06541
213.10637,1.06512
212.86530,1.06879
212.62423,1.07070
212.38316,1.07169
212.14209,1.07865
211.90102,1.09158
211.65995,1.10082
211.41888,1.09963
211.17781,1.09249
210.93674,1.08784
210.69567,1.08854
210.45460,1.09162
210.21353,1.09263
209.97245,1.08914
209.73138,1.08412
209.49031,1.08375
209.24924,1.08878
209.00817,1.09387
208.76710,1.09623
208.52603,1.09763
208.28496,1.09740
208.04389,1.08965
207.80282,1.07213
207.56175,1.05343
207.32068,1.04437
207.07961,1.04523
206.83854,1.04518
206.59747,1.03536
206.35640,1.01905
206.11533,1.00554
205.87426,0.99969
205.63318,0.99874
205.39211,0.99576
205.15104,0.98673
204.90997,0.97417
204.66890,0.96317
204.42783,0.95530
204.18676,0.94813
203.94569,0.93832
203.70462,0.92332
203.46355,0.90328
203.22248,0.88203
202.98141,0.86390
202.74034,0.85068
202.49927,0.84211
202.25820,0.83627
202.01713,0.82961
201.77606,0.81919
201.53499,0.80536
201.29391,0.79098
201.05284,0.77799
200.81177,0.76609
200.57070,0.75442
200.32963,0.74315
200.08856,0.73220
199.84749,0.72043
199.60642,0.70800
199.36535,0.69739
199.12428,0.69000
198.88321,0.68345
198.64214,0.67399
198.40107,0.66074
198.16000,0.64682
197.91893,0.63658
197.67786,0.63129
197.43679,0.62744
197.19572,0.62062
196.95464,0.61056
196.71357,0.60068
196.47250,0.59354
196.23143,0.58869
195.99036,0.58420
195.74929,0.57871
195.50822,0.57182
195.26715,0.56338
195.02608,0.55403
194.78501,0.54634
194.54394,0.54322
194.30287,0.54406
194.06180,0.54436
193.82073,0.54125
193.57966,0.53698
193.33859,0.53453
193.09752,0.53260
192.85645,0.52815
192.61537,0.52145
192.37430,0.51522
192.13323,0.51050
191.89216,0.50652
191.65109,0.50319
191.41002,0.50120
191.16895,0.50021
190.92788,0.49878
190.68681,0.49583
190.44574,0.49118
190.20467,0.48545
189.96360,0.47990
189.72253,0.47576
189.48146,0.47357
189.24039,0.47333
188.99932,0.47448
188.75825,0.47576
188.51718,0.47582
188.27610,0.47401
188.03503,0.47032
187.79396,0.46554
187.55289,0.46128
187.31182,0.45871
187.07075,0.45747
186.82968,0.45672
186.58861,0.45680
186.34754,0.45891
186.10647,0.46317
185.86540,0.46788
185.62433,0.47094
185.38326,0.47134
185.14219,0.46940
184.90112,0.46683
184.66005,0.46618
184.41898,0.46865
184.17791,0.47290
183.93683,0.47681
183.69576,0.47945
183.45469,0.48065
183.21362,0.48054
182.97255,0.48009
182.73148,0.48094
182.49041,0.48409
182.24934,0.48906
182.00827,0.49422
181.76720,0.49795
181.52613,0.49953
181.28506,0.49905
181.04399,0.49719
180.80292,0.49554
180.56185,0.49593
180.32078,0.49848
180.07971,0.50128
179.83864,0.50333
179.59756,0.50610
179.35649,0.51136
179.11542,0.51880
178.87435,0.52684
178.63328,0.53414
178.39221,0.54015
178.15114,0.54596
177.91007,0.55377
177.66900,0.56377
177.42793,0.57282
177.18686,0.57850
176.94579,0.58307
176.70472,0.59103
176.46365,0.60479
176.22258,0.62340
175.98151,0.64462
175.74044,0.66741
175.49937,0.69106
175.25829,0.71304
175.01722,0.73159
174.77615,0.74982
174.53508,0.77159
174.29401,0.79465
174.05294,0.81244
173.81187,0.82230
173.57080,0.82825
173.32973,0.83627
173.08866,0.84891
172.84759,0.86359
172.60652,0.87613
172.36545,0.88571
172.12438,0.89289
171.88331,0.89490
171.64224,0.88905
171.40117,0.87881
171.16010,0.87093
170.91902,0.86832
170.67795,0.86859
170.43688,0.86682
170.19581,0.85924
169.95474,0.84763
169.71367,0.83911
169.47260,0.83830
169.23153,0.84122
168.99046,0.83953
168.74939,0.83057
168.50832,0.81925
168.26725,0.81059
168.02618,0.80595
167.78511,0.80542
167.54404,0.80893
167.30297,0.81413
167.06190,0.81688
166.82083,0.81545
166.57975,0.81276
166.33868,0.81407
166.09761,0.82215
165.85654,0.83351
165.61547,0.84125
165.37440,0.84303
165.13333,0.84364
164.89226,0.84875
164.65119,0.85926
164.41012,0.87287
164.16905,0.88666
163.92798,0.89691
163.68691,0.90171
163.44584,0.90489
163.20477,0.91324
162.96370,0.92818
162.72263,0.94366
162.48156,0.95327
162.24048,0.95672
161.99941,0.95777
161.75834,0.95883
161.51727,0.96009
161.27620,0.96139
161.03513,0.96320
160.79406,0.96499
160.55299,0.96399
160.31192,0.95858
160.07085,0.95198
159.82978,0.94949
159.58871,0.95183
159.34764,0.95228
159.10657,0.94369
158.86550,0.92914
158.62443,0.91959
158.38336,0.92045
158.14229,0.92556
157.90121,0.92547
157.66014,0.91818
157.41907,0.90847
157.17800,0.90035
156.93693,0.89484
156.69586,0.89145
156.45479,0.88859
156.21372,0.88445
155.97265,0.87854
155.73158,0.87188
155.49051,0.86573
155.24944,0.86018
155.00837,0.85338
154.76730,0.84224
154.52623,0.82544
154.28516,0.80602
154.04409,0.78899
153.80302,0.77541
153.56194,0.76137
153.32087,0.74451
153.07980,0.72779
152.83873,0.71459
152.59766,0.70425
152.35659,0.69414
152.11552,0.68285
151.87445,0.66990
151.63338,0.65476
151.39231,0.63769
151.15124,0.62058
150.91017,0.60560
150.66910,0.59266
150.42803,0.57927
150.18696,0.56410
149.94589,0.54917
149.70482,0.53752
149.46375,0.52962
149.22267,0.52286
148.98160,0.51415
148.74053,0.50328
148.49946,0.49343
148.25839,0.48784
148.01732,0.48627
147.77625,0.48517
147.53518,0.48159
147.29411,0.47655
147.05304,0.47369
146.81197,0.47522
146.57090,0.47982
146.32983,0.48449
146.08876,0.48792
145.84769,0.49103
145.60662,0.49475
145.36555,0.49904
145.12448,0.50354
144.88340,0.50765
144.64233,0.51117
144.40126,0.51538
144.16019,0.52133
143.91912,0.52685
143.67805,0.52807
143.43698,0.52377
143.19591,0.51586
142.95484,0.50659
142.71377,0.49747
142.47270,0.48984
142.23163,0.48465
141.99056,0.48131
141.74949,0.47770
141.50842,0.47195
141.26735,0.46429
141.02628,0.45650
140.78521,0.45031
140.54413,0.44691
140.30306,0.44648
140.06199,0.44781
139.82092,0.44913
139.57985,0.44993
139.33878,0.45160
139.09771,0.45586
138.85664,0.46294
138.61557,0.47191
138.37450,0.48244
138.13343,0.49422
137.89236,0.50521
137.65129,0.51370
137.41022,0.52119
137.16915,0.53067
136.92808,0.54341
136.68701,0.55944
136.44594,0.57909
136.20486,0.60265
135.96379,0.62927
135.72272,0.65683
135.48165,0.68278
135.24058,0.70665
134.99951,0.73117
134.75844,0.75851
134.51737,0.78655
134.27630,0.81220
134.03523,0.83644
133.79416,0.86155
133.55309,0.88483
133.31202,0.90155
133.07095,0.91240
132.82988,0.92201
132.58881,0.93232
132.34774,0.94142
132.10667,0.94755
131.86559,0.95120
131.62452,0.95240
131.38345,0.94848
131.14238,0.93628
130.90131,0.91644
130.66024,0.89386
130.41917,0.87329
130.17810,0.85501
129.93703,0.83472
129.69596,0.80789
129.45489,0.77421
129.21382,0.73691
128.97275,0.70054
128.73168,0.66899
128.49061,0.64282
128.24954,0.61893
128.00847,0.59416
127.76740,0.56872
127.52632,0.54450
127.28525,0.52176
127.04418,0.49940
126.80311,0.47737
126.56204,0.45817
126.32097,0.44478
126.07990,0.43675
125.83883,0.42982
125.59776,0.42064
125.35669,0.40985
125.11562,0.39932
124.87455,0.38947
124.63348,0.38012
124.39241,0.37143
124.15134,0.36341
123.91027,0.35617
123.66920,0.35031
123.42812,0.34607
123.18705,0.34309
122.94598,0.34159
122.70491,0.34230
122.46384,0.34436
122.22277,0.34496
121.98170,0.34270
121.74063,0.34042
121.49956,0.34249
121.25849,0.34995
121.01742,0.36005
120.77635,0.36944
120.53528,0.37680
120.29421,0.38320
120.05314,0.39079
119.81207,0.40147
119.57100,0.41638
119.32993,0.43587
119.08885,0.45866
118.84778,0.48252
118.60671,0.50733
118.36564,0.53554
118.12457,0.56779
117.88350,0.59976
117.64243,0.62479
117.40136,0.63969
117.16029,0.64658
116.91922,0.64886
116.67815,0.64776
116.43708,0.64339
116.19601,0.63615
115.95494,0.62627
115.71387,0.61421
115.47280,0.60156
115.23173,0.58983
114.99066,0.57908
114.74958,0.56894
114.50851,0.55973
114.26744,0.55108
114.02637,0.54152
113.78530,0.53106
113.54423,0.52291
113.30316,0.52100
113.06209,0.52598
112.82102,0.53437
112.57995,0.54148
112.33888,0.54504
112.09781,0.54664
111.85674,0.54993
111.61567,0.55794
111.37460,0.57129
111.13353,0.58662
110.89246,0.59743
110.65139,0.59935
110.41031,0.59341
110.16924,0.58346
109.92817,0.57283
109.68710,0.56263
109.44603,0.55095
109.20496,0.53566
108.96389,0.51812
108.72282,0.50131
108.48175,0.48623
108.24068,0.47238
107.99961,0.45882
107.75854,0.44389
107.51747,0.42645
107.27640,0.40733
107.03533,0.38799
106.79426,0.36890
106.55319,0.35043
106.31212,0.33369
106.07104,0.32001
105.82997,0.31011
105.58890,0.30314
105.34783,0.29674
105.10676,0.28976
104.86569,0.28367
104.62462,0.27976
104.38355,0.27632
104.14248,0.27043
103.90141,0.26166
103.66034,0.25229
103.41927,0.24449
103.17820,0.23889
102.93713,0.23527
102.69606,0.23282
102.45499,0.23051
102.21392,0.22823
101.97285,0.22628
101.73177,0.22395
101.49070,0.22058
101.24963,0.21691
101.00856,0.21351
100.76749,0.20990
100.52642,0.20594
100.28535,0.20213
100.04428,0.19826
99.80321,0.19366
99.56214,0.18863
99.32107,0.18432
99.08000,0.18174
98.83893,0.18114
98.59786,0.18164
98.35679,0.18181
98.11572,0.18148
97.87465,0.18200
97.63358,0.18453
97.39250,0.18886
97.15143,0.19408
96.91036,0.19912
96.66929,0.20285
96.42822,0.20537
96.18715,0.20900
95.94608,0.21644
95.70501,0.22757
95.46394,0.23952
95.22287,0.24953
94.98180,0.25640
94.74073,0.25974
94.49966,0.25980
94.25859,0.25779
94.01752,0.25535
93.77645,0.25369
93.53538,0.25372
93.29431,0.25611
93.05323,0.26077
92.81216,0.26648
92.57109,0.27115
92.33002,0.27313
92.08895,0.27280
91.84788,0.27255
91.60681,0.27506
91.36574,0.28146
91.12467,0.29135
90.88360,0.30467
90.64253,0.32346
90.40146,0.35071
90.16039,0.38688
89.91932,0.42870
89.67825,0.47182
89.43718,0.51346
89.19611,0.55072
88.95504,0.57843
88.71396,0.59177
88.47289,0.58820
88.23182,0.56670
87.99075,0.53041
87.74968,0.48807
87.50861,0.44835
87.26754,0.41494
87.02647,0.38703
86.78540,0.36160
86.54433,0.33553
86.30326,0.30807
86.06219,0.28149
85.82112,0.25888
85.58005,0.24122
85.33898,0.22665
85.09791,0.21271
84.85684,0.19919
84.61577,0.18768
84.37469,0.17889
84.13362,0.17171
83.89255,0.16477
83.65148,0.15730
83.41041,0.14891
83.16934,0.13989
82.92827,0.13186
82.68720,0.12666
82.44613,0.12472
82.20506,0.12509
81.96399,0.12659
81.72292,0.12835
81.48185,0.12943
81.24078,0.12900
80.99971,0.12728
80.75864,0.12564
80.51757,0.12488
80.27650,0.12400
80.03542,0.12153
79.79435,0.11801
79.55328,0.11583
79.31221,0.11597
79.07114,0.11639
78.83007,0.11509
78.58900,0.11316
78.34793,0.11248
78.10686,0.11205
77.86579,0.10938
77.62472,0.10458
77.38365,0.10064
77.14258,0.09982
76.90151,0.10127
76.66044,0.10239
76.41937,0.10146
76.17830,0.09908
75.93723,0.09732
75.69615,0.09746
75.45508,0.09833
75.21401,0.09753
74.97294,0.09455
74.73187,0.09170
74.49080,0.09149
74.24973,0.09382
74.00866,0.09592
73.76759,0.09499
73.52652,0.09082
73.28545,0.08611
73.04438,0.08423
72.80331,0.08661
72.56224,0.09172
72.32117,0.09654
72.08010,0.09923
71.83903,0.10038
71.59796,0.10177
71.35688,0.10443
71.11581,0.10809
70.87474,0.11169
70.63367,0.11458
70.39260,0.11770
70.15153,0.12323
69.91046,0.13320
69.66939,0.14804
69.42832,0.16496
69.18725,0.17785
68.94618,0.18130
68.70511,0.17545
68.46404,0.16464
68.22297,0.15194
67.98190,0.13742
67.74083,0.12155
67.49976,0.10777
67.25869,0.10030
67.01761,0.09950
66.77654,0.10096
66.53547,0.10030
66.29440,0.09692
66.05333,0.09254
65.81226,0.08859
65.57119,0.08573
65.33012,0.08470
65.08905,0.08695
64.84798,0.09383
64.60691,0.10423
64.36584,0.11397
64.12477,0.11936
63.88370,0.12100
63.64263,0.12126
63.40156,0.11975
63.16049,0.11506
62.91942,0.10886
62.67834,0.10342
62.43727,0.09762
62.19620,0.08970
61.95513,0.08160
61.71406,0.07669
61.47299,0.07506
61.23192,0.07369
60.99085,0.07054
60.74978,0.06679
60.50871,0.06509
60.26764,0.06656
60.02657,0.06987
59.78550,0.07326
59.54443,0.07582
59.30336,0.07664
59.06229,0.07494
58.82122,0.07193
58.58015,0.07008
58.33907,0.07031
58.09800,0.07169
57.85693,0.07364
57.61586,0.07630
57.37479,0.07924
57.13372,0.08128
56.89265,0.08153
56.65158,0.07979
56.41051,0.07658
56.16944,0.07290
55.92837,0.06980
55.68730,0.06775
55.44623,0.06549
55.20516,0.06045
54.96409,0.05276
54.72302,0.04819
54.48195,0.05268
54.24088,0.06385
53.99980,0.07252
53.75873,0.07303
53.51766,0.06830
53.27659,0.06468
53.03552,0.06538
52.79445,0.06888
52.55338,0.07204
52.31231,0.07369
52.07124,0.07452
51.83017,0.07407
51.58910,0.07069
51.34803,0.06434
51.10696,0.05762
50.86589,0.05406
50.62482,0.05556
50.38375,0.06065
50.14268,0.06496
49.90161,0.06508
49.66053,0.06145
49.41946,0.05598
49.17839,0.04950
48.93732,0.04456
48.69625,0.04590
48.45518,0.05370
48.21411,0.06197
47.97304,0.06726
47.73197,0.07209
47.49090,0.07633
47.24983,0.07419
47.00876,0.06480
46.76769,0.05579
46.52662,0.05233
46.28555,0.05114
46.04448,0.04747
45.80341,0.04171
45.56234,0.03691
45.32126,0.03382
45.08019,0.03064
44.83912,0.02784
44.59805,0.02911
44.35698,0.03352
44.11591,0.03311
43.87484,0.02481
43.63377,0.01762
43.39270,0.02008
43.15163,0.02709
42.91056,0.02906
42.66949,0.02637
42.42842,0.02524
42.18735,0.02717
41.94628,0.02965
41.70521,0.03160
41.46414,0.03353
41.22307,0.03559
40.98199,0.03945
40.74092,0.04739
40.49985,0.05736
40.25878,0.06394
40.01771,0.06399
39.77664,0.05935
39.53557,0.05642
39.29450,0.06199
39.05343,0.07562
38.81236,0.09060
38.57129,0.10315
38.33022,0.11218
38.08915,0.11313
37.84808,0.10394
37.60701,0.08971
37.36594,0.07568
37.12487,0.06802
36.88380,0.07459
36.64272,0.09257
36.40165,0.10480
36.16058,0.09963
35.91951,0.08480
35.67844,0.07542
35.43737,0.07981
35.19630,0.09696
34.95523,0.11974
34.71416,0.13668
34.47309,0.13607
34.23202,0.11817
33.99095,0.09628
33.74988,0.08243
33.50881,0.07858
33.26774,0.08353
33.02667,0.09774
32.78560,0.11832
32.54453,0.14154
32.30345,0.16486
32.06238,0.17453
31.82131,0.15992
31.58024,0.14329
31.33917,0.15587
31.09810,0.19226
30.85703,0.21808
30.61596,0.21735
30.37489,0.20746
30.13382,0.20161
29.89275,0.19366
29.65168,0.18428
29.41061,0.18790
29.16954,0.20975
28.92847,0.23571
28.68740,0.24893
28.44633,0.24699
28.20526,0.24456
27.96418,0.25358
27.72311,0.25889
27.48204,0.23624
27.24097,0.19446
26.99990,0.16661
26.75883,0.17618
26.51776,0.21943
26.27669,0.26972
26.03562,0.30014
25.79455,0.29594
25.55348,0.26076
25.31241,0.21921
25.07134,0.19632
24.83027,0.19477
24.58920,0.20916
24.34813,0.24004
24.10706,0.27073
23.86599,0.28379
23.62491,0.30634
23.38384,0.38967
23.14277,0.51390
22.90170,0.54349
22.66063,0.48171
22.41956,0.41802
22.17849,0.39785
21.93742,0.45061
21.69635,0.53332
21.45528,0.53114
21.21421,0.51023
20.97314,0.52206
20.73207,0.54588
20.49100,0.55912
20.24993,0.57036
20.00886,0.60398
19.76779,0.67341
19.52672,0.73736
19.28564,0.74087
19.04457,0.68932
18.80350,0.63426
18.56243,0.62720
18.32136,0.68045
18.08029,0.78122
17.83922,0.89262
17.59815,0.96958
17.35708,0.96929
17.11601,0.88843
16.87494,0.91733
16.63387,0.98081
16.39280,0.83434
16.15173,0.67897
15.91066,0.60645
15.66959,0.57373
15.42852,0.57166
15.18745,0.58879
14.94637,0.60111
14.70530,0.63647
14.46423,0.66549
14.22316,0.68400
13.98209,0.75393
13.74102,0.92622
13.49995,1.12859
13.25888,1.02710
13.01781,0.77943
12.77674,0.71420
12.53567,0.68543
12.29460,0.61292
12.05353,0.61023
11.81246,0.75582
11.57139,1.01555
11.33032,1.10643
11.08925,0.95188
10.84818,0.89828
10.60710,0.85556
10.36603,0.75753
10.12496,0.66375
9.88389,0.65537
9.64282,0.74721
9.40175,0.75704
9.16068,0.73719
8.91961,0.74986
8.67854,0.74846
8.43747,0.72271
8.19640,0.68719
7.95533,0.67428
7.71426,0.67901
7.47319,0.62144
7.23212,0.50337
6.99105,0.51978
6.74998,0.79691
6.50891,0.76657
6.26783,0.52170
6.02676,0.51207
5.78569,0.51814
5.54462,0.54574
5.30355,0.57791
5.06248,0.53894
4.82141,0.45717
4.58034,0.34110
4.33927,0.28887
4.09820,0.35054
3.85713,0.50934
3.61606,0.74829
3.37499,1.02271
3.13392,0.95693
2.89285,0.71234
2.65178,0.60561
2.41071,0.60798
2.16964,0.54950
1.92856,0.54392
1.68749,0.66118
1.44642,0.86675
1.20535,0.85270
0.96428,0.70609
0.72321,0.61350
0.48214,0.59218
0.24107,0.65587
-0.00000,0.40256
