399.69498,1.54007
399.45391,1.54115
399.21284,1.54871
398.97177,1.55857
398.73070,1.55994
398.48963,1.55351
398.24856,1.54928
398.00749,1.54974
397.76642,1.54839
397.52535,1.54226
397.28428,1.53766
397.04321,1.54367
396.80214,1.56258
396.56107,1.58399
396.32000,1.59088
396.07892,1.58091
395.83785,1.57145
395.59678,1.57413
395.35571,1.58055
395.11464,1.57709
394.87357,1.56226
394.63250,1.54516
394.39143,1.53815
394.15036,1.54505
393.90929,1.55449
393.66822,1.55334
393.42715,1.54005
393.18608,1.52067
392.94501,1.50594
392.70394,1.50799
392.46287,1.52832
392.22180,1.55132
391.98073,1.55837
391.73965,1.54767
391.49858,1.52927
391.25751,1.51384
391.01644,1.50847
390.77537,1.51280
390.53430,1.52124
390.29323,1.52549
390.05216,1.51802
389.81109,1.49871
389.57002,1.47800
389.32895,1.47049
389.08788,1.47885
388.84681,1.48977
388.60574,1.49045
388.36467,1.48364
388.12360,1.47958
387.88253,1.48400
387.64146,1.49764
387.40038,1.51458
387.15931,1.52408
386.91824,1.52011
386.67717,1.50837
386.43610,1.49454
386.19503,1.47310
385.95396,1.44541
385.71289,1.42495
385.47182,1.41849
385.23075,1.42042
384.98968,1.41938
384.74861,1.41081
384.50754,1.39963
384.26647,1.39276
384.02540,1.38905
383.78433,1.37983
383.54326,1.36315
383.30219,1.34624
383.06111,1.33652
382.82004,1.33693
382.57897,1.34740
382.33790,1.36225
382.09683,1.36496
381.85576,1.34032
381.61469,1.29706
381.37362,1.26236
381.13255,1.25326
380.89148,1.26421
380.65041,1.27958
380.40934,1.29384
380.16827,1.31069
379.92720,1.32530
379.68613,1.32390
379.44506,1.30397
379.20399,1.28293
378.96292,1.28036
378.72184,1.30061
378.48077,1.33034
378.23970,1.34949
377.99863,1.35126
377.75756,1.34957
377.51649,1.36011
377.27542,1.38494
377.03435,1.41133
376.79328,1.42315
376.55221,1.42139
376.31114,1.42309
376.07007,1.43396
375.82900,1.43991
375.58793,1.43434
375.34686,1.42873
375.10579,1.42868
374.86472,1.42731
374.62365,1.42054
374.38257,1.41038
374.14150,1.39831
373.90043,1.38751
373.65936,1.38442
373.41829,1.39094
373.17722,1.40029
372.93615,1.40285
372.69508,1.39596
372.45401,1.38591
372.21294,1.38061
371.97187,1.38080
371.73080,1.37990
371.48973,1.37363
371.24866,1.36560
371.00759,1.36067
370.76652,1.35779
370.52545,1.35283
370.28437,1.34537
370.04330,1.33781
369.80223,1.33002
369.56116,1.32080
369.32009,1.31282
369.07902,1.30975
368.83795,1.30963
368.59688,1.30591
368.35581,1.29488
368.11474,1.27874
367.87367,1.26255
367.63260,1.25125
367.39153,1.24730
367.15046,1.24847
366.90939,1.25059
366.66832,1.25371
366.42725,1.26147
366.18618,1.27345
365.94510,1.28148
365.70403,1.27701
365.46296,1.26206
365.22189,1.24730
364.98082,1.24106
364.73975,1.24374
364.49868,1.24884
364.25761,1.24897
364.01654,1.24311
363.77547,1.23633
363.53440,1.23259
363.29333,1.23069
363.05226,1.22708
362.81119,1.22104
362.57012,1.21645
362.32905,1.21810
362.08798,1.22481
361.84691,1.22961
361.60583,1.22925
361.36476,1.22803
361.12369,1.22921
360.88262,1.22993
360.64155,1.22817
360.40048,1.22775
360.15941,1.23192
359.91834,1.23727
359.67727,1.23798
359.43620,1.23263
359.19513,1.22351
358.95406,1.21419
358.71299,1.20962
358.47192,1.21169
358.23085,1.21478
357.98978,1.21316
357.74871,1.21045
357.50764,1.21258
357.26656,1.21625
357.02549,1.21382
356.78442,1.20630
356.54335,1.20203
356.30228,1.20477
356.06121,1.21066
355.82014,1.21483
355.57907,1.21707
355.33800,1.22007
355.09693,1.22412
354.85586,1.22600
354.61479,1.22235
354.37372,1.21460
354.13265,1.20931
353.89158,1.21164
353.65051,1.21933
353.40944,1.22451
353.16837,1.22237
352.92729,1.21561
352.68622,1.20941
352.44515,1.20520
352.20408,1.20268
351.96301,1.20433
351.72194,1.21192
351.48087,1.22054
351.23980,1.22326
350.99873,1.22056
350.75766,1.21780
350.51659,1.21702
350.27552,1.21783
350.03445,1.22153
349.79338,1.22835
349.55231,1.23413
349.31124,1.23480
349.07017,1.23125
348.82910,1.22807
348.58802,1.23000
348.34695,1.23833
348.10588,1.24770
347.86481,1.24929
347.62374,1.24102
347.38267,1.23096
347.14160,1.22869
346.90053,1.23720
346.65946,1.25266
346.41839,1.26836
346.17732,1.27892
345.93625,1.28379
345.69518,1.28659
345.45411,1.29136
345.21304,1.29952
344.97197,1.30850
344.73090,1.31294
344.48983,1.30945
344.24875,1.30068
344.00768,1.29207
343.76661,1.28642
343.52554,1.28456
343.28447,1.28800
343.04340,1.29658
342.80233,1.30673
342.56126,1.31546
342.32019,1.32482
342.07912,1.33806
341.83805,1.35221
341.59698,1.36020
341.35591,1.36031
341.11484,1.35851
340.87377,1.36244
340.63270,1.37489
340.39163,1.39114
340.15056,1.40194
339.90948,1.40175
339.66841,1.39552
339.42734,1.39454
339.18627,1.40435
338.94520,1.41776
338.70413,1.42302
338.46306,1.42165
338.22199,1.42774
337.98092,1.44460
337.73985,1.45890
337.49878,1.46106
337.25771,1.45495
337.01664,1.44459
336.77557,1.43178
336.53450,1.42022
336.29343,1.41293
336.05236,1.40909
335.81129,1.40825
335.57021,1.41415
335.32914,1.42683
335.08807,1.43650
334.84700,1.43311
334.60593,1.41809
334.36486,1.39957
334.12379,1.38283
333.88272,1.37059
333.64165,1.36466
333.40058,1.36415
333.15951,1.36576
332.91844,1.36819
332.67737,1.37195
332.43630,1.37261
332.19523,1.36382
331.95416,1.34846
331.71309,1.33749
331.47202,1.33956
331.23094,1.35129
330.98987,1.35826
330.74880,1.35151
330.50773,1.33653
330.26666,1.32266
330.02559,1.31496
329.78452,1.31388
329.54345,1.31608
329.30238,1.31783
329.06131,1.31808
328.82024,1.31603
328.57917,1.30931
328.33810,1.29952
328.09703,1.29436
327.85596,1.29810
327.61489,1.30537
327.37382,1.30930
327.13275,1.30925
326.89167,1.30653
326.65060,1.30404
326.40953,1.30655
326.16846,1.31346
325.92739,1.31689
325.68632,1.31062
325.44525,1.29822
325.20418,1.28755
324.96311,1.28216
324.72204,1.28289
324.48097,1.29006
324.23990,1.30090
323.99883,1.31160
323.75776,1.31900
323.51669,1.32059
323.27562,1.31775
323.03455,1.31642
322.79348,1.31776
322.55240,1.31736
322.31133,1.31611
322.07026,1.31816
321.82919,1.32216
321.58812,1.32427
321.34705,1.32475
321.10598,1.32654
320.86491,1.33211
320.62384,1.34392
320.38277,1.36212
320.14170,1.38243
319.90063,1.39768
319.65956,1.40064
319.41849,1.39123
319.17742,1.37594
318.93635,1.36146
318.69528,1.35231
318.45421,1.35088
318.21313,1.35726
317.97206,1.36611
317.73099,1.36626
317.48992,1.35303
317.24885,1.33616
317.00778,1.32749
316.76671,1.32787
316.52564,1.33149
316.28457,1.33848
316.04350,1.35479
315.80243,1.37920
315.56136,1.39722
315.32029,1.39696
315.07922,1.38742
314.83815,1.38407
314.59708,1.38683
314.35601,1.38712
314.11494,1.38496
313.87386,1.38754
313.63279,1.39724
313.39172,1.40745
313.15065,1.40795
312.90958,1.39529
312.66851,1.37770
312.42744,1.36633
312.18637,1.36347
311.94530,1.36469
311.70423,1.36998
311.46316,1.38463
311.22209,1.40794
310.98102,1.43003
310.73995,1.44226
310.49888,1.44117
310.25781,1.43176
310.01674,1.42515
309.77567,1.42589
309.53459,1.42793
309.29352,1.42029
309.05245,1.40179
308.81138,1.38648
308.57031,1.38646
308.32924,1.40069
308.08817,1.42119
307.84710,1.44017
307.60603,1.45260
307.36496,1.45698
307.12389,1.45671
306.88282,1.45812
306.64175,1.46037
306.40068,1.45725
306.15961,1.44845
305.91854,1.43875
305.67747,1.42959
305.43640,1.42019
305.19532,1.41281
304.95425,1.41037
304.71318,1.41274
304.47211,1.41615
304.23104,1.41555
303.98997,1.40855
303.74890,1.39694
303.50783,1.38484
303.26676,1.37657
303.02569,1.37465
302.78462,1.37760
302.54355,1.37999
302.30248,1.37674
302.06141,1.36830
301.82034,1.35926
301.57927,1.35227
301.33820,1.34426
301.09713,1.33130
300.85605,1.31681
300.61498,1.30856
300.37391,1.30783
300.13284,1.30842
299.89177,1.30625
299.65070,1.30142
299.40963,1.29185
299.16856,1.27634
298.92749,1.26107
298.68642,1.25372
298.44535,1.25447
298.20428,1.25747
297.96321,1.25725
297.72214,1.25215
297.48107,1.24402
297.24000,1.23579
296.99893,1.22927
296.75786,1.22515
296.51678,1.22296
296.27571,1.22053
296.03464,1.21569
295.79357,1.20931
295.55250,1.20476
295.31143,1.20351
295.07036,1.20258
294.82929,1.19783
294.58822,1.18918
294.34715,1.18022
294.10608,1.17363
293.86501,1.16916
293.62394,1.16573
293.38287,1.16358
293.14180,1.16367
292.90073,1.16539
292.65966,1.16650
292.41859,1.16570
292.17751,1.16381
291.93644,1.16140
291.69537,1.15741
291.45430,1.15211
291.21323,1.14881
290.97216,1.14948
290.73109,1.15141
290.49002,1.15069
290.24895,1.14701
290.00788,1.14295
289.76681,1.14036
289.52574,1.13877
289.28467,1.13590
289.04360,1.12933
288.80253,1.11933
288.56146,1.11057
288.32039,1.10810
288.07932,1.11099
287.83824,1.11305
287.59717,1.11113
287.35610,1.10844
287.11503,1.10808
286.87396,1.10907
286.63289,1.10954
286.39182,1.10923
286.15075,1.10876
285.90968,1.10910
285.66861,1.11006
285.42754,1.10969
285.18647,1.10795
284.94540,1.10776
284.70433,1.10913
284.46326,1.10782
284.22219,1.10262
283.98112,1.09889
283.74005,1.10166
283.49897,1.10900
283.25790,1.11484
283.01683,1.11538
282.77576,1.11172
282.53469,1.10884
282.29362,1.11199
282.05255,1.12139
281.81148,1.12991
281.57041,1.12914
281.32934,1.11850
281.08827,1.10582
280.84720,1.09928
280.60613,1.10136
280.36506,1.10856
280.12399,1.11459
279.88292,1.11564
279.64185,1.11346
279.40078,1.11183
279.15970,1.11171
278.91863,1.11220
278.67756,1.11368
278.43649,1.11663
278.19542,1.11863
277.95435,1.11553
277.71328,1.10624
277.47221,1.09485
277.23114,1.08766
276.99007,1.08775
276.74900,1.09276
276.50793,1.09865
276.26686,1.10427
276.02579,1.11073
275.78472,1.11714
275.54365,1.12019
275.30258,1.11839
275.06151,1.11479
274.82043,1.11372
274.57936,1.11643
274.33829,1.12112
274.09722,1.12561
273.85615,1.12920
273.61508,1.13288
273.37401,1.13813
273.13294,1.14459
272.89187,1.14961
272.65080,1.15138
272.40973,1.15105
272.16866,1.15083
271.92759,1.15227
271.68652,1.15642
271.44545,1.16249
271.20438,1.16711
270.96331,1.16877
270.72224,1.17033
270.48116,1.17377
270.24009,1.17700
269.99902,1.17877
269.75795,1.18157
269.51688,1.18706
269.27581,1.19254
269.03474,1.19435
268.79367,1.19226
268.55260,1.18998
268.31153,1.19236
268.07046,1.20114
267.82939,1.21332
267.58832,1.22477
267.34725,1.23458
267.10618,1.24502
266.86511,1.25786
266.62404,1.27120
266.38297,1.28086
266.14189,1.28567
265.90082,1.28954
265.65975,1.29612
265.41868,1.30382
265.17761,1.30897
264.93654,1.31196
264.69547,1.31740
264.45440,1.32892
264.21333,1.34528
263.97226,1.36128
263.73119,1.37275
263.49012,1.37997
263.24905,1.38638
263.00798,1.39551
262.76691,1.40879
262.52584,1.42605
262.28477,1.44792
262.04370,1.47527
261.80262,1.50506
261.56155,1.52955
261.32048,1.54465
261.07941,1.55572
260.83834,1.56980
260.59727,1.58629
260.35620,1.60188
260.11513,1.62070
259.87406,1.65009
259.63299,1.68919
259.39192,1.73046
259.15085,1.77115
258.90978,1.80895
258.66871,1.83479
258.42764,1.84562
258.18657,1.85004
257.94550,1.85417
257.70443,1.85272
257.46335,1.84640
257.22228,1.84347
256.98121,1.83816
256.74014,1.82469
256.49907,1.81544
256.25800,1.82198
256.01693,1.83366
255.77586,1.82951
255.53479,1.80524
255.29372,1.77382
255.05265,1.74203
254.81158,1.71125
254.57051,1.68757
254.32944,1.67373
254.08837,1.66502
253.84730,1.65341
253.60623,1.63542
253.36516,1.61464
253.12408,1.59586
252.88301,1.58305
252.64194,1.57799
252.40087,1.57990
252.15980,1.58707
251.91873,1.59632
251.67766,1.60337
251.43659,1.60532
251.19552,1.60288
250.95445,1.59788
250.71338,1.58944
250.47231,1.57768
250.23124,1.56778
249.99017,1.56479
249.74910,1.56546
249.50803,1.56190
249.26696,1.55404
249.02589,1.54945
248.78481,1.55313
248.54374,1.56481
248.30267,1.58133
248.06160,1.59706
247.82053,1.60523
247.57946,1.60114
247.33839,1.58558
247.09732,1.56835
246.85625,1.56375
246.61518,1.57627
246.37411,1.59434
246.13304,1.60465
245.89197,1.60851
245.65090,1.61594
245.40983,1.63326
245.16876,1.66054
244.92769,1.69112
244.68661,1.71589
244.44554,1.73595
244.20447,1.76382
243.96340,1.81004
243.72233,1.86858
243.48126,1.91597
243.24019,1.93672
242.99912,1.94949
242.75805,1.98151
242.51698,2.01143
242.27591,1.93474
242.03484,1.79930
241.79377,1.69204
241.55270,1.60648
241.31163,1.52719
241.07056,1.45274
240.82949,1.38648
240.58842,1.32843
240.34734,1.27553
240.10627,1.22567
239.86520,1.17994
239.62413,1.14076
239.38306,1.10880
239.14199,1.08185
238.90092,1.05678
238.65985,1.03292
238.41878,1.01272
238.17771,0.99775
237.93664,0.98482
237.69557,0.96847
237.45450,0.94783
237.21343,0.92796
236.97236,0.91349
236.73129,0.90380
236.49022,0.89529
236.24915,0.88631
236.00807,0.87772
235.76700,0.87011
235.52593,0.86301
235.28486,0.85635
235.04379,0.85049
234.80272,0.84474
234.56165,0.83789
234.32058,0.83065
234.07951,0.82565
233.83844,0.82416
233.59737,0.82418
233.35630,0.82288
233.11523,0.81993
232.87416,0.81688
232.63309,0.81396
232.39202,0.81005
232.15095,0.80534
231.90988,0.80100
231.66880,0.79682
231.42773,0.79210
231.18666,0.78854
230.94559,0.78896
230.70452,0.79295
230.46345,0.79683
230.22238,0.79851
229.98131,0.79972
229.74024,0.80251
229.49917,0.80573
229.25810,0.80642
229.01703,0.80372
228.77596,0.80033
228.53489,0.79941
228.29382,0.80068
228.05275,0.80128
227.81168,0.80000
227.57061,0.79804
227.32953,0.79557
227.08846,0.79141
226.84739,0.78645
226.60632,0.78358
226.36525,0.78401
226.12418,0.78627
225.88311,0.78880
225.64204,0.79147
225.40097,0.79466
225.15990,0.79804
224.91883,0.80085
224.67776,0.80344
224.43669,0.80695
224.19562,0.81098
223.95455,0.81374
223.71348,0.81501
223.47241,0.81624
223.23134,0.81839
222.99026,0.82211
222.74919,0.82783
222.50812,0.83390
222.26705,0.83815
222.02598,0.84189
221.78491,0.84863
221.54384,0.85891
221.30277,0.86992
221.06170,0.87912
220.82063,0.88581
220.57956,0.89068
220.33849,0.89591
220.09742,0.90394
219.85635,0.91465
219.61528,0.92582
219.37421,0.93706
219.13314,0.95110
218.89207,0.96943
218.65099,0.98906
218.40992,1.00606
218.16885,1.01964
217.92778,1.03064
217.68671,1.04003
217.44564,1.05026
217.20457,1.06362
216.96350,1.07948
216.72243,1.09666
216.48136,1.11620
216.24029,1.13859
215.99922,1.16055
215.75815,1.17756
215.51708,1.18851
215.27601,1.19662
215.03494,1.20615
214.79387,1.22005
214.55280,1.24034
214.31172,1.26629
214.07065,1.29118
213.82958,1.30690
213.58851,1.31342
213.34744,1.31792
213.10637,1.32633
212.86530,1.34018
212.62423,1.35802
212.38316,1.37497
212.14209,1.38524
211.90102,1.38764
211.65995,1.38622
211.41888,1.38578
211.17781,1.38741
210.93674,1.38815
210.69567,1.38688
210.45460,1.38695
210.21353,1.39248
209.97245,1.40558
209.73138,1.42337
209.49031,1.43585
209.24924,1.43168
209.00817,1.40942
208.76710,1.37865
208.52603,1.35032
208.28496,1.33137
208.04389,1.32456
207.80282,1.32696
207.56175,1.33127
207.32068,1.33078
207.07961,1.32199
206.83854,1.30570
206.59747,1.28852
206.35640,1.27930
206.11533,1.27924
205.87426,1.27724
205.63318,1.26043
205.39211,1.23012
205.15104,1.20040
204.90997,1.18208
204.66890,1.17383
204.42783,1.16563
204.18676,1.14890
203.94569,1.12506
203.70462,1.10232
203.46355,1.08606
203.22248,1.07517
202.98141,1.06572
202.74034,1.05499
202.49927,1.04178
202.25820,1.02469
202.01713,1.00314
201.77606,0.97994
201.53499,0.95963
201.29391,0.94392
201.05284,0.93007
200.81177,0.91433
200.57070,0.89580
200.32963,0.87665
200.08856,0.85947
199.84749,0.84537
199.60642,0.83410
199.36535,0.82456
199.12428,0.81483
198.88321,0.80312
198.64214,0.79008
198.40107,0.77884
198.16000,0.77143
197.91893,0.76595
197.67786,0.75827
197.43679,0.74638
197.19572,0.73240
196.95464,0.72037
196.71357,0.71211
196.47250,0.70558
196.23143,0.69743
195.99036,0.68734
195.74929,0.67789
195.50822,0.67075
195.26715,0.66511
195.02608,0.65964
194.78501,0.65395
194.54394,0.64789
194.30287,0.64131
194.06180,0.63498
193.82073,0.63030
193.57966,0.62717
193.33859,0.62339
193.09752,0.61685
192.85645,0.60836
192.61537,0.60115
192.37430,0.59714
192.13323,0.59457
191.89216,0.59036
191.65109,0.58437
191.41002,0.57950
191.16895,0.57769
190.92788,0.57727
190.68681,0.57521
190.44574,0.57138
190.20467,0.56857
189.96360,0.56811
189.72253,0.56789
189.48146,0.56557
189.24039,0.56225
188.99932,0.56091
188.75825,0.56202
188.51718,0.56278
188.27610,0.56112
188.03503,0.55832
187.79396,0.55649
187.55289,0.55522
187.31182,0.55290
187.07075,0.54976
186.82968,0.54747
186.58861,0.54674
186.34754,0.54724
186.10647,0.54858
185.86540,0.54996
185.62433,0.55009
185.38326,0.54875
185.14219,0.54782
184.90112,0.54959
184.66005,0.55400
184.41898,0.55817
184.17791,0.55961
183.93683,0.55951
183.69576,0.56088
183.45469,0.56413
183.21362,0.56722
182.97255,0.56943
182.73148,0.57160
182.49041,0.57330
182.24934,0.57346
182.00827,0.57321
181.76720,0.57482
181.52613,0.57828
181.28506,0.58144
181.04399,0.58316
180.80292,0.58449
180.56185,0.58681
180.32078,0.59000
180.07971,0.59301
179.83864,0.59616
179.59756,0.60083
179.35649,0.60661
179.11542,0.61157
178.87435,0.61601
178.63328,0.62250
178.39221,0.63213
178.15114,0.64409
177.91007,0.65737
177.66900,0.67056
177.42793,0.68257
177.18686,0.69485
176.94579,0.70981
176.70472,0.72726
176.46365,0.74547
176.22258,0.76461
175.98151,0.78603
175.74044,0.80894
175.49937,0.83098
175.25829,0.85182
175.01722,0.87358
174.77615,0.89778
174.53508,0.92386
174.29401,0.95049
174.05294,0.97561
173.81187,0.99642
173.57080,1.01333
173.32973,1.03113
173.08866,1.05215
172.84759,1.07170
172.60652,1.08377
172.36545,1.08737
172.12438,1.08508
171.88331,1.07989
171.64224,1.07419
171.40117,1.06912
171.16010,1.06509
170.91902,1.06252
170.67795,1.06153
170.43688,1.06106
170.19581,1.05892
169.95474,1.05395
169.71367,1.04800
169.47260,1.04338
169.23153,1.03955
168.99046,1.03496
168.74939,1.02978
168.50832,1.02388
168.26725,1.01577
168.02618,1.00566
167.78511,0.99624
167.54404,0.98987
167.30297,0.98729
167.06190,0.98841
166.82083,0.99249
166.57975,0.99863
166.33868,1.00637
166.09761,1.01478
165.85654,1.02208
165.61547,1.02769
165.37440,1.03305
165.13333,1.03907
164.89226,1.04520
164.65119,1.05204
164.41012,1.06261
164.16905,1.07920
163.92798,1.10027
163.68691,1.12157
163.44584,1.13971
163.20477,1.15464
162.96370,1.16851
162.72263,1.18170
162.48156,1.19195
162.24048,1.19843
161.99941,1.20349
161.75834,1.21021
161.51727,1.22023
161.27620,1.23289
161.03513,1.24534
160.79406,1.25410
160.55299,1.25543
160.31192,1.24576
160.07085,1.22637
159.82978,1.20529
159.58871,1.19011
159.34764,1.18178
159.10657,1.17667
158.86550,1.17256
158.62443,1.17056
158.38336,1.17079
158.14229,1.16857
157.90121,1.15829
157.66014,1.14105
157.41907,1.12507
157.17800,1.11748
156.93693,1.11807
156.69586,1.11997
156.45479,1.11479
156.21372,1.10002
155.97265,1.08132
155.73158,1.06614
155.49051,1.05759
155.24944,1.05437
155.00837,1.05257
154.76730,1.04673
154.52623,1.03277
154.28516,1.01119
154.04409,0.98677
153.80302,0.96442
153.56194,0.94559
153.32087,0.92897
153.07980,0.91238
152.83873,0.89293
152.59766,0.86879
152.35659,0.84235
152.11552,0.81886
151.87445,0.80095
151.63338,0.78598
151.39231,0.76921
151.15124,0.74880
150.91017,0.72661
150.66910,0.70515
150.42803,0.68594
150.18696,0.66991
149.94589,0.65704
149.70482,0.64571
149.46375,0.63447
149.22267,0.62380
148.98160,0.61491
148.74053,0.60765
148.49946,0.60066
148.25839,0.59302
148.01732,0.58521
147.77625,0.57834
147.53518,0.57330
147.29411,0.57053
147.05304,0.56987
146.81197,0.57029
146.57090,0.57057
146.32983,0.57065
146.08876,0.57185
145.84769,0.57541
145.60662,0.58152
145.36555,0.58926
145.12448,0.59721
144.88340,0.60445
144.64233,0.61110
144.40126,0.61750
144.16019,0.62319
143.91912,0.62720
143.67805,0.62916
143.43698,0.62883
143.19591,0.62497
142.95484,0.61606
142.71377,0.60245
142.47270,0.58719
142.23163,0.57390
141.99056,0.56413
141.74949,0.55690
141.50842,0.55045
141.26735,0.54388
141.02628,0.53732
140.78521,0.53113
140.54413,0.52577
140.30306,0.52247
140.06199,0.52255
139.82092,0.52592
139.57985,0.53115
139.33878,0.53732
139.09771,0.54436
138.85664,0.55185
138.61557,0.55933
138.37450,0.56779
138.13343,0.57880
137.89236,0.59238
137.65129,0.60725
137.41022,0.62326
137.16915,0.64147
136.92808,0.66191
136.68701,0.68315
136.44594,0.70427
136.20486,0.72623
135.96379,0.75137
135.72272,0.78144
135.48165,0.81594
135.24058,0.85332
134.99951,0.89292
134.75844,0.93429
134.51737,0.97606
134.27630,1.01721
134.03523,1.05652
133.79416,1.09075
133.55309,1.11934
133.31202,1.14773
133.07095,1.17938
132.82988,1.20996
132.58881,1.23433
132.34774,1.25216
132.10667,1.26174
131.86559,1.26094
131.62452,1.25290
131.38345,1.23989
131.14238,1.21903
130.90131,1.18882
130.66024,1.15352
130.41917,1.11764
130.17810,1.08063
129.93703,1.03987
129.69596,0.99546
129.45489,0.94940
129.21382,0.90310
128.97275,0.85857
128.73168,0.81889
128.49061,0.78494
128.24954,0.75383
128.00847,0.72205
127.76740,0.68923
127.52632,0.65816
127.28525,0.63183
127.04418,0.61090
126.80311,0.59362
126.56204,0.57752
126.32097,0.56074
126.07990,0.54271
125.83883,0.52432
125.59776,0.50722
125.35669,0.49237
125.11562,0.47975
124.87455,0.46931
124.63348,0.46114
124.39241,0.45477
124.15134,0.44896
123.91027,0.44289
123.66920,0.43714
123.42812,0.43314
123.18705,0.43135
122.94598,0.43048
122.70491,0.42926
122.46384,0.42816
122.22277,0.42846
121.98170,0.43005
121.74063,0.43171
121.49956,0.43332
121.25849,0.43656
121.01742,0.44265
120.77635,0.45103
120.53528,0.46068
120.29421,0.47177
120.05314,0.48538
119.81207,0.50219
119.57100,0.52241
119.32993,0.54638
119.08885,0.57445
118.84778,0.60579
118.60671,0.63807
118.36564,0.66984
118.12457,0.70227
117.88350,0.73646
117.64243,0.77011
117.40136,0.79964
117.16029,0.82350
116.91922,0.84045
116.67815,0.84756
116.43708,0.84347
116.19601,0.83098
115.95494,0.81439
115.71387,0.79598
115.47280,0.77693
115.23173,0.75885
114.99066,0.74229
114.74958,0.72527
114.50851,0.70622
114.26744,0.68750
114.02637,0.67355
113.78530,0.66598
113.54423,0.66281
113.30316,0.66199
113.06209,0.66368
112.82102,0.66949
112.57995,0.68063
112.33888,0.69652
112.09781,0.71507
111.85674,0.73454
111.61567,0.75392
111.37460,0.77030
111.13353,0.77892
110.89246,0.77767
110.65139,0.76912
110.41031,0.75733
110.16924,0.74573
109.92817,0.73665
109.68710,0.72917
109.44603,0.71861
109.20496,0.70128
108.96389,0.67807
108.72282,0.65157
108.48175,0.62286
108.24068,0.59276
107.99961,0.56341
107.75854,0.53764
107.51747,0.51749
107.27640,0.50284
107.03533,0.49130
106.79426,0.48002
106.55319,0.46741
106.31212,0.45288
106.07104,0.43652
105.82997,0.41942
105.58890,0.40323
105.34783,0.38932
105.10676,0.37876
104.86569,0.37187
104.62462,0.36641
104.38355,0.35813
104.14248,0.34503
103.90141,0.32967
103.66034,0.31634
103.41927,0.30771
103.17820,0.30396
102.93713,0.30312
102.69606,0.30211
102.45499,0.29852
102.21392,0.29223
101.97285,0.28544
101.73177,0.28094
101.49070,0.27992
101.24963,0.28092
101.00856,0.28101
100.76749,0.27798
100.52642,0.27186
100.28535,0.26483
100.04428,0.25960
99.80321,0.25739
99.56214,0.25690
99.32107,0.25508
99.08000,0.25002
98.83893,0.24362
98.59786,0.24017
98.35679,0.24169
98.11572,0.24587
97.87465,0.24884
97.63358,0.24882
97.39250,0.24720
97.15143,0.24735
96.91036,0.25187
96.66929,0.25963
96.42822,0.26623
96.18715,0.26957
95.94608,0.27323
95.70501,0.28173
95.46394,0.29466
95.22287,0.30657
94.98180,0.31353
94.74073,0.31851
94.49966,0.32634
94.25859,0.33542
94.01752,0.33896
93.77645,0.33524
93.53538,0.33074
93.29431,0.33099
93.05323,0.33472
92.81216,0.33795
92.57109,0.33962
92.33002,0.34111
92.08895,0.34344
91.84788,0.34653
91.60681,0.35041
91.36574,0.35671
91.12467,0.36785
90.88360,0.38541
90.64253,0.41101
90.40146,0.44662
90.16039,0.49018
89.91932,0.53570
89.67825,0.58343
89.43718,0.63855
89.19611,0.69334
88.95504,0.72957
88.71396,0.74563
88.47289,0.74959
88.23182,0.73584
87.99075,0.69844
87.74968,0.64703
87.50861,0.59337
87.26754,0.54099
87.02647,0.49206
86.78540,0.45057
86.54433,0.41772
86.30326,0.39049
86.06219,0.36529
85.82112,0.34061
85.58005,0.31633
85.33898,0.29349
85.09791,0.27458
84.85684,0.26070
84.61577,0.24909
84.37469,0.23654
84.13362,0.22368
83.89255,0.21303
83.65148,0.20520
83.41041,0.19957
83.16934,0.19568
82.92827,0.19273
82.68720,0.18980
82.44613,0.18690
82.20506,0.18396
81.96399,0.18028
81.72292,0.17594
81.48185,0.17254
81.24078,0.17148
80.99971,0.17231
80.75864,0.17300
80.51757,0.17203
80.27650,0.16985
80.03542,0.16786
79.79435,0.16647
79.55328,0.16526
79.31221,0.16438
79.07114,0.16431
78.83007,0.16435
78.58900,0.16283
78.34793,0.15922
78.10686,0.15476
77.86579,0.15091
77.62472,0.14813
77.38365,0.14631
77.14258,0.14548
76.90151,0.14550
76.66044,0.14545
76.41937,0.14428
76.17830,0.14203
75.93723,0.13963
75.69615,0.13752
75.45508,0.13576
75.21401,0.13501
74.97294,0.13589
74.73187,0.13771
74.49080,0.13885
74.24973,0.13836
74.00866,0.13708
73.76759,0.13700
73.52652,0.13919
73.28545,0.14234
73.04438,0.14400
72.80331,0.14317
72.56224,0.14119
72.32117,0.14080
72.08010,0.14452
71.83903,0.15274
71.59796,0.16279
71.35688,0.17061
71.11581,0.17375
70.87474,0.17282
70.63367,0.17088
70.39260,0.17220
70.15153,0.18058
69.91046,0.19732
69.66939,0.22009
69.42832,0.24346
69.18725,0.26071
68.94618,0.26642
68.70511,0.25923
68.46404,0.24209
68.22297,0.21919
67.98190,0.19443
67.74083,0.17193
67.49976,0.15524
67.25869,0.14493
67.01761,0.13847
66.77654,0.13272
66.53547,0.12669
66.29440,0.12185
66.05333,0.12021
65.81226,0.12220
65.57119,0.12665
65.33012,0.13250
65.08905,0.14004
64.84798,0.15046
64.60691,0.16418
64.36584,0.17933
64.12477,0.19167
63.88370,0.19712
63.64263,0.19460
63.40156,0.18622
63.16049,0.17530
62.91942,0.16461
62.67834,0.15546
62.43727,0.14775
62.19620,0.14143
61.95513,0.13737
61.71406,0.13604
61.47299,0.13605
61.23192,0.13492
60.99085,0.13141
60.74978,0.12687
60.50871,0.12423
60.26764,0.12536
60.02657,0.12930
59.78550,0.13316
59.54443,0.13472
59.30336,0.13370
59.06229,0.13094
58.82122,0.12723
58.58015,0.12299
58.33907,0.11893
58.09800,0.11713
57.85693,0.12031
57.61586,0.12923
57.37479,0.14149
57.13372,0.15369
56.89265,0.16341
56.65158,0.16806
56.41051,0.16530
56.16944,0.15617
55.92837,0.14375
55.68730,0.12912
55.44623,0.11292
55.20516,0.09879
54.96409,0.09229
54.72302,0.09665
54.48195,0.11084
54.24088,0.13092
53.99980,0.15188
53.75873,0.16768
53.51766,0.17110
53.27659,0.15884
53.03552,0.13663
52.79445,0.11546
52.55338,0.10591
52.31231,0.11518
52.07124,0.14341
51.83017,0.17747
51.58910,0.19075
51.34803,0.17044
51.10696,0.13690
50.86589,0.11475
50.62482,0.11466
50.38375,0.13536
50.14268,0.16400
49.90161,0.17539
49.66053,0.15440
49.41946,0.12214
49.17839,0.10697
48.93732,0.11934
48.69625,0.14848
48.45518,0.15906
48.21411,0.13324
47.97304,0.10889
47.73197,0.11674
47.49090,0.14812
47.24983,0.15981
47.00876,0.13040
46.76769,0.10298
46.52662,0.10820
46.28555,0.13401
46.04448,0.14601
45.80341,0.13688
45.56234,0.13328
45.32126,0.14055
45.08019,0.13929
44.83912,0.13017
44.59805,0.13111
44.35698,0.13624
44.11591,0.12970
43.87484,0.12285
43.63377,0.13013
43.39270,0.14090
43.15163,0.14243
42.91056,0.14494
42.66949,0.15722
42.42842,0.16810
42.18735,0.16581
41.94628,0.15422
41.70521,0.14275
41.46414,0.13632
41.22307,0.13545
40.98199,0.13951
40.74092,0.14595
40.49985,0.15059
40.25878,0.15355
40.01771,0.15851
39.77664,0.16365
39.53557,0.16441
39.29450,0.16441
39.05343,0.17045
38.81236,0.18424
38.57129,0.20265
38.33022,0.21903
38.08915,0.22812
37.84808,0.23148
37.60701,0.23249
37.36594,0.22869
37.12487,0.21795
36.88380,0.20497
36.64272,0.19410
36.40165,0.18679
36.16058,0.18650
35.91951,0.19729
35.67844,0.21642
35.43737,0.23325
35.19630,0.24016
34.95523,0.23842
34.71416,0.23101
34.47309,0.21989
34.23202,0.21019
33.99095,0.20854
33.74988,0.21759
33.50881,0.23255
33.26774,0.24395
33.02667,0.24639
32.78560,0.24564
32.54453,0.24777
32.30345,0.24669
32.06238,0.23535
31.82131,0.21747
31.58024,0.20018
31.33917,0.18648
31.09810,0.17615
30.85703,0.16866
30.61596,0.16342
30.37489,0.15777
30.13382,0.14780
29.89275,0.13273
29.65168,0.11495
29.41061,0.09562
29.16954,0.07382
28.92847,0.05092
28.68740,0.03237
28.44633,0.02450
28.20526,0.02862
27.96418,0.03896
27.72311,0.05048
27.48204,0.06128
27.24097,0.06588
26.99990,0.05705
26.75883,0.03603
26.51776,0.01180
26.27669,-0.00653
26.03562,-0.01341
25.79455,-0.01061
25.55348,-0.00804
25.31241,-0.01470
25.07134,-0.03026
24.83027,-0.05017
24.58920,-0.07292
24.34813,-0.09739
24.10706,-0.11913
23.86599,-0.13431
23.62491,-0.14409
23.38384,-0.15334
23.14277,-0.16561
22.90170,-0.17706
22.66063,-0.17989
22.41956,-0.17375
22.17849,-0.16710
21.93742,-0.16554
21.69635,-0.17057
21.45528,-0.18609
21.21421,-0.21155
20.97314,-0.23338
20.73207,-0.23518
20.49100,-0.21966
20.24993,-0.20821
20.00886,-0.21280
19.76779,-0.22484
19.52672,-0.23068
19.28564,-0.22556
19.04457,-0.21676
18.80350,-0.21921
18.56243,-0.24241
18.32136,-0.27719
18.08029,-0.29887
17.83922,-0.29096
17.59815,-0.26459
17.35708,-0.24412
17.11601,-0.24094
16.87494,-0.25377
16.63387,-0.27896
16.39280,-0.30973
16.15173,-0.33877
15.91066,-0.35875
15.66959,-0.35495
15.42852,-0.32837
15.18745,-0.29852
14.94637,-0.28595
14.70530,-0.29561
14.46423,-0.31728
14.22316,-0.34255
13.98209,-0.36753
13.74102,-0.37947
13.49995,-0.36865
13.25888,-0.35770
13.01781,-0.37521
12.77674,-0.40965
12.53567,-0.42180
12.29460,-0.41243
12.05353,-0.39704
11.81246,-0.38716
11.57139,-0.39189
11.33032,-0.40888
11.08925,-0.42799
10.84818,-0.42514
10.60710,-0.38916
10.36603,-0.35298
10.12496,-0.34064
9.88389,-0.34552
9.64282,-0.35098
9.40175,-0.35970
9.16068,-0.37013
8.91961,-0.37951
8.67854,-0.38911
8.43747,-0.40495
8.19640,-0.41166
7.95533,-0.39931
7.71426,-0.38865
7.47319,-0.39607
7.23212,-0.41891
6.99105,-0.44887
6.74998,-0.47580
6.50891,-0.46920
6.26783,-0.42606
6.02676,-0.37614
5.78569,-0.34531
5.54462,-0.33598
5.30355,-0.34465
5.06248,-0.36464
4.82141,-0.38924
4.58034,-0.40516
4.33927,-0.38841
4.09820,-0.35764
3.85713,-0.34862
3.61606,-0.37939
3.37499,-0.42447
3.13392,-0.41575
2.89285,-0.40253
2.65178,-0.39542
2.41071,-0.39160
2.16964,-0.39724
1.92856,-0.39983
1.68749,-0.38520
1.44642,-0.37240
1.20535,-0.36629
0.96428,-0.36698
0.72321,-0.39711
0.48214,-0.45737
0.24107,-0.43889
-0.00000,-0.04909
