399.69498,1.41482
399.45391,1.42149
399.21284,1.43603
398.97177,1.44816
398.73070,1.44814
398.48963,1.43818
398.24856,1.42804
398.00749,1.42286
397.76642,1.41877
397.52535,1.41195
397.28428,1.40793
397.04321,1.41419
396.80214,1.42709
396.56107,1.43735
396.32000,1.44466
396.07892,1.45384
395.83785,1.46265
395.59678,1.46460
395.35571,1.45960
395.11464,1.45298
394.87357,1.44791
394.63250,1.44473
394.39143,1.44443
394.15036,1.44765
393.90929,1.44892
393.66822,1.43987
393.42715,1.42133
393.18608,1.40353
392.94501,1.39346
392.70394,1.38998
392.46287,1.39049
392.22180,1.39462
391.98073,1.40124
391.73965,1.40835
391.49858,1.41508
391.25751,1.42081
391.01644,1.42385
390.77537,1.42188
390.53430,1.41461
390.29323,1.40624
390.05216,1.40245
389.81109,1.40578
389.57002,1.41333
389.32895,1.41728
389.08788,1.41387
388.84681,1.40910
388.60574,1.40679
388.36467,1.40282
388.12360,1.39376
387.88253,1.38546
387.64146,1.38635
387.40038,1.39338
387.15931,1.39497
386.91824,1.38746
386.67717,1.37859
386.43610,1.37302
386.19503,1.36467
385.95396,1.34794
385.71289,1.33049
385.47182,1.32377
385.23075,1.32686
384.98968,1.32668
384.74861,1.31269
384.50754,1.29011
384.26647,1.27411
384.02540,1.27101
383.78433,1.27340
383.54326,1.27155
383.30219,1.26294
383.06111,1.25219
382.82004,1.24381
382.57897,1.23744
382.33790,1.23208
382.09683,1.22760
381.85576,1.22301
381.61469,1.21686
381.37362,1.21046
381.13255,1.20698
380.89148,1.20594
380.65041,1.20251
380.40934,1.19457
380.16827,1.18740
379.92720,1.18708
379.68613,1.19182
379.44506,1.19445
379.20399,1.19241
378.96292,1.19097
378.72184,1.19522
378.48077,1.20421
378.23970,1.21515
377.99863,1.22694
377.75756,1.23754
377.51649,1.24268
377.27542,1.24117
377.03435,1.23965
376.79328,1.24586
376.55221,1.25852
376.31114,1.27071
376.07007,1.28174
375.82900,1.29603
375.58793,1.30983
375.34686,1.31135
375.10579,1.29947
374.86472,1.28927
374.62365,1.29338
374.38257,1.30719
374.14150,1.31583
373.90043,1.31311
373.65936,1.30661
373.41829,1.30687
373.17722,1.31408
372.93615,1.31705
372.69508,1.30846
372.45401,1.29525
372.21294,1.28854
371.97187,1.28934
371.73080,1.28792
371.48973,1.27602
371.24866,1.25630
371.00759,1.23755
370.76652,1.22462
370.52545,1.21639
370.28437,1.21151
370.04330,1.21100
369.80223,1.21313
369.56116,1.21192
369.32009,1.20507
369.07902,1.19766
368.83795,1.19478
368.59688,1.19525
368.35581,1.19524
368.11474,1.19450
367.87367,1.19475
367.63260,1.19398
367.39153,1.18845
367.15046,1.17903
366.90939,1.17032
366.66832,1.16555
366.42725,1.16549
366.18618,1.16900
365.94510,1.17126
365.70403,1.16589
365.46296,1.15293
365.22189,1.13963
364.98082,1.13241
364.73975,1.13271
364.49868,1.13814
364.25761,1.14369
364.01654,1.14419
363.77547,1.13936
363.53440,1.13409
363.29333,1.13248
363.05226,1.13409
362.81119,1.13582
362.57012,1.13504
362.32905,1.13177
362.08798,1.12845
361.84691,1.12757
361.60583,1.12987
361.36476,1.13335
361.12369,1.13331
360.88262,1.12705
360.64155,1.11928
360.40048,1.11691
360.15941,1.11894
359.91834,1.11830
359.67727,1.11347
359.43620,1.10976
359.19513,1.10924
358.95406,1.10813
358.71299,1.10456
358.47192,1.10185
358.23085,1.10161
357.98978,1.10040
357.74871,1.09679
357.50764,1.09493
357.26656,1.09827
357.02549,1.10498
356.78442,1.11177
356.54335,1.11760
356.30228,1.12257
356.06121,1.12554
355.82014,1.12413
355.57907,1.11776
355.33800,1.10994
355.09693,1.10567
354.85586,1.10706
354.61479,1.11264
354.37372,1.11923
354.13265,1.12317
353.89158,1.12217
353.65051,1.11784
353.40944,1.11444
353.16837,1.11443
352.92729,1.11699
352.68622,1.12050
352.44515,1.12418
352.20408,1.12820
351.96301,1.13286
351.72194,1.13656
351.48087,1.13709
351.23980,1.13608
350.99873,1.13608
350.75766,1.13425
350.51659,1.12741
350.27552,1.11973
350.03445,1.11732
349.79338,1.11963
349.55231,1.12156
349.31124,1.12085
349.07017,1.11879
348.82910,1.11701
348.58802,1.11711
348.34695,1.12099
348.10588,1.12953
347.86481,1.14119
347.62374,1.15208
347.38267,1.15782
347.14160,1.15691
346.90053,1.15185
346.65946,1.14661
346.41839,1.14401
346.17732,1.14432
345.93625,1.14566
345.69518,1.14638
345.45411,1.14724
345.21304,1.14965
344.97197,1.15301
344.73090,1.15676
344.48983,1.16327
344.24875,1.17437
344.00768,1.18647
343.76661,1.19386
343.52554,1.19540
343.28447,1.19337
343.04340,1.19019
342.80233,1.18929
342.56126,1.19438
342.32019,1.20511
342.07912,1.21657
341.83805,1.22490
341.59698,1.23015
341.35591,1.23317
341.11484,1.23434
340.87377,1.23544
340.63270,1.23891
340.39163,1.24488
340.15056,1.25241
339.90948,1.26178
339.66841,1.27246
339.42734,1.28142
339.18627,1.28575
338.94520,1.28732
338.70413,1.29137
338.46306,1.30003
338.22199,1.30959
337.98092,1.31454
337.73985,1.31394
337.49878,1.31212
337.25771,1.31233
337.01664,1.31522
336.77557,1.32275
336.53450,1.33514
336.29343,1.34571
336.05236,1.34667
335.81129,1.33955
335.57021,1.33375
335.32914,1.33450
335.08807,1.33646
334.84700,1.33050
334.60593,1.31525
334.36486,1.29744
334.12379,1.28302
333.88272,1.27308
333.64165,1.26648
333.40058,1.26201
333.15951,1.25722
332.91844,1.25017
332.67737,1.24371
332.43630,1.24277
332.19523,1.24643
331.95416,1.24800
331.71309,1.24337
331.47202,1.23521
331.23094,1.22829
330.98987,1.22314
330.74880,1.21604
330.50773,1.20491
330.26666,1.19269
330.02559,1.18322
329.78452,1.17746
329.54345,1.17555
329.30238,1.17740
329.06131,1.17985
328.82024,1.17957
328.57917,1.17926
328.33810,1.18288
328.09703,1.18622
327.85596,1.18114
327.61489,1.16833
327.37382,1.15850
327.13275,1.16080
326.89167,1.17384
326.65060,1.18726
326.40953,1.19220
326.16846,1.18958
325.92739,1.18522
325.68632,1.18218
325.44525,1.18159
325.20418,1.18342
324.96311,1.18334
324.72204,1.17559
324.48097,1.16469
324.23990,1.16212
323.99883,1.17064
323.75776,1.18466
323.51669,1.20044
323.27562,1.21635
323.03455,1.22839
322.79348,1.23093
322.55240,1.22247
322.31133,1.20863
322.07026,1.19687
321.82919,1.19265
321.58812,1.19763
321.34705,1.20727
321.10598,1.21313
320.86491,1.21084
320.62384,1.20497
320.38277,1.20460
320.14170,1.21354
319.90063,1.22538
319.65956,1.22976
319.41849,1.22473
319.17742,1.21776
318.93635,1.21538
318.69528,1.21823
318.45421,1.22512
318.21313,1.23579
317.97206,1.24681
317.73099,1.25102
317.48992,1.24402
317.24885,1.22990
317.00778,1.21864
316.76671,1.21622
316.52564,1.21917
316.28457,1.21986
316.04350,1.21667
315.80243,1.21470
315.56136,1.21748
315.32029,1.22413
315.07922,1.23075
314.83815,1.23412
314.59708,1.23525
314.35601,1.23650
314.11494,1.23676
313.87386,1.23305
313.63279,1.22592
313.39172,1.22108
313.15065,1.22627
312.90958,1.24304
312.66851,1.26432
312.42744,1.28132
312.18637,1.28946
311.94530,1.28861
311.70423,1.28084
311.46316,1.27013
311.22209,1.26289
310.98102,1.26433
310.73995,1.27288
310.49888,1.27947
310.25781,1.27627
310.01674,1.26760
309.77567,1.26626
309.53459,1.27811
309.29352,1.29512
309.05245,1.30655
308.81138,1.31093
308.57031,1.31258
308.32924,1.31068
308.08817,1.30012
307.84710,1.28574
307.60603,1.28188
307.36496,1.29425
307.12389,1.31310
306.88282,1.32538
306.64175,1.32811
306.40068,1.32302
306.15961,1.30894
305.91854,1.28834
305.67747,1.27053
305.43640,1.26378
305.19532,1.26828
304.95425,1.27832
304.71318,1.28786
304.47211,1.29286
304.23104,1.29105
303.98997,1.28272
303.74890,1.27177
303.50783,1.26273
303.26676,1.25629
303.02569,1.24942
302.78462,1.24131
302.54355,1.23641
302.30248,1.23839
302.06141,1.24434
301.82034,1.24854
301.57927,1.24943
301.33820,1.24763
301.09713,1.24144
300.85605,1.23089
300.61498,1.22144
300.37391,1.21726
300.13284,1.21471
299.89177,1.20835
299.65070,1.19748
299.40963,1.18533
299.16856,1.17540
298.92749,1.16957
298.68642,1.16819
298.44535,1.17059
298.20428,1.17439
297.96321,1.17493
297.72214,1.16813
297.48107,1.15467
297.24000,1.14065
296.99893,1.13226
296.75786,1.13003
296.51678,1.12912
296.27571,1.12522
296.03464,1.11872
295.79357,1.11225
295.55250,1.10675
295.31143,1.10241
295.07036,1.10051
294.82929,1.10099
294.58822,1.10059
294.34715,1.09642
294.10608,1.08931
293.86501,1.08220
293.62394,1.07791
293.38287,1.07786
293.14180,1.07990
292.90073,1.07947
292.65966,1.07551
292.41859,1.07215
292.17751,1.07226
291.93644,1.07403
291.69537,1.07513
291.45430,1.07468
291.21323,1.07118
290.97216,1.06417
290.73109,1.05672
290.49002,1.05203
290.24895,1.05014
290.00788,1.05050
289.76681,1.05384
289.52574,1.05895
289.28467,1.06178
289.04360,1.06093
288.80253,1.05910
288.56146,1.05771
288.32039,1.05548
288.07932,1.05230
287.83824,1.04989
287.59717,1.04818
287.35610,1.04464
287.11503,1.03855
286.87396,1.03346
286.63289,1.03342
286.39182,1.03771
286.15075,1.04139
285.90968,1.04078
285.66861,1.03679
285.42754,1.03306
285.18647,1.03247
284.94540,1.03478
284.70433,1.03646
284.46326,1.03445
284.22219,1.02997
283.98112,1.02656
283.74005,1.02583
283.49897,1.02705
283.25790,1.02877
283.01683,1.02966
282.77576,1.02887
282.53469,1.02695
282.29362,1.02604
282.05255,1.02805
281.81148,1.03212
281.57041,1.03489
281.32934,1.03447
281.08827,1.03253
280.84720,1.03128
280.60613,1.03045
280.36506,1.02876
280.12399,1.02606
279.88292,1.02314
279.64185,1.02116
279.40078,1.02142
279.15970,1.02419
278.91863,1.02821
278.67756,1.03227
278.43649,1.03600
278.19542,1.03891
277.95435,1.04077
277.71328,1.04203
277.47221,1.04207
277.23114,1.03891
276.99007,1.03286
276.74900,1.02796
276.50793,1.02779
276.26686,1.03122
276.02579,1.03410
275.78472,1.03454
275.54365,1.03476
275.30258,1.03755
275.06151,1.04283
274.82043,1.04837
274.57936,1.05215
274.33829,1.05366
274.09722,1.05399
273.85615,1.05503
273.61508,1.05714
273.37401,1.05895
273.13294,1.06021
272.89187,1.06282
272.65080,1.06731
272.40973,1.07123
272.16866,1.07283
271.92759,1.07402
271.68652,1.07765
271.44545,1.08272
271.20438,1.08467
270.96331,1.08149
270.72224,1.07788
270.48116,1.08083
270.24009,1.09212
269.99902,1.10629
269.75795,1.11550
269.51688,1.11645
269.27581,1.11310
269.03474,1.11253
268.79367,1.11818
268.55260,1.12789
268.31153,1.13759
268.07046,1.14475
267.82939,1.14904
267.58832,1.15159
267.34725,1.15412
267.10618,1.15878
266.86511,1.16682
266.62404,1.17650
266.38297,1.18485
266.14189,1.19199
265.90082,1.20149
265.65975,1.21502
265.41868,1.22905
265.17761,1.23895
264.93654,1.24439
264.69547,1.24899
264.45440,1.25539
264.21333,1.26337
263.97226,1.27267
263.73119,1.28427
263.49012,1.29832
263.24905,1.31366
263.00798,1.32963
262.76691,1.34588
262.52584,1.36124
262.28477,1.37602
262.04370,1.39403
261.80262,1.41810
261.56155,1.44533
261.32048,1.47116
261.07941,1.49502
260.83834,1.51916
260.59727,1.54492
260.35620,1.56994
260.11513,1.58914
259.87406,1.60005
259.63299,1.60699
259.39192,1.61847
259.15085,1.63898
258.90978,1.66375
258.66871,1.68340
258.42764,1.69431
258.18657,1.70099
257.94550,1.70993
257.70443,1.71858
257.46335,1.71666
257.22228,1.70523
256.98121,1.69208
256.74014,1.67844
256.49907,1.65968
256.25800,1.63234
256.01693,1.60219
255.77586,1.58042
255.53479,1.57126
255.29372,1.57052
255.05265,1.57164
254.81158,1.56795
254.57051,1.55491
254.32944,1.53530
254.08837,1.51788
253.84730,1.50664
253.60623,1.49714
253.36516,1.48650
253.12408,1.47968
252.88301,1.48126
252.64194,1.48543
252.40087,1.48094
252.15980,1.46710
251.91873,1.45492
251.67766,1.45087
251.43659,1.44967
251.19552,1.44554
250.95445,1.44101
250.71338,1.43931
250.47231,1.43929
250.23124,1.44195
249.99017,1.45016
249.74910,1.45930
249.50803,1.45951
249.26696,1.45097
249.02589,1.44433
248.78481,1.44489
248.54374,1.44763
248.30267,1.44626
248.06160,1.43987
247.82053,1.43232
247.57946,1.42902
247.33839,1.43393
247.09732,1.44601
246.85625,1.45838
246.61518,1.46410
246.37411,1.46280
246.13304,1.45792
245.89197,1.45132
245.65090,1.44685
245.40983,1.45310
245.16876,1.47626
244.92769,1.51395
244.68661,1.55880
244.44554,1.60503
244.20447,1.64787
243.96340,1.68256
243.72233,1.71012
243.48126,1.73953
243.24019,1.77634
242.99912,1.81412
242.75805,1.85144
242.51698,1.89851
242.27591,1.89301
242.03484,1.78637
241.79377,1.66989
241.55270,1.56136
241.31163,1.46755
241.07056,1.39147
240.82949,1.32842
240.58842,1.27270
240.34734,1.22267
240.10627,1.17931
239.86520,1.14194
239.62413,1.10820
239.38306,1.07674
239.14199,1.04757
238.90092,1.02055
238.65985,0.99522
238.41878,0.97122
238.17771,0.94807
237.93664,0.92540
237.69557,0.90411
237.45450,0.88615
237.21343,0.87207
236.97236,0.85993
236.73129,0.84765
236.49022,0.83508
236.24915,0.82315
236.00807,0.81257
235.76700,0.80374
235.52593,0.79667
235.28486,0.79072
235.04379,0.78541
234.80272,0.78113
234.56165,0.77836
234.32058,0.77654
234.07951,0.77454
233.83844,0.77177
233.59737,0.76844
233.35630,0.76516
233.11523,0.76308
232.87416,0.76328
232.63309,0.76486
232.39202,0.76510
232.15095,0.76300
231.90988,0.76061
231.66880,0.75900
231.42773,0.75630
231.18666,0.75147
230.94559,0.74659
230.70452,0.74376
230.46345,0.74293
230.22238,0.74324
229.98131,0.74420
229.74024,0.74538
229.49917,0.74612
229.25810,0.74576
229.01703,0.74422
228.77596,0.74249
228.53489,0.74155
228.29382,0.74144
228.05275,0.74184
227.81168,0.74252
227.57061,0.74253
227.32953,0.74091
227.08846,0.73831
226.84739,0.73696
226.60632,0.73864
226.36525,0.74277
226.12418,0.74638
225.88311,0.74687
225.64204,0.74484
225.40097,0.74291
225.15990,0.74215
224.91883,0.74145
224.67776,0.74054
224.43669,0.74121
224.19562,0.74474
223.95455,0.75012
223.71348,0.75533
223.47241,0.75944
223.23134,0.76308
222.99026,0.76769
222.74919,0.77385
222.50812,0.78031
222.26705,0.78559
222.02598,0.79020
221.78491,0.79622
221.54384,0.80468
221.30277,0.81402
221.06170,0.82146
220.82063,0.82633
220.57956,0.83122
220.33849,0.83940
220.09742,0.85207
219.85635,0.86745
219.61528,0.88184
219.37421,0.89256
219.13314,0.90093
218.89207,0.91062
218.65099,0.92333
218.40992,0.93790
218.16885,0.95296
217.92778,0.96802
217.68671,0.98281
217.44564,0.99708
217.20457,1.01106
216.96350,1.02504
216.72243,1.03921
216.48136,1.05404
216.24029,1.07031
215.99922,1.08796
215.75815,1.10498
215.51708,1.11857
215.27601,1.12835
215.03494,1.13768
214.79387,1.15129
214.55280,1.17239
214.31172,1.19900
214.07065,1.22250
213.82958,1.23566
213.58851,1.24239
213.34744,1.25277
213.10637,1.27043
212.86530,1.29069
212.62423,1.30908
212.38316,1.32557
212.14209,1.34045
211.90102,1.35139
211.65995,1.35605
211.41888,1.35627
211.17781,1.35725
210.93674,1.36009
210.69567,1.35898
210.45460,1.35059
210.21353,1.34120
209.97245,1.33882
209.73138,1.34328
209.49031,1.34833
209.24924,1.34858
209.00817,1.34272
208.76710,1.33300
208.52603,1.32176
208.28496,1.30993
208.04389,1.29730
207.80282,1.28476
207.56175,1.27541
207.32068,1.26917
207.07961,1.26151
206.83854,1.24937
206.59747,1.23556
206.35640,1.22497
206.11533,1.21777
205.87426,1.20816
205.63318,1.19224
205.39211,1.17400
205.15104,1.15903
204.90997,1.14719
204.66890,1.13405
204.42783,1.11773
204.18676,1.10045
203.94569,1.08319
203.70462,1.06404
203.46355,1.04374
203.22248,1.02714
202.98141,1.01553
202.74034,1.00227
202.49927,0.98126
202.25820,0.95606
202.01713,0.93343
201.77606,0.91453
201.53499,0.89664
201.29391,0.87887
201.05284,0.86311
200.81177,0.85074
200.57070,0.84054
200.32963,0.83028
200.08856,0.81926
199.84749,0.80780
199.60642,0.79507
199.36535,0.77980
199.12428,0.76298
198.88321,0.74769
198.64214,0.73585
198.40107,0.72656
198.16000,0.71764
197.91893,0.70772
197.67786,0.69716
197.43679,0.68734
197.19572,0.67936
196.95464,0.67302
196.71357,0.66698
196.47250,0.66012
196.23143,0.65252
195.99036,0.64449
195.74929,0.63531
195.50822,0.62463
195.26715,0.61439
195.02608,0.60702
194.78501,0.60230
194.54394,0.59795
194.30287,0.59263
194.06180,0.58668
193.82073,0.58075
193.57966,0.57556
193.33859,0.57183
193.09752,0.56909
192.85645,0.56569
192.61537,0.56084
192.37430,0.55551
192.13323,0.55093
191.89216,0.54735
191.65109,0.54453
191.41002,0.54246
191.16895,0.54102
190.92788,0.53940
190.68681,0.53646
190.44574,0.53223
190.20467,0.52842
189.96360,0.52653
189.72253,0.52609
189.48146,0.52531
189.24039,0.52336
188.99932,0.52111
188.75825,0.51946
188.51718,0.51814
188.27610,0.51654
188.03503,0.51501
187.79396,0.51457
187.55289,0.51545
187.31182,0.51659
187.07075,0.51654
186.82968,0.51499
186.58861,0.51297
186.34754,0.51156
186.10647,0.51105
185.86540,0.51159
185.62433,0.51330
185.38326,0.51563
185.14219,0.51742
184.90112,0.51803
184.66005,0.51806
184.41898,0.51880
184.17791,0.52077
183.93683,0.52294
183.69576,0.52415
183.45469,0.52508
183.21362,0.52737
182.97255,0.53128
182.73148,0.53551
182.49041,0.53855
182.24934,0.53935
182.00827,0.53787
181.76720,0.53583
181.52613,0.53527
181.28506,0.53637
181.04399,0.53800
180.80292,0.53993
180.56185,0.54282
180.32078,0.54665
180.07971,0.55056
179.83864,0.55419
179.59756,0.55798
179.35649,0.56266
179.11542,0.56879
178.87435,0.57638
178.63328,0.58491
178.39221,0.59394
178.15114,0.60381
177.91007,0.61503
177.66900,0.62728
177.42793,0.63985
177.18686,0.65308
176.94579,0.66820
176.70472,0.68570
176.46365,0.70453
176.22258,0.72344
175.98151,0.74249
175.74044,0.76283
175.49937,0.78514
175.25829,0.80864
175.01722,0.83191
174.77615,0.85459
174.53508,0.87750
174.29401,0.90072
174.05294,0.92353
173.81187,0.94673
173.57080,0.97172
173.32973,0.99593
173.08866,1.01291
172.84759,1.02023
172.60652,1.02338
172.36545,1.02965
172.12438,1.04134
171.88331,1.05468
171.64224,1.06281
171.40117,1.06142
171.16010,1.05267
170.91902,1.04310
170.67795,1.03710
170.43688,1.03254
170.19581,1.02346
169.95474,1.00787
169.71367,0.99016
169.47260,0.97592
169.23153,0.96765
168.99046,0.96476
168.74939,0.96476
168.50832,0.96439
168.26725,0.96084
168.02618,0.95329
167.78511,0.94434
167.54404,0.93847
167.30297,0.93797
167.06190,0.94124
166.82083,0.94561
166.57975,0.94995
166.33868,0.95443
166.09761,0.95991
165.85654,0.96800
165.61547,0.97971
165.37440,0.99329
165.13333,1.00499
164.89226,1.01400
164.65119,1.02516
164.41012,1.04299
164.16905,1.06464
163.92798,1.08304
163.68691,1.09578
163.44584,1.10610
163.20477,1.11697
162.96370,1.12854
162.72263,1.13997
162.48156,1.15134
162.24048,1.16327
161.99941,1.17620
161.75834,1.18978
161.51727,1.20155
161.27620,1.20611
161.03513,1.20028
160.79406,1.18929
160.55299,1.18213
160.31192,1.18176
160.07085,1.18294
159.82978,1.17945
159.58871,1.17061
159.34764,1.16071
159.10657,1.15430
158.86550,1.15099
158.62443,1.14525
158.38336,1.13352
158.14229,1.11921
157.90121,1.10870
157.66014,1.10451
157.41907,1.10237
157.17800,1.09675
156.93693,1.08812
156.69586,1.08021
156.45479,1.07295
156.21372,1.06332
155.97265,1.05173
155.73158,1.04200
155.49051,1.03505
155.24944,1.02649
155.00837,1.01191
154.76730,0.99261
154.52623,0.97340
154.28516,0.95630
154.04409,0.93974
153.80302,0.92257
153.56194,0.90511
153.32087,0.88635
153.07980,0.86458
152.83873,0.84025
152.59766,0.81641
152.35659,0.79536
152.11552,0.77616
151.87445,0.75622
151.63338,0.73472
151.39231,0.71334
151.15124,0.69412
150.91017,0.67736
150.66910,0.66207
150.42803,0.64736
150.18696,0.63283
149.94589,0.61795
149.70482,0.60284
149.46375,0.58922
149.22267,0.57883
148.98160,0.57081
148.74053,0.56261
148.49946,0.55350
148.25839,0.54526
148.01732,0.53937
147.77625,0.53544
147.53518,0.53272
147.29411,0.53127
147.05304,0.53116
146.81197,0.53193
146.57090,0.53341
146.32983,0.53547
146.08876,0.53761
145.84769,0.53983
145.60662,0.54339
145.36555,0.54940
145.12448,0.55743
144.88340,0.56605
144.64233,0.57387
144.40126,0.57971
144.16019,0.58316
143.91912,0.58500
143.67805,0.58576
143.43698,0.58429
143.19591,0.57930
142.95484,0.57136
142.71377,0.56191
142.47270,0.55151
142.23163,0.54051
141.99056,0.53009
141.74949,0.52132
141.50842,0.51439
141.26735,0.50921
141.02628,0.50564
140.78521,0.50301
140.54413,0.50051
140.30306,0.49822
140.06199,0.49706
139.82092,0.49795
139.57985,0.50119
139.33878,0.50623
139.09771,0.51198
138.85664,0.51771
138.61557,0.52391
138.37450,0.53181
138.13343,0.54210
137.89236,0.55451
137.65129,0.56870
137.41022,0.58526
137.16915,0.60546
136.92808,0.62984
136.68701,0.65721
136.44594,0.68519
136.20486,0.71212
135.96379,0.73881
135.72272,0.76781
135.48165,0.80106
135.24058,0.83784
134.99951,0.87507
134.75844,0.91016
134.51737,0.94398
134.27630,0.97972
134.03523,1.01817
133.79416,1.05574
133.55309,1.08867
133.31202,1.11852
133.07095,1.15098
132.82988,1.18897
132.58881,1.22842
132.34774,1.26123
132.10667,1.28129
131.86559,1.28589
131.62452,1.27422
131.38345,1.24885
131.14238,1.21579
130.90131,1.18054
130.66024,1.14450
130.41917,1.10510
130.17810,1.06106
129.93703,1.01623
129.69596,0.97444
129.45489,0.93345
129.21382,0.88955
128.97275,0.84421
128.73168,0.80101
128.49061,0.76101
128.24954,0.72404
128.00847,0.69042
127.76740,0.66008
127.52632,0.63262
127.28525,0.60828
127.04418,0.58696
126.80311,0.56719
126.56204,0.54731
126.32097,0.52712
126.07990,0.50781
125.83883,0.49061
125.59776,0.47597
125.35669,0.46352
125.11562,0.45255
124.87455,0.44269
124.63348,0.43422
124.39241,0.42723
124.15134,0.42087
123.91027,0.41419
123.66920,0.40774
123.42812,0.40343
123.18705,0.40242
122.94598,0.40381
122.70491,0.40550
122.46384,0.40592
122.22277,0.40474
121.98170,0.40249
121.74063,0.40047
121.49956,0.40084
121.25849,0.40551
121.01742,0.41461
120.77635,0.42620
120.53528,0.43785
120.29421,0.44861
120.05314,0.45965
119.81207,0.47343
119.57100,0.49222
119.32993,0.51701
119.08885,0.54728
118.84778,0.58146
118.60671,0.61750
118.36564,0.65322
118.12457,0.68680
117.88350,0.71730
117.64243,0.74468
117.40136,0.76957
117.16029,0.79246
116.91922,0.81114
116.67815,0.81966
116.43708,0.81371
116.19601,0.79632
115.95494,0.77511
115.71387,0.75581
115.47280,0.74009
115.23173,0.72642
114.99066,0.71181
114.74958,0.69488
114.50851,0.67796
114.26744,0.66566
114.02637,0.66099
113.78530,0.66229
113.54423,0.66422
113.30316,0.66289
113.06209,0.65979
112.82102,0.65949
112.57995,0.66536
112.33888,0.67809
112.09781,0.69551
111.85674,0.71292
111.61567,0.72633
111.37460,0.73580
111.13353,0.74368
110.89246,0.75075
110.65139,0.75539
110.41031,0.75426
110.16924,0.74490
109.92817,0.72952
109.68710,0.71333
109.44603,0.69912
109.20496,0.68467
108.96389,0.66475
108.72282,0.63695
108.48175,0.60503
108.24068,0.57508
107.99961,0.55087
107.75854,0.53170
107.51747,0.51294
107.27640,0.49121
107.03533,0.46931
106.79426,0.45261
106.55319,0.44150
106.31212,0.43083
106.07104,0.41657
105.82997,0.40038
105.58890,0.38659
105.34783,0.37690
105.10676,0.36885
104.86569,0.35913
104.62462,0.34800
104.38355,0.33838
104.14248,0.33132
103.90141,0.32473
103.66034,0.31702
103.41927,0.30979
103.17820,0.30496
102.93713,0.30103
102.69606,0.29486
102.45499,0.28662
102.21392,0.27983
101.97285,0.27621
101.73177,0.27320
101.49070,0.26832
101.24963,0.26346
101.00856,0.26177
100.76749,0.26213
100.52642,0.26007
100.28535,0.25421
100.04428,0.24807
99.80321,0.24432
99.56214,0.24182
99.32107,0.23957
99.08000,0.23883
98.83893,0.23954
98.59786,0.23905
98.35679,0.23679
98.11572,0.23566
97.87465,0.23720
97.63358,0.23959
97.39250,0.24146
97.15143,0.24377
96.91036,0.24722
96.66929,0.25136
96.42822,0.25653
96.18715,0.26333
95.94608,0.27093
95.70501,0.27852
95.46394,0.28702
95.22287,0.29651
94.98180,0.30464
94.74073,0.31012
94.49966,0.31419
94.25859,0.31709
94.01752,0.31774
93.77645,0.31728
93.53538,0.31785
93.29431,0.31933
93.05323,0.32075
92.81216,0.32222
92.57109,0.32358
92.33002,0.32427
92.08895,0.32504
91.84788,0.32732
91.60681,0.33232
91.36574,0.34136
91.12467,0.35509
90.88360,0.37340
90.64253,0.39733
90.40146,0.42913
90.16039,0.47002
89.91932,0.51966
89.67825,0.57580
89.43718,0.63215
89.19611,0.68078
88.95504,0.71840
88.71396,0.74431
88.47289,0.75295
88.23182,0.73623
87.99075,0.69359
87.74968,0.63551
87.50861,0.57552
87.26754,0.52130
87.02647,0.47413
86.78540,0.43319
86.54433,0.39806
86.30326,0.36832
86.06219,0.34268
85.82112,0.31951
85.58005,0.29803
85.33898,0.27843
85.09791,0.26066
84.85684,0.24426
84.61577,0.22925
84.37469,0.21649
84.13362,0.20690
83.89255,0.20081
83.65148,0.19715
83.41041,0.19366
83.16934,0.18873
82.92827,0.18315
82.68720,0.17886
82.44613,0.17650
82.20506,0.17499
81.96399,0.17309
81.72292,0.17065
81.48185,0.16846
81.24078,0.16716
80.99971,0.16644
80.75864,0.16557
80.51757,0.16425
80.27650,0.16280
80.03542,0.16148
79.79435,0.16018
79.55328,0.15882
79.31221,0.15746
79.07114,0.15610
78.83007,0.15482
78.58900,0.15389
78.34793,0.15282
78.10686,0.15021
77.86579,0.14565
77.62472,0.14112
77.38365,0.13909
77.14258,0.14017
76.90151,0.14311
76.66044,0.14569
76.41937,0.14579
76.17830,0.14278
75.93723,0.13831
75.69615,0.13500
75.45508,0.13406
75.21401,0.13450
74.97294,0.13466
74.73187,0.13433
74.49080,0.13494
74.24973,0.13741
74.00866,0.14050
73.76759,0.14193
73.52652,0.14069
73.28545,0.13797
73.04438,0.13610
72.80331,0.13653
72.56224,0.13843
72.32117,0.13977
72.08010,0.13979
71.83903,0.13997
71.59796,0.14195
71.35688,0.14555
71.11581,0.14945
70.87474,0.15333
70.63367,0.15843
70.39260,0.16653
70.15153,0.17863
69.91046,0.19439
69.66939,0.21192
69.42832,0.22779
69.18725,0.23778
68.94618,0.23888
68.70511,0.23135
68.46404,0.21809
68.22297,0.20223
67.98190,0.18643
67.74083,0.17357
67.49976,0.16588
67.25869,0.16289
67.01761,0.16137
66.77654,0.15784
66.53547,0.15118
66.29440,0.14277
66.05333,0.13458
65.81226,0.12757
65.57119,0.12199
65.33012,0.11863
65.08905,0.11930
64.84798,0.12643
64.60691,0.14170
64.36584,0.16392
64.12477,0.18755
63.88370,0.20411
63.64263,0.20671
63.40156,0.19492
63.16049,0.17512
62.91942,0.15597
62.67834,0.14318
62.43727,0.13745
62.19620,0.13634
61.95513,0.13715
61.71406,0.13783
61.47299,0.13587
61.23192,0.12900
60.99085,0.11835
60.74978,0.10885
60.50871,0.10555
60.26764,0.11042
60.02657,0.12160
59.78550,0.13368
59.54443,0.13984
59.30336,0.13709
59.06229,0.12909
58.82122,0.12252
58.58015,0.12221
58.33907,0.12902
58.09800,0.13925
57.85693,0.14596
57.61586,0.14398
57.37479,0.13482
57.13372,0.12499
56.89265,0.12095
56.65158,0.12542
56.41051,0.13405
56.16944,0.13694
55.92837,0.12904
55.68730,0.11693
55.44623,0.11133
55.20516,0.11766
54.96409,0.13249
54.72302,0.14381
54.48195,0.14071
54.24088,0.12840
53.99980,0.12228
53.75873,0.13043
53.51766,0.14565
53.27659,0.15030
53.03552,0.14053
52.79445,0.13367
52.55338,0.14110
52.31231,0.15343
52.07124,0.15071
51.83017,0.13151
51.58910,0.11696
51.34803,0.11988
51.10696,0.12993
50.86589,0.12956
50.62482,0.12255
50.38375,0.12394
50.14268,0.13387
49.90161,0.13843
49.66053,0.13594
49.41946,0.13993
49.17839,0.14938
48.93732,0.14959
48.69625,0.14257
48.45518,0.14511
48.21411,0.15602
47.97304,0.15905
47.73197,0.15322
47.49090,0.14883
47.24983,0.14420
47.00876,0.13566
46.76769,0.13036
46.52662,0.12972
46.28555,0.12599
46.04448,0.11964
45.80341,0.11754
45.56234,0.12040
45.32126,0.12620
45.08019,0.13380
44.83912,0.13878
44.59805,0.13946
44.35698,0.14210
44.11591,0.14906
43.87484,0.15430
43.63377,0.15423
43.39270,0.15114
43.15163,0.14830
42.91056,0.14919
42.66949,0.15478
42.42842,0.16062
42.18735,0.16292
41.94628,0.16240
41.70521,0.16008
41.46414,0.15659
41.22307,0.15434
40.98199,0.15447
40.74092,0.15490
40.49985,0.15424
40.25878,0.15467
40.01771,0.15782
39.77664,0.16060
39.53557,0.16063
39.29450,0.16226
39.05343,0.17008
38.81236,0.17988
38.57129,0.18437
38.33022,0.18393
38.08915,0.18485
37.84808,0.18956
37.60701,0.19371
37.36594,0.19373
37.12487,0.19158
36.88380,0.19005
36.64272,0.18891
36.40165,0.18794
36.16058,0.18786
35.91951,0.18700
35.67844,0.18131
35.43737,0.16777
35.19630,0.14809
34.95523,0.12947
34.71416,0.12153
34.47309,0.12641
34.23202,0.13647
33.99095,0.13882
33.74988,0.11862
33.50881,0.07793
33.26774,0.04619
33.02667,0.04834
32.78560,0.06577
32.54453,0.06208
32.30345,0.04244
32.06238,0.04791
31.82131,0.08364
31.58024,0.12583
31.33917,0.15270
31.09810,0.14948
30.85703,0.11671
30.61596,0.06777
30.37489,0.02288
30.13382,-0.00221
29.89275,-0.01012
29.65168,-0.01657
29.41061,-0.03259
29.16954,-0.05989
28.92847,-0.09726
28.68740,-0.14255
28.44633,-0.18697
28.20526,-0.21835
27.96418,-0.23692
27.72311,-0.24669
27.48204,-0.23866
27.24097,-0.21051
26.99990,-0.18648
26.75883,-0.19579
26.51776,-0.23523
26.27669,-0.27113
26.03562,-0.29315
25.79455,-0.30267
25.55348,-0.28224
25.31241,-0.29833
25.07134,-0.30934
24.83027,-0.28682
24.58920,-0.24004
24.34813,-0.23089
24.10706,-0.28128
23.86599,-0.32703
23.62491,-0.30682
23.38384,-0.25927
23.14277,-0.25004
22.90170,-0.30290
22.66063,-0.36815
22.41956,-0.34318
22.17849,-0.30725
21.93742,-0.27924
21.69635,-0.25743
21.45528,-0.24998
21.21421,-0.25965
20.97314,-0.28646
20.73207,-0.32689
20.49100,-0.36065
20.24993,-0.36429
20.00886,-0.34485
19.76779,-0.33787
19.52672,-0.35613
19.28564,-0.36895
19.04457,-0.34817
18.80350,-0.32888
18.56243,-0.35185
18.32136,-0.42334
18.08029,-0.51191
17.83922,-0.54106
17.59815,-0.45478
17.35708,-0.34909
17.11601,-0.26955
16.87494,-0.23325
16.63387,-0.24102
16.39280,-0.29779
16.15173,-0.43325
15.91066,-0.68515
15.66959,-0.89221
15.42852,-0.60330
15.18745,-0.42517
14.94637,-0.38988
14.70530,-0.38177
14.46423,-0.30717
14.22316,-0.23571
13.98209,-0.17800
13.74102,-0.16729
13.49995,-0.21593
13.25888,-0.27467
13.01781,-0.27611
12.77674,-0.24773
12.53567,-0.20525
12.29460,-0.17474
12.05353,-0.19910
11.81246,-0.24043
11.57139,-0.20832
11.33032,-0.24689
11.08925,-0.36263
10.84818,-0.34609
10.60710,-0.31244
10.36603,-0.38446
10.12496,-0.45497
9.88389,-0.33065
9.64282,-0.15573
9.40175,-0.07576
9.16068,0.04868
8.91961,0.23060
8.67854,0.30875
8.43747,0.25114
8.19640,0.12817
7.95533,0.09243
7.71426,0.22348
7.47319,0.19927
7.23212,-0.00463
6.99105,-0.13705
6.74998,0.07128
6.50891,0.15660
6.26783,0.12304
6.02676,0.06815
5.78569,0.02322
5.54462,-0.01926
5.30355,-0.03408
5.06248,-0.08373
4.82141,-0.17265
4.58034,-0.26541
4.33927,-0.33583
4.09820,-0.38736
3.85713,-0.41872
3.61606,-0.44596
3.37499,-0.52371
3.13392,-0.60983
2.89285,-0.60723
2.65178,-0.52132
2.41071,-0.43146
2.16964,-0.35651
1.92856,-0.33467
1.68749,-0.38541
1.44642,-0.43247
1.20535,-0.39814
0.96428,-0.37475
0.72321,-0.38415
0.48214,-0.44810
0.24107,-0.54846
-0.00000,-0.56041
