399.69498,1.70128
399.45391,1.65814
399.21284,1.65225
398.97177,1.70106
398.73070,1.76559
398.48963,1.79393
398.24856,1.77918
398.00749,1.73631
397.76642,1.68913
397.52535,1.66704
397.28428,1.69374
397.04321,1.77456
396.80214,1.87657
396.56107,1.91273
396.32000,1.83653
396.07892,1.73633
395.83785,1.70535
395.59678,1.76565
395.35571,1.89217
395.11464,2.00508
394.87357,2.02480
394.63250,1.97842
394.39143,1.90984
394.15036,1.86493
393.90929,1.88337
393.66822,1.98138
393.42715,2.07534
393.18608,2.00032
392.94501,1.89203
392.70394,1.86165
392.46287,1.89396
392.22180,1.95473
391.98073,2.03896
391.73965,2.14301
391.49858,2.20533
391.25751,2.21096
391.01644,2.25617
390.77537,2.31256
390.53430,2.27278
390.29323,2.21911
390.05216,2.24408
389.81109,2.33903
389.57002,2.29788
389.32895,2.30320
389.08788,2.20827
388.84681,2.12989
388.60574,2.16760
388.36467,2.23472
388.12360,2.21021
387.88253,2.33902
387.64146,2.51506
387.40038,2.40017
387.15931,2.22257
386.91824,2.14636
386.67717,2.20044
386.43610,2.34478
386.19503,2.37250
385.95396,2.43100
385.71289,2.44728
385.47182,2.27808
385.23075,2.19229
384.98968,2.17821
384.74861,2.22213
384.50754,2.10582
384.26647,1.89194
384.02540,1.79180
383.78433,1.77397
383.54326,1.84226
383.30219,1.94118
383.06111,1.98467
382.82004,2.15864
382.57897,2.49531
382.33790,2.37881
382.09683,2.28106
381.85576,2.17523
381.61469,2.25071
381.37362,2.22973
381.13255,1.90467
380.89148,1.72343
380.65041,1.72559
380.40934,1.88520
380.16827,2.13439
379.92720,2.10400
379.68613,1.88991
379.44506,1.80112
379.20399,1.81894
378.96292,1.87555
378.72184,2.00982
378.48077,2.13387
378.23970,2.13549
377.99863,2.28557
377.75756,2.57530
377.51649,2.64397
377.27542,2.20080
377.03435,1.97964
376.79328,1.94655
376.55221,2.04779
376.31114,2.19057
376.07007,1.99179
375.82900,1.90052
375.58793,1.90709
375.34686,1.94455
375.10579,2.07141
374.86472,2.40084
374.62365,2.67966
374.38257,2.43895
374.14150,2.37992
373.90043,2.29548
373.65936,2.11059
373.41829,2.00470
373.17722,1.97801
372.93615,1.99972
372.69508,2.03862
372.45401,2.00680
372.21294,1.90258
371.97187,1.78266
371.73080,1.71784
371.48973,1.71863
371.24866,1.74045
371.00759,1.73871
370.76652,1.70757
370.52545,1.64993
370.28437,1.57313
370.04330,1.50326
369.80223,1.45845
369.56116,1.43531
369.32009,1.42494
369.07902,1.43069
368.83795,1.45707
368.59688,1.49104
368.35581,1.50597
368.11474,1.48983
367.87367,1.46079
367.63260,1.44337
367.39153,1.45012
367.15046,1.47639
366.90939,1.50321
366.66832,1.50168
366.42725,1.46235
366.18618,1.41014
365.94510,1.37429
365.70403,1.36948
365.46296,1.39055
365.22189,1.41731
364.98082,1.43047
364.73975,1.42490
364.49868,1.40624
364.25761,1.38624
364.01654,1.37763
363.77547,1.38495
363.53440,1.40209
363.29333,1.41857
363.05226,1.43129
362.81119,1.44591
362.57012,1.45720
362.32905,1.45288
362.08798,1.43178
361.84691,1.40655
361.60583,1.39428
361.36476,1.40140
361.12369,1.42225
360.88262,1.43887
360.64155,1.43312
360.40048,1.40992
360.15941,1.39106
359.91834,1.38915
359.67727,1.39562
359.43620,1.39697
359.19513,1.39163
358.95406,1.37952
358.71299,1.36042
358.47192,1.34215
358.23085,1.33168
357.98978,1.32993
357.74871,1.33775
357.50764,1.35341
357.26656,1.37238
357.02549,1.38817
356.78442,1.39259
356.54335,1.38573
356.30228,1.37566
356.06121,1.36793
355.82014,1.36365
355.57907,1.36192
355.33800,1.36043
355.09693,1.35725
354.85586,1.34927
354.61479,1.33411
354.37372,1.31468
354.13265,1.30530
353.89158,1.32299
353.65051,1.36571
353.40944,1.40897
353.16837,1.42803
352.92729,1.41996
352.68622,1.39985
352.44515,1.38583
352.20408,1.38892
351.96301,1.40716
351.72194,1.42433
351.48087,1.42630
351.23980,1.41779
350.99873,1.40889
350.75766,1.40146
350.51659,1.39480
350.27552,1.39053
350.03445,1.38351
349.79338,1.36249
349.55231,1.33754
349.31124,1.33047
349.07017,1.34752
348.82910,1.38211
348.58802,1.42435
348.34695,1.45848
348.10588,1.47402
347.86481,1.47463
347.62374,1.46752
347.38267,1.46299
347.14160,1.46386
346.90053,1.46323
346.65946,1.46005
346.41839,1.46239
346.17732,1.47496
345.93625,1.49204
345.69518,1.50053
345.45411,1.49273
345.21304,1.47137
344.97197,1.44660
344.73090,1.43725
344.48983,1.44705
344.24875,1.46281
344.00768,1.47895
343.76661,1.49314
343.52554,1.49303
343.28447,1.47372
343.04340,1.44803
342.80233,1.44590
342.56126,1.48932
342.32019,1.56608
342.07912,1.63486
341.83805,1.65951
341.59698,1.64587
341.35591,1.62957
341.11484,1.63109
340.87377,1.65173
340.63270,1.68100
340.39163,1.68968
340.15056,1.66968
339.90948,1.65145
339.66841,1.66770
339.42734,1.72373
339.18627,1.78426
338.94520,1.80532
338.70413,1.80233
338.46306,1.79636
338.22199,1.79783
337.98092,1.82789
337.73985,1.87756
337.49878,1.93895
337.25771,2.00875
337.01664,2.05086
336.77557,2.09125
336.53450,2.03855
336.29343,1.91638
336.05236,1.86836
335.81129,1.90604
335.57021,1.96067
335.32914,1.99290
335.08807,2.01335
334.84700,1.96539
334.60593,1.86129
334.36486,1.77565
334.12379,1.72621
333.88272,1.71246
333.64165,1.72370
333.40058,1.73434
333.15951,1.73760
332.91844,1.75425
332.67737,1.79054
332.43630,1.81126
332.19523,1.78987
331.95416,1.77431
331.71309,1.81852
331.47202,1.86803
331.23094,1.84981
330.98987,1.82032
330.74880,1.80024
330.50773,1.78518
330.26666,1.75994
330.02559,1.75563
329.78452,1.79712
329.54345,1.84315
329.30238,1.84495
329.06131,1.77064
328.82024,1.67543
328.57917,1.62245
328.33810,1.62215
328.09703,1.66296
327.85596,1.69708
327.61489,1.68168
327.37382,1.63738
327.13275,1.59675
326.89167,1.58984
326.65060,1.62841
326.40953,1.69970
326.16846,1.75704
325.92739,1.73647
325.68632,1.64599
325.44525,1.56968
325.20418,1.56909
324.96311,1.63541
324.72204,1.73455
324.48097,1.82481
324.23990,1.80915
323.99883,1.74905
323.75776,1.72444
323.51669,1.74445
323.27562,1.79890
323.03455,1.83446
322.79348,1.80466
322.55240,1.75626
322.31133,1.74383
322.07026,1.72071
321.82919,1.66839
321.58812,1.65391
321.34705,1.68205
321.10598,1.71384
320.86491,1.77106
320.62384,1.88332
320.38277,1.95394
320.14170,2.01266
319.90063,2.30766
319.65956,2.51572
319.41849,2.22203
319.17742,2.11108
318.93635,2.08859
318.69528,1.95999
318.45421,1.86422
318.21313,1.85595
317.97206,1.89776
317.73099,1.95063
317.48992,2.02294
317.24885,2.09746
317.00778,2.03575
316.76671,1.90183
316.52564,1.84225
316.28457,1.84870
316.04350,1.85539
315.80243,1.84434
315.56136,1.84195
315.32029,1.83138
315.07922,1.77993
314.83815,1.71368
314.59708,1.67827
314.35601,1.68727
314.11494,1.73062
313.87386,1.81716
313.63279,2.00907
313.39172,2.27344
313.15065,2.18697
312.90958,2.09436
312.66851,2.11762
312.42744,2.11100
312.18637,2.03666
311.94530,1.99826
311.70423,2.03835
311.46316,2.09865
311.22209,1.91250
310.98102,1.82230
310.73995,1.82755
310.49888,1.86547
310.25781,1.94324
310.01674,2.06224
309.77567,2.10339
309.53459,2.03690
309.29352,2.03360
309.05245,2.12767
308.81138,2.26151
308.57031,2.41398
308.32924,2.58675
308.08817,2.40268
307.84710,2.12517
307.60603,2.00561
307.36496,1.97672
307.12389,1.99125
306.88282,1.99742
306.64175,1.94634
306.40068,1.89560
306.15961,1.92567
305.91854,1.99315
305.67747,1.98043
305.43640,1.88457
305.19532,1.78500
304.95425,1.75256
304.71318,1.76267
304.47211,1.75188
304.23104,1.67185
303.98997,1.55211
303.74890,1.46552
303.50783,1.42706
303.26676,1.40501
303.02569,1.37373
302.78462,1.34766
302.54355,1.35293
302.30248,1.38624
302.06141,1.41623
301.82034,1.41262
301.57927,1.37081
301.33820,1.31307
301.09713,1.27116
300.85605,1.26222
300.61498,1.27637
300.37391,1.28953
300.13284,1.29135
299.89177,1.28624
299.65070,1.27619
299.40963,1.26443
299.16856,1.25825
298.92749,1.26057
298.68642,1.26741
298.44535,1.27029
298.20428,1.25961
297.96321,1.23255
297.72214,1.19797
297.48107,1.16828
297.24000,1.15091
296.99893,1.14795
296.75786,1.15758
296.51678,1.17260
296.27571,1.18145
296.03464,1.17625
295.79357,1.15976
295.55250,1.14276
295.31143,1.13463
295.07036,1.13812
294.82929,1.14840
294.58822,1.15381
294.34715,1.14647
294.10608,1.13169
293.86501,1.11994
293.62394,1.11506
293.38287,1.11323
293.14180,1.11190
292.90073,1.11244
292.65966,1.11378
292.41859,1.11214
292.17751,1.10871
291.93644,1.10783
291.69537,1.10586
291.45430,1.09444
291.21323,1.07614
290.97216,1.06498
290.73109,1.06950
290.49002,1.08223
290.24895,1.08759
290.00788,1.07970
289.76681,1.06751
289.52574,1.06099
289.28467,1.06139
289.04360,1.06511
288.80253,1.07033
288.56146,1.07730
288.32039,1.08465
288.07932,1.08868
287.83824,1.08512
287.59717,1.07192
287.35610,1.05238
287.11503,1.03414
286.87396,1.02346
286.63289,1.02052
286.39182,1.02038
286.15075,1.01898
285.90968,1.01787
285.66861,1.02154
285.42754,1.02952
285.18647,1.03472
284.94540,1.03257
284.70433,1.02811
284.46326,1.02844
284.22219,1.03258
283.98112,1.03435
283.74005,1.03184
283.49897,1.02834
283.25790,1.02680
283.01683,1.02757
282.77576,1.02848
282.53469,1.02692
282.29362,1.02326
282.05255,1.02021
281.81148,1.01915
281.57041,1.02028
281.32934,1.02539
281.08827,1.03549
280.84720,1.04447
280.60613,1.04230
280.36506,1.02811
280.12399,1.01228
279.88292,1.00390
279.64185,1.00357
279.40078,1.00642
279.15970,1.00680
278.91863,1.00209
278.67756,0.99606
278.43649,0.99579
278.19542,1.00356
277.95435,1.01363
277.71328,1.01775
277.47221,1.01396
277.23114,1.00842
276.99007,1.00737
276.74900,1.00919
276.50793,1.00847
276.26686,1.00603
276.02579,1.00837
275.78472,1.01639
275.54365,1.02105
275.30258,1.01431
275.06151,1.00016
274.82043,0.98907
274.57936,0.98515
274.33829,0.98513
274.09722,0.98682
273.85615,0.99251
273.61508,1.00435
273.37401,1.01883
273.13294,1.02746
272.89187,1.02395
272.65080,1.01223
272.40973,1.00421
272.16866,1.00780
271.92759,1.01957
271.68652,1.02960
271.44545,1.03294
271.20438,1.03245
270.96331,1.03081
270.72224,1.02911
270.48116,1.03037
270.24009,1.03627
269.99902,1.04354
269.75795,1.04832
269.51688,1.05128
269.27581,1.05628
269.03474,1.06513
268.79367,1.07413
268.55260,1.07780
268.31153,1.07465
268.07046,1.06876
267.82939,1.06553
267.58832,1.06561
267.34725,1.06644
267.10618,1.06819
266.86511,1.07373
266.62404,1.08269
266.38297,1.08994
266.14189,1.09259
265.90082,1.09524
265.65975,1.10448
265.41868,1.12042
265.17761,1.13707
264.93654,1.15056
264.69547,1.16151
264.45440,1.17064
264.21333,1.17847
263.97226,1.18710
263.73119,1.19784
263.49012,1.20638
263.24905,1.20567
263.00798,1.19692
262.76691,1.19104
262.52584,1.19615
262.28477,1.20963
262.04370,1.22405
261.80262,1.23690
261.56155,1.25102
261.32048,1.26689
261.07941,1.27997
260.83834,1.28595
260.59727,1.28766
260.35620,1.29526
260.11513,1.31617
259.87406,1.34787
259.63299,1.37819
259.39192,1.39595
259.15085,1.40554
258.90978,1.41497
258.66871,1.42682
258.42764,1.44438
258.18657,1.47013
257.94550,1.50322
257.70443,1.53814
257.46335,1.56712
257.22228,1.59474
256.98121,1.63443
256.74014,1.68208
256.49907,1.71228
256.25800,1.70749
256.01693,1.68111
255.77586,1.66332
255.53479,1.67757
255.29372,1.73157
255.05265,1.81684
254.81158,1.90499
254.57051,1.96096
254.32944,1.99034
254.08837,2.02716
253.84730,2.08287
253.60623,2.11245
253.36516,2.08944
253.12408,2.08446
252.88301,2.10533
252.64194,2.10566
252.40087,2.09714
252.15980,2.19977
251.91873,2.29587
251.67766,2.33856
251.43659,2.28273
251.19552,2.19198
250.95445,2.23397
250.71338,2.47715
250.47231,2.76459
250.23124,2.90021
249.99017,2.95135
249.74910,2.60289
249.50803,2.35144
249.26696,2.28399
249.02589,2.28865
248.78481,2.27423
248.54374,2.24131
248.30267,2.33327
248.06160,2.50387
247.82053,2.42603
247.57946,2.34371
247.33839,2.32570
247.09732,2.34048
246.85625,2.33553
246.61518,2.30132
246.37411,2.20979
246.13304,2.05081
245.89197,1.92726
245.65090,1.88308
245.40983,1.90009
245.16876,1.93709
244.92769,1.94539
244.68661,1.90694
244.44554,1.86400
244.20447,1.85106
243.96340,1.83687
243.72233,1.76239
243.48126,1.65407
243.24019,1.54522
242.99912,1.45299
242.75805,1.38613
242.51698,1.34144
242.27591,1.31180
242.03484,1.28844
241.79377,1.26115
241.55270,1.22485
241.31163,1.18383
241.07056,1.14537
240.82949,1.11152
240.58842,1.07902
240.34734,1.04519
240.10627,1.01127
239.86520,0.98065
239.62413,0.95453
239.38306,0.93045
239.14199,0.90675
238.90092,0.88541
238.65985,0.86920
238.41878,0.85791
238.17771,0.84865
237.93664,0.83777
237.69557,0.82230
237.45450,0.80224
237.21343,0.78225
236.97236,0.76798
236.73129,0.76082
236.49022,0.75790
236.24915,0.75555
236.00807,0.75120
235.76700,0.74357
235.52593,0.73357
235.28486,0.72382
235.04379,0.71603
234.80272,0.70976
234.56165,0.70412
234.32058,0.69958
234.07951,0.69776
233.83844,0.69913
233.59737,0.70168
233.35630,0.70255
233.11523,0.70076
232.87416,0.69729
232.63309,0.69315
232.39202,0.68870
232.15095,0.68422
231.90988,0.68077
231.66880,0.67965
231.42773,0.68034
231.18666,0.67966
230.94559,0.67579
230.70452,0.67160
230.46345,0.67044
230.22238,0.67096
229.98131,0.67018
229.74024,0.66883
229.49917,0.66974
229.25810,0.67361
229.01703,0.67914
228.77596,0.68426
228.53489,0.68596
228.29382,0.68272
228.05275,0.67744
227.81168,0.67419
227.57061,0.67318
227.32953,0.67240
227.08846,0.67145
226.84739,0.67049
226.60632,0.66866
226.36525,0.66611
226.12418,0.66493
225.88311,0.66662
225.64204,0.67044
225.40097,0.67485
225.15990,0.67855
224.91883,0.68042
224.67776,0.68020
224.43669,0.67972
224.19562,0.68198
223.95455,0.68820
223.71348,0.69570
223.47241,0.69992
223.23134,0.69923
222.99026,0.69673
222.74919,0.69639
222.50812,0.69955
222.26705,0.70541
222.02598,0.71329
221.78491,0.72260
221.54384,0.73193
221.30277,0.73951
221.06170,0.74437
220.82063,0.74740
220.57956,0.75084
220.33849,0.75604
220.09742,0.76312
219.85635,0.77295
219.61528,0.78616
219.37421,0.80011
219.13314,0.81104
218.89207,0.81927
218.65099,0.82842
218.40992,0.84036
218.16885,0.85405
217.92778,0.86779
217.68671,0.88036
217.44564,0.89075
217.20457,0.89809
216.96350,0.90263
216.72243,0.90713
216.48136,0.91519
216.24029,0.92743
215.99922,0.94137
215.75815,0.95524
215.51708,0.96938
215.27601,0.98386
215.03494,0.99784
214.79387,1.01048
214.55280,1.01966
214.31172,1.02204
214.07065,1.01759
213.82958,1.01281
213.58851,1.01578
213.34744,1.02847
213.10637,1.04619
212.86530,1.06199
212.62423,1.07182
212.38316,1.07676
212.14209,1.07977
211.90102,1.08279
211.65995,1.08720
211.41888,1.09377
211.17781,1.10097
210.93674,1.10525
210.69567,1.10519
210.45460,1.10377
210.21353,1.10310
209.97245,1.10059
209.73138,1.09315
209.49031,1.08246
209.24924,1.07477
209.00817,1.07585
208.76710,1.08423
208.52603,1.08989
208.28496,1.08434
208.04389,1.07091
207.80282,1.05899
207.56175,1.05317
207.32068,1.05116
207.07961,1.04806
206.83854,1.04238
206.59747,1.03646
206.35640,1.03070
206.11533,1.02197
205.87426,1.01063
205.63318,1.00311
205.39211,1.00267
205.15104,1.00273
204.90997,0.99372
204.66890,0.97495
204.42783,0.95460
204.18676,0.93956
203.94569,0.92938
203.70462,0.91824
203.46355,0.90262
203.22248,0.88541
202.98141,0.87112
202.74034,0.86019
202.49927,0.84882
202.25820,0.83414
202.01713,0.81808
201.77606,0.80431
201.53499,0.79353
201.29391,0.78319
201.05284,0.77065
200.81177,0.75594
200.57070,0.74192
200.32963,0.73149
200.08856,0.72452
199.84749,0.71819
199.60642,0.71005
199.36535,0.69935
199.12428,0.68627
198.88321,0.67233
198.64214,0.65967
198.40107,0.64894
198.16000,0.64018
197.91893,0.63444
197.67786,0.63187
197.43679,0.62953
197.19572,0.62422
196.95464,0.61600
196.71357,0.60684
196.47250,0.59774
196.23143,0.58878
195.99036,0.58008
195.74929,0.57155
195.50822,0.56339
195.26715,0.55728
195.02608,0.55504
194.78501,0.55545
194.54394,0.55452
194.30287,0.54986
194.06180,0.54260
193.82073,0.53467
193.57966,0.52685
193.33859,0.52006
193.09752,0.51529
192.85645,0.51166
192.61537,0.50710
192.37430,0.50157
192.13323,0.49714
191.89216,0.49486
191.65109,0.49362
191.41002,0.49223
191.16895,0.49024
190.92788,0.48720
190.68681,0.48343
190.44574,0.48099
190.20467,0.48142
189.96360,0.48320
189.72253,0.48289
189.48146,0.47865
189.24039,0.47229
188.99932,0.46750
188.75825,0.46633
188.51718,0.46762
188.27610,0.46887
188.03503,0.46864
187.79396,0.46684
187.55289,0.46387
187.31182,0.46044
187.07075,0.45746
186.82968,0.45555
186.58861,0.45451
186.34754,0.45351
186.10647,0.45234
185.86540,0.45208
185.62433,0.45354
185.38326,0.45607
185.14219,0.45888
184.90112,0.46183
184.66005,0.46415
184.41898,0.46494
184.17791,0.46558
183.93683,0.46865
183.69576,0.47406
183.45469,0.47889
183.21362,0.48150
182.97255,0.48286
182.73148,0.48377
182.49041,0.48349
182.24934,0.48177
182.00827,0.47977
181.76720,0.47865
181.52613,0.47860
181.28506,0.47945
181.04399,0.48144
180.80292,0.48459
180.56185,0.48786
180.32078,0.49006
180.07971,0.49155
179.83864,0.49382
179.59756,0.49727
179.35649,0.50097
179.11542,0.50475
178.87435,0.50998
178.63328,0.51791
178.39221,0.52816
178.15114,0.53904
177.91007,0.54925
177.66900,0.55901
177.42793,0.56871
177.18686,0.57746
176.94579,0.58477
176.70472,0.59282
176.46365,0.60515
176.22258,0.62334
175.98151,0.64584
175.74044,0.66850
175.49937,0.68731
175.25829,0.70225
175.01722,0.71702
174.77615,0.73436
174.53508,0.75358
174.29401,0.77285
174.05294,0.79178
173.81187,0.80987
173.57080,0.82511
173.32973,0.83766
173.08866,0.85097
172.84759,0.86496
172.60652,0.87378
172.36545,0.87513
172.12438,0.87528
171.88331,0.88034
171.64224,0.88843
171.40117,0.89285
171.16010,0.88994
170.91902,0.88280
170.67795,0.87757
170.43688,0.87661
170.19581,0.87617
169.95474,0.87123
169.71367,0.86122
169.47260,0.85062
169.23153,0.84469
168.99046,0.84371
168.74939,0.84220
168.50832,0.83549
168.26725,0.82490
168.02618,0.81434
167.78511,0.80573
167.54404,0.79965
167.30297,0.79749
167.06190,0.80016
166.82083,0.80505
166.57975,0.80762
166.33868,0.80839
166.09761,0.81373
165.85654,0.82591
165.61547,0.83735
165.37440,0.84002
165.13333,0.83772
164.89226,0.84243
164.65119,0.85905
164.41012,0.87862
164.16905,0.88995
163.92798,0.89543
163.68691,0.90555
163.44584,0.92235
163.20477,0.93833
162.96370,0.94730
162.72263,0.94972
162.48156,0.95042
162.24048,0.95386
161.99941,0.96018
161.75834,0.96636
161.51727,0.97109
161.27620,0.97403
161.03513,0.97158
160.79406,0.96089
160.55299,0.94629
160.31192,0.93520
160.07085,0.93059
159.82978,0.93076
159.58871,0.93275
159.34764,0.93403
159.10657,0.93284
158.86550,0.92845
158.62443,0.92086
158.38336,0.91061
158.14229,0.90024
157.90121,0.89397
157.66014,0.89347
157.41907,0.89471
157.17800,0.89211
156.93693,0.88503
156.69586,0.87735
156.45479,0.87205
156.21372,0.86830
155.97265,0.86350
155.73158,0.85657
155.49051,0.84941
155.24944,0.84366
155.00837,0.83685
154.76730,0.82420
154.52623,0.80485
154.28516,0.78409
154.04409,0.76842
153.80302,0.75917
153.56194,0.75241
153.32087,0.74451
153.07980,0.73518
152.83873,0.72443
152.59766,0.71061
152.35659,0.69290
152.11552,0.67279
151.87445,0.65269
151.63338,0.63436
151.39231,0.61822
151.15124,0.60347
150.91017,0.58979
150.66910,0.57810
150.42803,0.56851
150.18696,0.55876
149.94589,0.54652
149.70482,0.53230
149.46375,0.51881
149.22267,0.50780
148.98160,0.49881
148.74053,0.49080
148.49946,0.48367
148.25839,0.47768
148.01732,0.47246
147.77625,0.46758
147.53518,0.46368
147.29411,0.46189
147.05304,0.46240
146.81197,0.46395
146.57090,0.46494
146.32983,0.46508
146.08876,0.46573
145.84769,0.46858
145.60662,0.47397
145.36555,0.48040
145.12448,0.48599
144.88340,0.48999
144.64233,0.49309
144.40126,0.49655
144.16019,0.50106
143.91912,0.50592
143.67805,0.50944
143.43698,0.51038
143.19591,0.50870
142.95484,0.50438
142.71377,0.49688
142.47270,0.48668
142.23163,0.47581
141.99056,0.46609
141.74949,0.45800
141.50842,0.45126
141.26735,0.44545
141.02628,0.44008
140.78521,0.43485
140.54413,0.42983
140.30306,0.42537
140.06199,0.42241
139.82092,0.42253
139.57985,0.42680
139.33878,0.43461
139.09771,0.44382
138.85664,0.45215
138.61557,0.45857
138.37450,0.46364
138.13343,0.46873
137.89236,0.47528
137.65129,0.48454
137.41022,0.49733
137.16915,0.51375
136.92808,0.53309
136.68701,0.55389
136.44594,0.57453
136.20486,0.59451
135.96379,0.61516
135.72272,0.63858
135.48165,0.66521
135.24058,0.69254
134.99951,0.71787
134.75844,0.74197
134.51737,0.76820
134.27630,0.79773
134.03523,0.82823
133.79416,0.85766
133.55309,0.88626
133.31202,0.91303
133.07095,0.93401
132.82988,0.94678
132.58881,0.95398
132.34774,0.95880
132.10667,0.96028
131.86559,0.95770
131.62452,0.95448
131.38345,0.95124
131.14238,0.94083
130.90131,0.91709
130.66024,0.88478
130.41917,0.85431
130.17810,0.83047
129.93703,0.81059
129.69596,0.78968
129.45489,0.76404
129.21382,0.73223
128.97275,0.69613
128.73168,0.66018
128.49061,0.62684
128.24954,0.59525
128.00847,0.56567
127.76740,0.54135
127.52632,0.52405
127.28525,0.51051
127.04418,0.49488
126.80311,0.47405
126.56204,0.45000
126.32097,0.42805
126.07990,0.41292
125.83883,0.40492
125.59776,0.39919
125.35669,0.39015
125.11562,0.37740
124.87455,0.36563
124.63348,0.35846
124.39241,0.35462
124.15134,0.35035
123.91027,0.34387
123.66920,0.33681
123.42812,0.33199
123.18705,0.33053
122.94598,0.33106
122.70491,0.33134
122.46384,0.33036
122.22277,0.32866
121.98170,0.32742
121.74063,0.32715
121.49956,0.32793
121.25849,0.33097
121.01742,0.33831
120.77635,0.34976
120.53528,0.36203
120.29421,0.37224
120.05314,0.38108
119.81207,0.39163
119.57100,0.40562
119.32993,0.42224
119.08885,0.44068
118.84778,0.46277
118.60671,0.49088
118.36564,0.52286
118.12457,0.55248
117.88350,0.57616
117.64243,0.59520
117.40136,0.61036
117.16029,0.62003
116.91922,0.62479
116.67815,0.62838
116.43708,0.63194
116.19601,0.63094
115.95494,0.62037
115.71387,0.60212
115.47280,0.58398
115.23173,0.57100
114.99066,0.56097
114.74958,0.54869
114.50851,0.53274
114.26744,0.51748
114.02637,0.50826
113.78530,0.50567
113.54423,0.50607
113.30316,0.50761
113.06209,0.51227
112.82102,0.52094
112.57995,0.53035
112.33888,0.53762
112.09781,0.54404
111.85674,0.55053
111.61567,0.55478
111.37460,0.55591
111.13353,0.55661
110.89246,0.55837
110.65139,0.55975
110.41031,0.56015
110.16924,0.56014
109.92817,0.55876
109.68710,0.55447
109.44603,0.54642
109.20496,0.53287
108.96389,0.51251
108.72282,0.48794
108.48175,0.46413
108.24068,0.44398
107.99961,0.42689
107.75854,0.41044
107.51747,0.39260
107.27640,0.37376
107.03533,0.35686
106.79426,0.34392
106.55319,0.33336
106.31212,0.32275
106.07104,0.31237
105.82997,0.30369
105.58890,0.29598
105.34783,0.28692
105.10676,0.27616
104.86569,0.26576
104.62462,0.25712
104.38355,0.24954
104.14248,0.24221
103.90141,0.23629
103.66034,0.23356
103.41927,0.23340
103.17820,0.23261
102.93713,0.22892
102.69606,0.22334
102.45499,0.21796
102.21392,0.21341
101.97285,0.20938
101.73177,0.20569
101.49070,0.20202
101.24963,0.19805
101.00856,0.19363
100.76749,0.18859
100.52642,0.18324
100.28535,0.17901
100.04428,0.17722
99.80321,0.17724
99.56214,0.17728
99.32107,0.17652
99.08000,0.17562
98.83893,0.17555
98.59786,0.17653
98.35679,0.17777
98.11572,0.17845
97.87465,0.17913
97.63358,0.18090
97.39250,0.18305
97.15143,0.18358
96.91036,0.18278
96.66929,0.18382
96.42822,0.18924
96.18715,0.19868
95.94608,0.20977
95.70501,0.21961
95.46394,0.22614
95.22287,0.22998
94.98180,0.23407
94.74073,0.23985
94.49966,0.24534
94.25859,0.24783
94.01752,0.24741
93.77645,0.24666
93.53538,0.24761
93.29431,0.24972
93.05323,0.25080
92.81216,0.24965
92.57109,0.24767
92.33002,0.24733
92.08895,0.24946
91.84788,0.25308
91.60681,0.25804
91.36574,0.26612
91.12467,0.27903
90.88360,0.29679
90.64253,0.31948
90.40146,0.34856
90.16039,0.38429
89.91932,0.42323
89.67825,0.45999
89.43718,0.49178
89.19611,0.51982
88.95504,0.54487
88.71396,0.56289
88.47289,0.56715
88.23182,0.55384
87.99075,0.52506
87.74968,0.48760
87.50861,0.44827
87.26754,0.40989
87.02647,0.37229
86.78540,0.33646
86.54433,0.30569
86.30326,0.28208
86.06219,0.26355
85.82112,0.24567
85.58005,0.22636
85.33898,0.20723
85.09791,0.19096
84.85684,0.17889
84.61577,0.17041
84.37469,0.16308
84.13362,0.15454
83.89255,0.14537
83.65148,0.13865
83.41041,0.13590
83.16934,0.13513
82.92827,0.13375
82.68720,0.13151
82.44613,0.12924
82.20506,0.12664
81.96399,0.12306
81.72292,0.11937
81.48185,0.11696
81.24078,0.11554
80.99971,0.11360
80.75864,0.11073
80.51757,0.10773
80.27650,0.10511
80.03542,0.10283
79.79435,0.10085
79.55328,0.09910
79.31221,0.09746
79.07114,0.09600
78.83007,0.09483
78.58900,0.09401
78.34793,0.09392
78.10686,0.09452
77.86579,0.09458
77.62472,0.09307
77.38365,0.09073
77.14258,0.08929
76.90151,0.08929
76.66044,0.08962
76.41937,0.08923
76.17830,0.08874
75.93723,0.08943
75.69615,0.09076
75.45508,0.09039
75.21401,0.08728
74.97294,0.08323
74.73187,0.08084
74.49080,0.08093
74.24973,0.08229
74.00866,0.08328
73.76759,0.08329
73.52652,0.08258
73.28545,0.08137
73.04438,0.07993
72.80331,0.07930
72.56224,0.08036
72.32117,0.08223
72.08010,0.08333
71.83903,0.08397
71.59796,0.08585
71.35688,0.08872
71.11581,0.09030
70.87474,0.09033
70.63367,0.09203
70.39260,0.09857
70.15153,0.10985
69.91046,0.12396
69.66939,0.13944
69.42832,0.15440
69.18725,0.16456
68.94618,0.16549
68.70511,0.15729
68.46404,0.14487
68.22297,0.13266
67.98190,0.12151
67.74083,0.11115
67.49976,0.10236
67.25869,0.09528
67.01761,0.08851
66.77654,0.08181
66.53547,0.07725
66.29440,0.07590
66.05333,0.07598
65.81226,0.07569
65.57119,0.07493
65.33012,0.07426
65.08905,0.07451
64.84798,0.07707
64.60691,0.08272
64.36584,0.09022
64.12477,0.09673
63.88370,0.09965
63.64263,0.09829
63.40156,0.09357
63.16049,0.08676
62.91942,0.07964
62.67834,0.07488
62.43727,0.07394
62.19620,0.07516
61.95513,0.07554
61.71406,0.07329
61.47299,0.06822
61.23192,0.06132
60.99085,0.05459
60.74978,0.05022
60.50871,0.04958
60.26764,0.05248
60.02657,0.05699
59.78550,0.06050
59.54443,0.06207
59.30336,0.06331
59.06229,0.06597
58.82122,0.06933
58.58015,0.07092
58.33907,0.06974
58.09800,0.06737
57.85693,0.06528
57.61586,0.06255
57.37479,0.05772
57.13372,0.05156
56.89265,0.04676
56.65158,0.04487
56.41051,0.04423
56.16944,0.04227
55.92837,0.03981
55.68730,0.04051
55.44623,0.04479
55.20516,0.04797
54.96409,0.04643
54.72302,0.04187
54.48195,0.03782
54.24088,0.03650
53.99980,0.03954
53.75873,0.04622
53.51766,0.05161
53.27659,0.05127
53.03552,0.04670
52.79445,0.04314
52.55338,0.04406
52.31231,0.04881
52.07124,0.05365
51.83017,0.05522
51.58910,0.05432
51.34803,0.05479
51.10696,0.05766
50.86589,0.05942
50.62482,0.05666
50.38375,0.05027
50.14268,0.04428
49.90161,0.04159
49.66053,0.04081
49.41946,0.03753
49.17839,0.02906
48.93732,0.01829
48.69625,0.01244
48.45518,0.01601
48.21411,0.02490
47.97304,0.03004
47.73197,0.02730
47.49090,0.02085
47.24983,0.01565
47.00876,0.01175
46.76769,0.00790
46.52662,0.00510
46.28555,0.00408
46.04448,0.00387
45.80341,0.00478
45.56234,0.00840
45.32126,0.01265
45.08019,0.01158
44.83912,0.00253
44.59805,-0.00989
44.35698,-0.01916
44.11591,-0.02324
43.87484,-0.02436
43.63377,-0.02527
43.39270,-0.02577
43.15163,-0.02269
42.91056,-0.01419
42.66949,-0.00332
42.42842,0.00442
42.18735,0.00568
41.94628,0.00081
41.70521,-0.00552
41.46414,-0.00760
41.22307,-0.00468
40.98199,-0.00065
40.74092,0.00214
40.49985,0.00185
40.25878,-0.00639
40.01771,-0.02292
39.77664,-0.03806
39.53557,-0.04285
39.29450,-0.03921
39.05343,-0.03219
38.81236,-0.02132
38.57129,-0.00827
38.33022,0.00020
38.08915,0.00229
37.84808,0.00256
37.60701,0.00143
37.36594,-0.00402
37.12487,-0.00727
36.88380,0.00238
36.64272,0.02056
36.40165,0.02867
36.16058,0.01925
35.91951,0.00408
35.67844,-0.00719
35.43737,-0.01966
35.19630,-0.03705
34.95523,-0.04615
34.71416,-0.03613
34.47309,-0.01905
34.23202,-0.00994
33.99095,-0.00385
33.74988,0.01037
33.50881,0.02241
33.26774,0.01294
33.02667,-0.00891
32.78560,-0.00547
32.54453,0.04670
32.30345,0.10939
32.06238,0.12038
31.82131,0.08036
31.58024,0.03723
31.33917,0.02021
31.09810,0.02189
30.85703,0.02468
30.61596,0.02472
30.37489,0.02614
30.13382,0.03060
29.89275,0.03845
29.65168,0.04557
29.41061,0.04301
29.16954,0.02521
28.92847,-0.00128
28.68740,-0.00834
28.44633,0.03469
28.20526,0.12046
27.96418,0.19823
27.72311,0.22339
27.48204,0.20533
27.24097,0.18271
26.99990,0.17881
26.75883,0.17938
26.51776,0.15093
26.27669,0.10954
26.03562,0.10428
25.79455,0.12472
25.55348,0.12522
25.31241,0.10385
25.07134,0.09951
24.83027,0.12222
24.58920,0.14038
24.34813,0.14314
24.10706,0.13808
23.86599,0.12028
23.62491,0.09711
23.38384,0.10577
23.14277,0.18294
22.90170,0.31219
22.66063,0.40641
22.41956,0.37505
22.17849,0.32209
21.93742,0.30992
21.69635,0.31781
21.45528,0.34348
21.21421,0.43032
20.97314,0.60370
20.73207,0.75092
20.49100,0.72688
20.24993,0.58135
20.00886,0.42654
19.76779,0.34468
19.52672,0.35103
19.28564,0.38560
19.04457,0.41448
18.80350,0.42057
18.56243,0.38195
18.32136,0.32278
18.08029,0.34171
17.83922,0.43432
17.59815,0.40225
17.35708,0.30457
17.11601,0.32740
16.87494,0.42108
16.63387,0.42601
16.39280,0.38687
16.15173,0.43685
15.91066,0.49088
15.66959,0.54569
15.42852,0.58864
15.18745,0.60721
14.94637,0.57270
14.70530,0.47788
14.46423,0.35344
14.22316,0.29462
13.98209,0.31609
13.74102,0.32905
13.49995,0.33560
13.25888,0.40155
13.01781,0.50909
12.77674,0.55463
12.53567,0.51176
12.29460,0.50525
12.05353,0.58585
11.81246,0.76172
11.57139,0.68183
11.33032,0.56869
11.08925,0.54909
10.84818,0.57991
10.60710,0.57378
10.36603,0.51816
10.12496,0.58064
9.88389,0.73217
9.64282,0.79033
9.40175,0.73777
9.16068,0.71735
8.91961,0.87282
8.67854,1.16549
8.43747,1.13874
8.19640,1.17205
7.95533,0.99601
7.71426,0.72021
7.47319,0.64693
7.23212,0.73541
6.99105,0.81136
6.74998,0.71807
6.50891,0.68955
6.26783,0.71590
6.02676,0.78271
5.78569,0.85534
5.54462,0.77245
5.30355,0.72473
5.06248,0.58001
4.82141,0.51029
4.58034,0.48521
4.33927,0.49997
4.09820,0.62453
3.85713,0.87969
3.61606,1.08080
3.37499,1.25472
3.13392,0.98405
2.89285,0.85762
2.65178,0.87249
2.41071,0.90336
2.16964,1.02459
1.92856,1.14726
1.68749,0.87994
1.44642,0.85127
1.20535,0.90255
0.96428,0.73308
0.72321,0.59374
0.48214,0.59421
0.24107,0.62241
-0.00000,0.43033
