399.69498,1.78831
399.45391,1.78529
399.21284,1.78893
398.97177,1.79048
398.73070,1.79603
398.48963,1.83265
398.24856,1.91212
398.00749,1.98618
397.76642,1.97742
397.52535,1.93006
397.28428,1.89277
397.04321,1.88251
396.80214,1.90282
396.56107,1.93686
396.32000,1.96483
396.07892,1.98032
395.83785,1.98123
395.59678,1.99338
395.35571,2.01739
395.11464,1.99946
394.87357,1.94477
394.63250,1.89138
394.39143,1.86478
394.15036,1.90651
393.90929,2.01564
393.66822,2.10049
393.42715,2.05031
393.18608,1.94731
392.94501,1.90708
392.70394,1.92688
392.46287,1.97542
392.22180,2.02832
391.98073,2.07210
391.73965,2.10665
391.49858,2.13065
391.25751,2.15418
391.01644,2.17232
390.77537,2.18429
390.53430,2.20174
390.29323,2.27009
390.05216,2.36924
389.81109,2.38586
389.57002,2.30631
389.32895,2.20889
389.08788,2.17486
388.84681,2.21087
388.60574,2.29126
388.36467,2.31980
388.12360,2.25654
387.88253,2.19236
387.64146,2.11233
387.40038,2.06615
387.15931,2.07363
386.91824,2.12351
386.67717,2.17895
386.43610,2.14821
386.19503,2.09308
385.95396,2.09156
385.71289,2.09368
385.47182,2.02908
385.23075,2.00140
384.98968,2.12703
384.74861,2.37511
384.50754,2.40727
384.26647,2.27846
384.02540,2.21270
383.78433,2.13347
383.54326,2.05772
383.30219,2.07406
383.06111,2.18777
382.82004,2.08414
382.57897,1.97873
382.33790,1.83104
382.09683,1.76560
381.85576,1.83975
381.61469,2.07934
381.37362,2.27846
381.13255,2.22470
380.89148,2.25061
380.65041,2.47454
380.40934,2.45764
380.16827,2.28956
379.92720,2.15182
379.68613,2.13678
379.44506,2.16919
379.20399,2.07801
378.96292,1.99209
378.72184,1.99129
378.48077,2.00392
378.23970,1.99654
377.99863,2.06718
377.75756,2.24495
377.51649,2.26811
377.27542,2.06310
377.03435,1.95519
376.79328,1.97264
376.55221,2.07483
376.31114,2.19958
376.07007,2.24680
375.82900,2.27360
375.58793,2.43323
375.34686,2.62459
375.10579,2.38690
374.86472,2.15600
374.62365,2.00766
374.38257,1.92963
374.14150,1.92493
373.90043,1.98649
373.65936,2.09803
373.41829,2.20880
373.17722,2.21636
372.93615,2.11582
372.69508,2.02298
372.45401,1.96461
372.21294,1.89534
371.97187,1.81013
371.73080,1.75224
371.48973,1.73043
371.24866,1.70621
371.00759,1.65686
370.76652,1.60614
370.52545,1.58326
370.28437,1.59574
370.04330,1.62080
369.80223,1.62368
369.56116,1.59826
369.32009,1.56377
369.07902,1.53239
368.83795,1.51063
368.59688,1.51017
368.35581,1.53321
368.11474,1.55689
367.87367,1.55161
367.63260,1.51917
367.39153,1.48758
367.15046,1.47015
366.90939,1.45893
366.66832,1.44505
366.42725,1.42772
366.18618,1.40922
365.94510,1.39413
365.70403,1.38932
365.46296,1.39551
365.22189,1.40658
364.98082,1.41987
364.73975,1.43654
364.49868,1.45301
364.25761,1.46035
364.01654,1.45162
363.77547,1.43186
363.53440,1.41741
363.29333,1.41979
363.05226,1.43517
362.81119,1.44779
362.57012,1.44475
362.32905,1.42762
362.08798,1.40623
361.84691,1.38904
361.60583,1.38042
361.36476,1.38197
361.12369,1.39280
360.88262,1.40695
360.64155,1.41513
360.40048,1.41246
360.15941,1.40162
359.91834,1.38835
359.67727,1.37705
359.43620,1.37102
359.19513,1.37049
358.95406,1.36773
358.71299,1.35685
358.47192,1.34694
358.23085,1.34858
357.98978,1.35757
357.74871,1.36529
357.50764,1.37027
357.26656,1.37574
357.02549,1.38602
356.78442,1.39928
356.54335,1.40564
356.30228,1.39972
356.06121,1.38902
355.82014,1.38373
355.57907,1.38545
355.33800,1.38784
355.09693,1.38395
354.85586,1.37564
354.61479,1.37219
354.37372,1.37729
354.13265,1.38286
353.89158,1.38141
353.65051,1.37477
353.40944,1.37008
353.16837,1.37378
352.92729,1.38436
352.68622,1.39263
352.44515,1.39302
352.20408,1.39029
351.96301,1.38872
351.72194,1.38422
351.48087,1.37508
351.23980,1.36862
350.99873,1.37283
350.75766,1.38562
350.51659,1.39466
350.27552,1.39196
350.03445,1.38598
349.79338,1.39369
349.55231,1.41949
349.31124,1.44307
349.07017,1.44459
348.82910,1.43172
348.58802,1.41862
348.34695,1.41445
348.10588,1.42367
347.86481,1.44443
347.62374,1.46809
347.38267,1.48349
347.14160,1.48621
346.90053,1.48120
346.65946,1.47248
346.41839,1.45689
346.17732,1.43651
345.93625,1.42448
345.69518,1.43059
345.45411,1.45166
345.21304,1.47558
344.97197,1.49235
344.73090,1.50332
344.48983,1.51249
344.24875,1.51700
344.00768,1.51633
343.76661,1.51260
343.52554,1.50577
343.28447,1.49308
343.04340,1.47827
342.80233,1.47651
342.56126,1.50130
342.32019,1.55339
342.07912,1.61320
341.83805,1.63695
341.59698,1.60229
341.35591,1.55357
341.11484,1.54280
340.87377,1.58555
340.63270,1.66007
340.39163,1.72224
340.15056,1.74459
339.90948,1.73047
339.66841,1.69973
339.42734,1.68865
339.18627,1.70751
338.94520,1.73154
338.70413,1.74565
338.46306,1.76161
338.22199,1.79234
337.98092,1.83576
337.73985,1.88554
337.49878,1.93057
337.25771,1.94295
337.01664,1.91397
336.77557,1.89016
336.53450,1.91950
336.29343,1.99801
336.05236,2.07756
335.81129,2.11806
335.57021,2.11156
335.32914,2.08599
335.08807,2.04216
334.84700,1.98773
334.60593,1.95579
334.36486,1.95396
334.12379,1.96487
333.88272,1.98523
333.64165,2.00383
333.40058,1.97609
333.15951,1.89233
332.91844,1.80031
332.67737,1.73300
332.43630,1.69499
332.19523,1.67872
331.95416,1.67511
331.71309,1.67735
331.47202,1.68110
331.23094,1.68696
330.98987,1.69538
330.74880,1.69498
330.50773,1.67363
330.26666,1.63862
330.02559,1.61280
329.78452,1.60775
329.54345,1.61887
329.30238,1.63948
329.06131,1.66864
328.82024,1.70506
328.57917,1.73509
328.33810,1.73698
328.09703,1.71050
327.85596,1.67711
327.61489,1.65100
327.37382,1.63217
327.13275,1.62146
326.89167,1.62317
326.65060,1.63518
326.40953,1.65445
326.16846,1.68979
325.92739,1.74240
325.68632,1.77583
325.44525,1.75227
325.20418,1.69663
324.96311,1.66469
324.72204,1.67194
324.48097,1.69525
324.23990,1.70910
323.99883,1.70588
323.75776,1.70149
323.51669,1.71606
323.27562,1.73148
323.03455,1.72032
322.79348,1.69421
322.55240,1.68399
322.31133,1.69746
322.07026,1.72551
321.82919,1.78834
321.58812,1.91659
321.34705,2.07808
321.10598,2.13455
320.86491,2.09163
320.62384,2.09079
320.38277,2.12669
320.14170,2.13352
319.90063,2.10625
319.65956,2.04074
319.41849,1.95231
319.17742,1.90896
318.93635,1.90225
318.69528,1.90518
318.45421,1.95571
318.21313,2.04603
317.97206,2.10203
317.73099,2.06364
317.48992,1.97813
317.24885,1.93260
317.00778,1.92812
316.76671,1.96771
316.52564,2.08255
316.28457,2.34192
316.04350,2.68761
315.80243,2.62238
315.56136,2.43304
315.32029,2.32536
315.07922,2.26701
314.83815,2.22984
314.59708,2.21775
314.35601,2.18236
314.11494,2.16694
313.87386,2.15165
313.63279,2.05854
313.39172,2.00794
313.15065,2.02186
312.90958,2.05002
312.66851,2.00869
312.42744,1.98712
312.18637,2.03231
311.94530,2.03350
311.70423,2.00403
311.46316,2.04475
311.22209,2.14638
310.98102,2.19401
310.73995,2.12959
310.49888,2.05781
310.25781,2.05012
310.01674,2.11716
309.77567,2.19117
309.53459,2.20561
309.29352,2.20409
309.05245,2.15313
308.81138,2.04550
308.57031,1.98728
308.32924,1.99790
308.08817,2.02816
307.84710,2.00633
307.60603,1.92805
307.36496,1.86358
307.12389,1.84760
306.88282,1.84105
306.64175,1.81404
306.40068,1.78961
306.15961,1.77388
305.91854,1.74208
305.67747,1.68730
305.43640,1.63708
305.19532,1.61974
304.95425,1.62939
304.71318,1.63529
304.47211,1.62243
304.23104,1.59919
303.98997,1.57105
303.74890,1.53977
303.50783,1.51685
303.26676,1.51323
303.02569,1.51966
302.78462,1.51125
302.54355,1.47865
302.30248,1.43744
302.06141,1.40574
301.82034,1.38715
301.57927,1.37352
301.33820,1.35873
301.09713,1.34334
300.85605,1.32985
300.61498,1.31972
300.37391,1.31227
300.13284,1.30511
299.89177,1.29698
299.65070,1.28895
299.40963,1.28267
299.16856,1.27814
298.92749,1.27199
298.68642,1.25971
298.44535,1.24233
298.20428,1.22689
297.96321,1.21791
297.72214,1.21293
297.48107,1.20742
297.24000,1.20141
296.99893,1.19984
296.75786,1.20537
296.51678,1.21138
296.27571,1.20697
296.03464,1.19081
295.79357,1.17263
295.55250,1.16060
295.31143,1.15518
295.07036,1.15278
294.82929,1.14849
294.58822,1.13912
294.34715,1.12663
294.10608,1.11627
293.86501,1.11049
293.62394,1.10678
293.38287,1.10183
293.14180,1.09558
292.90073,1.09003
292.65966,1.08600
292.41859,1.08314
292.17751,1.08161
291.93644,1.08217
291.69537,1.08463
291.45430,1.08675
291.21323,1.08564
290.97216,1.08035
290.73109,1.07190
290.49002,1.06255
290.24895,1.05620
290.00788,1.05711
289.76681,1.06509
289.52574,1.07292
289.28467,1.07232
289.04360,1.06304
288.80253,1.05184
288.56146,1.04413
288.32039,1.04071
288.07932,1.04058
287.83824,1.04283
287.59717,1.04578
287.35610,1.04659
287.11503,1.04354
286.87396,1.03820
286.63289,1.03386
286.39182,1.03263
286.15075,1.03519
285.90968,1.04076
285.66861,1.04619
285.42754,1.04745
285.18647,1.04372
284.94540,1.03834
284.70433,1.03461
284.46326,1.03242
284.22219,1.02977
283.98112,1.02572
283.74005,1.02109
283.49897,1.01774
283.25790,1.01740
283.01683,1.02034
282.77576,1.02550
282.53469,1.03022
282.29362,1.03033
282.05255,1.02442
281.81148,1.01756
281.57041,1.01524
281.32934,1.01604
281.08827,1.01552
280.84720,1.01338
280.60613,1.01182
280.36506,1.01053
280.12399,1.00871
279.88292,1.00799
279.64185,1.00865
279.40078,1.00801
279.15970,1.00597
278.91863,1.00674
278.67756,1.01173
278.43649,1.01583
278.19542,1.01458
277.95435,1.01097
277.71328,1.00968
277.47221,1.00933
277.23114,1.00571
276.99007,0.99933
276.74900,0.99535
276.50793,0.99701
276.26686,1.00196
276.02579,1.00518
275.78472,1.00445
275.54365,1.00203
275.30258,1.00150
275.06151,1.00399
274.82043,1.00735
274.57936,1.00921
274.33829,1.01017
274.09722,1.01207
273.85615,1.01436
273.61508,1.01581
273.37401,1.01751
273.13294,1.02074
272.89187,1.02436
272.65080,1.02643
272.40973,1.02695
272.16866,1.02781
271.92759,1.03057
271.68652,1.03495
271.44545,1.03930
271.20438,1.04201
270.96331,1.04208
270.72224,1.03904
270.48116,1.03346
270.24009,1.02871
269.99902,1.02988
269.75795,1.03868
269.51688,1.05003
269.27581,1.05633
269.03474,1.05505
268.79367,1.04927
268.55260,1.04420
268.31153,1.04442
268.07046,1.05089
267.82939,1.06084
267.58832,1.07185
267.34725,1.08281
267.10618,1.09011
266.86511,1.09000
266.62404,1.08635
266.38297,1.08814
266.14189,1.09780
265.90082,1.10853
265.65975,1.11243
265.41868,1.10802
265.17761,1.10133
264.93654,1.10087
264.69547,1.10994
264.45440,1.12552
264.21333,1.14386
263.97226,1.16328
263.73119,1.18122
263.49012,1.19382
263.24905,1.20109
263.00798,1.20950
262.76691,1.22386
262.52584,1.23861
262.28477,1.24458
262.04370,1.24405
261.80262,1.24924
261.56155,1.26585
261.32048,1.28612
261.07941,1.29896
260.83834,1.30223
260.59727,1.30366
260.35620,1.31201
260.11513,1.32844
259.87406,1.34706
259.63299,1.36321
259.39192,1.37933
259.15085,1.40123
258.90978,1.43165
258.66871,1.46737
258.42764,1.49773
258.18657,1.51272
257.94550,1.51786
257.70443,1.52946
257.46335,1.55708
257.22228,1.59797
256.98121,1.63966
256.74014,1.66825
256.49907,1.68734
256.25800,1.71883
256.01693,1.77642
255.77586,1.84304
255.53479,1.88275
255.29372,1.89291
255.05265,1.89804
254.81158,1.90560
254.57051,1.91039
254.32944,1.90493
254.08837,1.89310
253.84730,1.90822
253.60623,1.97484
253.36516,2.06519
253.12408,2.12944
252.88301,2.17099
252.64194,2.23589
252.40087,2.34487
252.15980,2.47023
251.91873,2.51801
251.67766,2.44871
251.43659,2.34629
251.19552,2.27618
250.95445,2.24650
250.71338,2.24447
250.47231,2.27552
250.23124,2.31405
249.99017,2.35019
249.74910,2.38873
249.50803,2.39501
249.26696,2.35788
249.02589,2.32997
248.78481,2.26166
248.54374,2.24022
248.30267,2.30683
248.06160,2.46244
247.82053,2.62812
247.57946,2.65445
247.33839,2.42742
247.09732,2.20171
246.85625,2.09142
246.61518,2.09839
246.37411,2.23284
246.13304,2.43173
245.89197,2.41638
245.65090,2.20284
245.40983,2.04514
245.16876,1.96365
244.92769,1.90866
244.68661,1.85724
244.44554,1.81028
244.20447,1.76827
243.96340,1.72587
243.72233,1.67723
243.48126,1.62453
243.24019,1.56892
242.99912,1.50869
242.75805,1.44909
242.51698,1.39953
242.27591,1.36004
242.03484,1.31867
241.79377,1.26684
241.55270,1.21025
241.31163,1.16005
241.07056,1.12226
240.82949,1.09452
240.58842,1.06832
240.34734,1.03709
240.10627,1.00285
239.86520,0.97266
239.62413,0.94995
239.38306,0.93202
239.14199,0.91409
238.90092,0.89413
238.65985,0.87390
238.41878,0.85597
238.17771,0.84055
237.93664,0.82609
237.69557,0.81194
237.45450,0.79893
237.21343,0.78765
236.97236,0.77768
236.73129,0.76841
236.49022,0.75974
236.24915,0.75190
236.00807,0.74455
235.76700,0.73667
235.52593,0.72793
235.28486,0.71957
235.04379,0.71322
234.80272,0.70929
234.56165,0.70711
234.32058,0.70605
234.07951,0.70539
233.83844,0.70327
233.59737,0.69818
233.35630,0.69223
233.11523,0.69007
232.87416,0.69312
232.63309,0.69727
232.39202,0.69743
232.15095,0.69314
231.90988,0.68791
231.66880,0.68466
231.42773,0.68363
231.18666,0.68352
230.94559,0.68247
230.70452,0.67886
230.46345,0.67362
230.22238,0.67016
229.98131,0.66992
229.74024,0.67035
229.49917,0.66905
229.25810,0.66703
229.01703,0.66637
228.77596,0.66742
228.53489,0.66967
228.29382,0.67211
228.05275,0.67254
227.81168,0.66994
227.57061,0.66667
227.32953,0.66572
227.08846,0.66704
226.84739,0.66831
226.60632,0.66806
226.36525,0.66729
226.12418,0.66860
225.88311,0.67276
225.64204,0.67682
225.40097,0.67761
225.15990,0.67615
224.91883,0.67625
224.67776,0.67948
224.43669,0.68404
224.19562,0.68776
223.95455,0.69062
223.71348,0.69381
223.47241,0.69755
223.23134,0.70077
222.99026,0.70285
222.74919,0.70444
222.50812,0.70690
222.26705,0.71146
222.02598,0.71825
221.78491,0.72594
221.54384,0.73274
221.30277,0.73789
221.06170,0.74190
220.82063,0.74569
220.57956,0.74987
220.33849,0.75449
220.09742,0.76008
219.85635,0.76813
219.61528,0.77912
219.37421,0.79122
219.13314,0.80267
218.89207,0.81395
218.65099,0.82581
218.40992,0.83710
218.16885,0.84651
217.92778,0.85486
217.68671,0.86455
217.44564,0.87691
217.20457,0.89003
216.96350,0.89991
216.72243,0.90578
216.48136,0.91222
216.24029,0.92302
215.99922,0.93561
215.75815,0.94544
215.51708,0.95304
215.27601,0.96178
215.03494,0.97180
214.79387,0.98093
214.55280,0.98876
214.31172,0.99632
214.07065,1.00435
213.82958,1.01394
213.58851,1.02646
213.34744,1.04146
213.10637,1.05685
212.86530,1.07002
212.62423,1.07786
212.38316,1.07942
212.14209,1.07918
211.90102,1.08229
211.65995,1.08738
211.41888,1.08906
211.17781,1.08617
210.93674,1.08257
210.69567,1.08061
210.45460,1.08006
210.21353,1.08278
209.97245,1.09167
209.73138,1.10339
209.49031,1.10827
209.24924,1.10129
209.00817,1.08738
208.76710,1.07422
208.52603,1.06683
208.28496,1.06653
208.04389,1.06992
207.80282,1.07132
207.56175,1.06790
207.32068,1.06061
207.07961,1.05158
206.83854,1.04197
206.59747,1.03155
206.35640,1.01994
206.11533,1.00845
205.87426,0.99903
205.63318,0.99072
205.39211,0.97975
205.15104,0.96443
204.90997,0.94862
204.66890,0.93803
204.42783,0.93346
204.18676,0.92969
203.94569,0.92214
203.70462,0.91160
203.46355,0.90038
203.22248,0.88818
202.98141,0.87406
202.74034,0.85894
202.49927,0.84494
202.25820,0.83365
202.01713,0.82475
201.77606,0.81570
201.53499,0.80351
201.29391,0.78771
201.05284,0.77100
200.81177,0.75650
200.57070,0.74515
200.32963,0.73582
200.08856,0.72735
199.84749,0.71895
199.60642,0.70950
199.36535,0.69824
199.12428,0.68573
198.88321,0.67330
198.64214,0.66241
198.40107,0.65397
198.16000,0.64705
197.91893,0.63949
197.67786,0.63080
197.43679,0.62279
197.19572,0.61638
196.95464,0.61003
196.71357,0.60218
196.47250,0.59347
196.23143,0.58486
195.99036,0.57576
195.74929,0.56580
195.50822,0.55720
195.26715,0.55292
195.02608,0.55280
194.78501,0.55330
194.54394,0.55088
194.30287,0.54505
194.06180,0.53817
193.82073,0.53273
193.57966,0.52881
193.33859,0.52489
193.09752,0.52032
192.85645,0.51561
192.61537,0.51107
192.37430,0.50672
192.13323,0.50321
191.89216,0.50108
191.65109,0.49959
191.41002,0.49719
191.16895,0.49319
190.92788,0.48833
190.68681,0.48391
190.44574,0.48064
190.20467,0.47839
189.96360,0.47674
189.72253,0.47537
189.48146,0.47387
189.24039,0.47152
188.99932,0.46794
188.75825,0.46422
188.51718,0.46231
188.27610,0.46288
188.03503,0.46429
187.79396,0.46435
187.55289,0.46251
187.31182,0.46015
187.07075,0.45880
186.82968,0.45882
186.58861,0.45939
186.34754,0.45956
186.10647,0.45942
185.86540,0.46022
185.62433,0.46268
185.38326,0.46580
185.14219,0.46791
184.90112,0.46850
184.66005,0.46848
184.41898,0.46905
184.17791,0.47105
183.93683,0.47454
183.69576,0.47873
183.45469,0.48250
183.21362,0.48521
182.97255,0.48680
182.73148,0.48736
182.49041,0.48678
182.24934,0.48505
182.00827,0.48299
181.76720,0.48212
181.52613,0.48311
181.28506,0.48497
181.04399,0.48680
180.80292,0.48904
180.56185,0.49196
180.32078,0.49459
180.07971,0.49646
179.83864,0.49878
179.59756,0.50248
179.35649,0.50723
179.11542,0.51318
178.87435,0.52132
178.63328,0.53131
178.39221,0.54102
178.15114,0.54887
177.91007,0.55510
177.66900,0.56109
177.42793,0.56850
177.18686,0.57791
176.94579,0.58827
176.70472,0.59894
176.46365,0.61181
176.22258,0.62924
175.98151,0.65031
175.74044,0.67123
175.49937,0.68958
175.25829,0.70650
175.01722,0.72417
174.77615,0.74299
174.53508,0.76174
174.29401,0.77899
174.05294,0.79417
173.81187,0.80813
173.57080,0.82185
173.32973,0.83488
173.08866,0.84587
172.84759,0.85425
172.60652,0.85994
172.36545,0.86269
172.12438,0.86350
171.88331,0.86443
171.64224,0.86510
171.40117,0.86256
171.16010,0.85686
170.91902,0.85292
170.67795,0.85349
170.43688,0.85398
170.19581,0.84871
169.95474,0.83939
169.71367,0.83163
169.47260,0.82727
169.23153,0.82420
168.99046,0.82026
168.74939,0.81492
168.50832,0.80982
168.26725,0.80759
168.02618,0.80821
167.78511,0.80813
167.54404,0.80513
167.30297,0.80185
167.06190,0.80172
166.82083,0.80402
166.57975,0.80601
166.33868,0.80769
166.09761,0.81151
165.85654,0.81792
165.61547,0.82460
165.37440,0.83049
165.13333,0.83785
164.89226,0.84880
164.65119,0.86218
164.41012,0.87516
164.16905,0.88549
163.92798,0.89216
163.68691,0.89661
163.44584,0.90264
163.20477,0.91257
162.96370,0.92518
162.72263,0.93842
162.48156,0.95150
162.24048,0.96364
161.99941,0.97178
161.75834,0.97247
161.51727,0.96643
161.27620,0.95919
161.03513,0.95600
160.79406,0.95632
160.55299,0.95503
160.31192,0.94923
160.07085,0.94115
159.82978,0.93521
159.58871,0.93397
159.34764,0.93531
159.10657,0.93331
158.86550,0.92492
158.62443,0.91433
158.38336,0.90755
158.14229,0.90550
157.90121,0.90484
157.66014,0.90238
157.41907,0.89702
157.17800,0.88951
156.93693,0.88169
156.69586,0.87462
156.45479,0.86771
156.21372,0.86111
155.97265,0.85711
155.73158,0.85662
155.49051,0.85580
155.24944,0.84919
155.00837,0.83644
154.76730,0.82310
154.52623,0.81383
154.28516,0.80700
154.04409,0.79725
153.80302,0.78253
153.56194,0.76607
153.32087,0.75103
153.07980,0.73628
152.83873,0.71925
152.59766,0.70034
152.35659,0.68223
152.11552,0.66613
151.87445,0.65111
151.63338,0.63633
151.39231,0.62192
151.15124,0.60789
150.91017,0.59383
150.66910,0.58004
150.42803,0.56731
150.18696,0.55523
149.94589,0.54265
149.70482,0.52989
149.46375,0.51857
149.22267,0.50951
148.98160,0.50203
148.74053,0.49520
148.49946,0.48864
148.25839,0.48278
148.01732,0.47852
147.77625,0.47637
147.53518,0.47564
147.29411,0.47522
147.05304,0.47480
146.81197,0.47459
146.57090,0.47435
146.32983,0.47372
146.08876,0.47333
145.84769,0.47442
145.60662,0.47734
145.36555,0.48152
145.12448,0.48689
144.88340,0.49395
144.64233,0.50193
144.40126,0.50875
144.16019,0.51331
143.91912,0.51642
143.67805,0.51826
143.43698,0.51694
143.19591,0.51104
142.95484,0.50179
142.71377,0.49170
142.47270,0.48229
142.23163,0.47347
141.99056,0.46444
141.74949,0.45516
141.50842,0.44711
141.26735,0.44191
141.02628,0.43919
140.78521,0.43681
140.54413,0.43380
140.30306,0.43188
140.06199,0.43311
139.82092,0.43707
139.57985,0.44145
139.33878,0.44487
139.09771,0.44778
138.85664,0.45125
138.61557,0.45616
138.37450,0.46316
138.13343,0.47250
137.89236,0.48390
137.65129,0.49690
137.41022,0.51132
137.16915,0.52722
136.92808,0.54441
136.68701,0.56197
136.44594,0.57934
136.20486,0.59794
135.96379,0.62007
135.72272,0.64601
135.48165,0.67363
135.24058,0.70075
134.99951,0.72696
134.75844,0.75342
134.51737,0.78144
134.27630,0.81069
134.03523,0.83857
133.79416,0.86118
133.55309,0.87555
133.31202,0.88272
133.07095,0.88879
132.82988,0.89941
132.58881,0.91321
132.34774,0.92424
132.10667,0.93037
131.86559,0.93433
131.62452,0.93704
131.38345,0.93572
131.14238,0.92887
130.90131,0.91687
130.66024,0.89779
130.41917,0.86973
130.17810,0.83632
129.93703,0.80408
129.69596,0.77577
129.45489,0.74960
129.21382,0.72246
128.97275,0.69218
128.73168,0.65929
128.49061,0.62733
128.24954,0.59899
128.00847,0.57304
127.76740,0.54728
127.52632,0.52264
127.28525,0.50173
127.04418,0.48516
126.80311,0.47100
126.56204,0.45687
126.32097,0.44199
126.07990,0.42723
125.83883,0.41383
125.59776,0.40191
125.35669,0.39070
125.11562,0.37999
124.87455,0.37066
124.63348,0.36354
124.39241,0.35842
124.15134,0.35436
123.91027,0.35051
123.66920,0.34648
123.42812,0.34199
123.18705,0.33710
122.94598,0.33284
122.70491,0.33069
122.46384,0.33132
122.22277,0.33403
121.98170,0.33730
121.74063,0.33994
121.49956,0.34192
121.25849,0.34429
121.01742,0.34774
120.77635,0.35215
120.53528,0.35793
120.29421,0.36653
120.05314,0.37896
119.81207,0.39510
119.57100,0.41432
119.32993,0.43571
119.08885,0.45755
118.84778,0.47829
118.60671,0.49830
118.36564,0.51997
118.12457,0.54485
117.88350,0.57128
117.64243,0.59603
117.40136,0.61731
117.16029,0.63453
116.91922,0.64656
116.67815,0.65195
116.43708,0.65019
116.19601,0.64209
115.95494,0.62923
115.71387,0.61315
115.47280,0.59530
115.23173,0.57768
114.99066,0.56222
114.74958,0.54953
114.50851,0.53904
114.26744,0.53005
114.02637,0.52253
113.78530,0.51762
113.54423,0.51691
113.30316,0.52083
113.06209,0.52781
112.82102,0.53512
112.57995,0.54054
112.33888,0.54388
112.09781,0.54691
111.85674,0.55088
111.61567,0.55493
111.37460,0.55764
111.13353,0.55942
110.89246,0.56218
110.65139,0.56638
110.41031,0.56960
110.16924,0.56795
109.92817,0.55938
109.68710,0.54573
109.44603,0.53108
109.20496,0.51749
108.96389,0.50323
108.72282,0.48617
108.48175,0.46764
108.24068,0.45026
107.99961,0.43373
107.75854,0.41592
107.51747,0.39722
107.27640,0.38050
107.03533,0.36731
106.79426,0.35632
106.55319,0.34541
106.31212,0.33373
106.07104,0.32143
105.82997,0.30901
105.58890,0.29777
105.34783,0.28963
105.10676,0.28490
104.86569,0.28109
104.62462,0.27535
104.38355,0.26750
104.14248,0.25960
103.90141,0.25332
103.66034,0.24857
103.41927,0.24394
103.17820,0.23810
102.93713,0.23133
102.69606,0.22532
102.45499,0.22102
102.21392,0.21752
101.97285,0.21344
101.73177,0.20861
101.49070,0.20401
101.24963,0.20020
101.00856,0.19645
100.76749,0.19181
100.52642,0.18689
100.28535,0.18361
100.04428,0.18306
99.80321,0.18442
99.56214,0.18602
99.32107,0.18661
99.08000,0.18558
98.83893,0.18294
98.59786,0.17953
98.35679,0.17659
98.11572,0.17525
97.87465,0.17617
97.63358,0.17916
97.39250,0.18342
97.15143,0.18832
96.91036,0.19366
96.66929,0.19887
96.42822,0.20312
96.18715,0.20628
95.94608,0.20931
95.70501,0.21349
95.46394,0.21983
95.22287,0.22865
94.98180,0.23919
94.74073,0.24916
94.49966,0.25567
94.25859,0.25743
94.01752,0.25574
93.77645,0.25291
93.53538,0.25035
93.29431,0.24861
93.05323,0.24848
92.81216,0.25023
92.57109,0.25227
92.33002,0.25277
92.08895,0.25276
91.84788,0.25551
91.60681,0.26289
91.36574,0.27415
91.12467,0.28781
90.88360,0.30347
90.64253,0.32242
90.40146,0.34696
90.16039,0.37877
89.91932,0.41732
89.67825,0.45967
89.43718,0.50086
89.19611,0.53467
88.95504,0.55697
88.71396,0.56798
88.47289,0.56816
88.23182,0.55445
87.99075,0.52589
87.74968,0.48873
87.50861,0.45026
87.26754,0.41279
87.02647,0.37613
86.78540,0.34135
86.54433,0.31068
86.30326,0.28571
86.06219,0.26617
85.82112,0.25003
85.58005,0.23483
85.33898,0.21939
85.09791,0.20421
84.85684,0.19050
84.61577,0.17893
84.37469,0.16910
84.13362,0.16027
83.89255,0.15252
83.65148,0.14657
83.41041,0.14225
83.16934,0.13824
82.92827,0.13349
82.68720,0.12842
82.44613,0.12424
82.20506,0.12164
81.96399,0.12031
81.72292,0.11925
81.48185,0.11762
81.24078,0.11535
80.99971,0.11320
80.75864,0.11196
80.51757,0.11147
80.27650,0.11046
80.03542,0.10800
79.79435,0.10487
79.55328,0.10287
79.31221,0.10271
79.07114,0.10320
78.83007,0.10270
78.58900,0.10088
78.34793,0.09889
78.10686,0.09788
77.86579,0.09784
77.62472,0.09796
77.38365,0.09736
77.14258,0.09551
76.90151,0.09252
76.66044,0.08939
76.41937,0.08731
76.17830,0.08658
75.93723,0.08654
75.69615,0.08654
75.45508,0.08629
75.21401,0.08552
74.97294,0.08418
74.73187,0.08304
74.49080,0.08310
74.24973,0.08415
74.00866,0.08531
73.76759,0.08654
73.52652,0.08793
73.28545,0.08816
73.04438,0.08631
72.80331,0.08405
72.56224,0.08349
72.32117,0.08418
72.08010,0.08463
71.83903,0.08487
71.59796,0.08563
71.35688,0.08681
71.11581,0.08859
70.87474,0.09226
70.63367,0.09865
70.39260,0.10711
70.15153,0.11686
69.91046,0.12814
69.66939,0.14118
69.42832,0.15424
69.18725,0.16338
68.94618,0.16503
68.70511,0.15914
68.46404,0.14884
68.22297,0.13741
67.98190,0.12631
67.74083,0.11574
67.49976,0.10620
67.25869,0.09896
67.01761,0.09459
66.77654,0.09157
66.53547,0.08797
66.29440,0.08397
66.05333,0.08122
65.81226,0.08002
65.57119,0.07915
65.33012,0.07832
65.08905,0.07897
64.84798,0.08224
64.60691,0.08755
64.36584,0.09386
64.12477,0.10069
63.88370,0.10634
63.64263,0.10736
63.40156,0.10221
63.16049,0.09407
62.91942,0.08798
62.67834,0.08594
62.43727,0.08560
62.19620,0.08341
61.95513,0.07833
61.71406,0.07209
61.47299,0.06650
61.23192,0.06181
60.99085,0.05803
60.74978,0.05590
60.50871,0.05567
60.26764,0.05641
60.02657,0.05733
59.78550,0.05872
59.54443,0.06091
59.30336,0.06305
59.06229,0.06352
58.82122,0.06143
58.58015,0.05753
58.33907,0.05370
58.09800,0.05142
57.85693,0.05075
57.61586,0.05113
57.37479,0.05286
57.13372,0.05645
56.89265,0.06017
56.65158,0.06090
56.41051,0.05804
56.16944,0.05378
55.92837,0.04965
55.68730,0.04550
55.44623,0.04208
55.20516,0.04129
54.96409,0.04348
54.72302,0.04686
54.48195,0.04990
54.24088,0.05194
53.99980,0.05199
53.75873,0.04961
53.51766,0.04665
53.27659,0.04589
53.03552,0.04833
52.79445,0.05250
52.55338,0.05527
52.31231,0.05401
52.07124,0.04947
51.83017,0.04582
51.58910,0.04663
51.34803,0.05150
51.10696,0.05668
50.86589,0.05782
50.62482,0.05289
50.38375,0.04435
50.14268,0.03721
49.90161,0.03369
49.66053,0.03248
49.41946,0.03339
49.17839,0.03744
48.93732,0.04245
48.69625,0.04391
48.45518,0.04012
48.21411,0.03299
47.97304,0.02506
47.73197,0.01944
47.49090,0.01906
47.24983,0.02254
47.00876,0.02514
46.76769,0.02525
46.52662,0.02550
46.28555,0.02754
46.04448,0.03090
45.80341,0.03452
45.56234,0.03574
45.32126,0.03213
45.08019,0.02614
44.83912,0.02324
44.59805,0.02439
44.35698,0.02480
44.11591,0.02203
43.87484,0.01914
43.63377,0.01927
43.39270,0.02127
43.15163,0.02109
42.91056,0.01524
42.66949,0.00370
42.42842,-0.00822
42.18735,-0.01375
41.94628,-0.01325
41.70521,-0.01445
41.46414,-0.02089
41.22307,-0.02631
40.98199,-0.02257
40.74092,-0.00735
40.49985,0.01495
40.25878,0.03467
40.01771,0.04199
39.77664,0.03523
39.53557,0.02378
39.29450,0.01932
39.05343,0.02591
38.81236,0.03779
38.57129,0.04708
38.33022,0.05299
38.08915,0.05671
37.84808,0.05346
37.60701,0.04031
37.36594,0.02416
37.12487,0.01195
36.88380,0.00197
36.64272,-0.00586
36.40165,-0.00463
36.16058,0.00651
35.91951,0.01579
35.67844,0.01408
35.43737,0.00794
35.19630,0.01018
34.95523,0.02244
34.71416,0.03447
34.47309,0.03523
34.23202,0.01609
33.99095,-0.02446
33.74988,-0.06501
33.50881,-0.07029
33.26774,-0.03074
33.02667,0.03306
32.78560,0.09868
32.54453,0.15030
32.30345,0.17014
32.06238,0.14523
31.82131,0.08791
31.58024,0.02770
31.33917,-0.01655
31.09810,-0.03724
30.85703,-0.03380
30.61596,-0.02016
30.37489,-0.01196
30.13382,-0.00617
29.89275,0.01490
29.65168,0.05923
29.41061,0.10489
29.16954,0.11932
28.92847,0.09591
28.68740,0.05513
28.44633,0.02751
28.20526,0.02276
27.96418,0.01104
27.72311,-0.03260
27.48204,-0.07761
27.24097,-0.05877
26.99990,0.02169
26.75883,0.09700
26.51776,0.13244
26.27669,0.13140
26.03562,0.10788
25.79455,0.08144
25.55348,0.07197
25.31241,0.08871
25.07134,0.12543
24.83027,0.16924
24.58920,0.21145
24.34813,0.24012
24.10706,0.24280
23.86599,0.23208
23.62491,0.23078
23.38384,0.23610
23.14277,0.22920
22.90170,0.21283
22.66063,0.21461
22.41956,0.24994
22.17849,0.30695
21.93742,0.35915
21.69635,0.37615
21.45528,0.35401
21.21421,0.33826
20.97314,0.34005
20.73207,0.31088
20.49100,0.23119
20.24993,0.15065
20.00886,0.14579
19.76779,0.25352
19.52672,0.39135
19.28564,0.49868
19.04457,0.57357
18.80350,0.69124
18.56243,0.88186
18.32136,0.88939
18.08029,0.75886
17.83922,0.68491
17.59815,0.63175
17.35708,0.58261
17.11601,0.60136
16.87494,0.71178
16.63387,0.75698
16.39280,0.76915
16.15173,0.84461
15.91066,0.87322
15.66959,0.78941
15.42852,0.72088
15.18745,0.72592
14.94637,0.86452
14.70530,0.93955
14.46423,0.87455
14.22316,0.77323
13.98209,0.76921
13.74102,0.80706
13.49995,0.75312
13.25888,0.82502
13.01781,0.92261
12.77674,0.90807
12.53567,0.84829
12.29460,0.80553
12.05353,0.84132
11.81246,0.86774
11.57139,0.79662
11.33032,0.75200
11.08925,0.77943
10.84818,0.72568
10.60710,0.82480
10.36603,0.99827
10.12496,1.01516
9.88389,0.90473
9.64282,0.86775
9.40175,0.86555
9.16068,0.89611
8.91961,0.89353
8.67854,0.95022
8.43747,1.00921
8.19640,1.17434
7.95533,1.60308
7.71426,2.01558
7.47319,1.85634
7.23212,1.62527
6.99105,1.36558
6.74998,1.14840
6.50891,1.11845
6.26783,1.24635
6.02676,1.39966
5.78569,1.37620
5.54462,1.17637
5.30355,1.03561
5.06248,1.00322
4.82141,1.14159
4.58034,1.48296
4.33927,1.90878
4.09820,1.79737
3.85713,1.21937
3.61606,0.89751
3.37499,0.88047
3.13392,1.00793
2.89285,1.08890
2.65178,1.03138
2.41071,0.91803
2.16964,0.90159
1.92856,0.90040
1.68749,0.80827
1.44642,0.75135
1.20535,0.83145
0.96428,0.84442
0.72321,0.60843
0.48214,0.46304
0.24107,0.42131
-0.00000,0.25907
