399.69498,1.77705
399.45391,1.85953
399.21284,1.94156
398.97177,1.92372
398.73070,1.83220
398.48963,1.78853
398.24856,1.83990
398.00749,1.92104
397.76642,1.91452
397.52535,1.86000
397.28428,1.80526
397.04321,1.76450
396.80214,1.72954
396.56107,1.69354
396.32000,1.67066
396.07892,1.70165
395.83785,1.82597
395.59678,1.95585
395.35571,1.91517
395.11464,1.83654
394.87357,1.79491
394.63250,1.80190
394.39143,1.85228
394.15036,1.92310
393.90929,1.96899
393.66822,1.99498
393.42715,2.00009
393.18608,1.94074
392.94501,1.86539
392.70394,1.82768
392.46287,1.83706
392.22180,1.89041
391.98073,1.95751
391.73965,1.97513
391.49858,1.93959
391.25751,1.95160
391.01644,2.04949
390.77537,2.14831
390.53430,2.21444
390.29323,2.14372
390.05216,2.00490
389.81109,1.96258
389.57002,2.03951
389.32895,2.16879
389.08788,2.19693
388.84681,2.13556
388.60574,2.04496
388.36467,2.02831
388.12360,2.12411
387.88253,2.26566
387.64146,2.25970
387.40038,2.16541
387.15931,2.13322
386.91824,2.15210
386.67717,2.17226
386.43610,2.16114
386.19503,2.15902
385.95396,2.30713
385.71289,2.44824
385.47182,2.11459
385.23075,1.97047
384.98968,1.97747
384.74861,1.96982
384.50754,2.13041
384.26647,2.54679
384.02540,2.32267
383.78433,2.09650
383.54326,2.00590
383.30219,1.92856
383.06111,1.85276
382.82004,1.83240
382.57897,1.85358
382.33790,1.84559
382.09683,1.78256
381.85576,1.72112
381.61469,1.69883
381.37362,1.71207
381.13255,1.76088
380.89148,1.84159
380.65041,1.92346
380.40934,1.93942
380.16827,1.91789
379.92720,1.89163
379.68613,1.80031
379.44506,1.74189
379.20399,1.80275
378.96292,1.98103
378.72184,2.09329
378.48077,2.08048
378.23970,2.03902
377.99863,1.92809
377.75756,1.86249
377.51649,1.88146
377.27542,1.93519
377.03435,2.03631
376.79328,2.22761
376.55221,2.14096
376.31114,1.89410
376.07007,1.78499
375.82900,1.77976
375.58793,1.79925
375.34686,1.79277
375.10579,1.78392
374.86472,1.88008
374.62365,2.14729
374.38257,2.24656
374.14150,2.11365
373.90043,2.00259
373.65936,1.95153
373.41829,1.92490
373.17722,1.86542
372.93615,1.78687
372.69508,1.75761
372.45401,1.78251
372.21294,1.84033
371.97187,1.88733
371.73080,1.85550
371.48973,1.75284
371.24866,1.64421
371.00759,1.57262
370.76652,1.54662
370.52545,1.55560
370.28437,1.57287
370.04330,1.56664
369.80223,1.54046
369.56116,1.52612
369.32009,1.53467
369.07902,1.54559
368.83795,1.53173
368.59688,1.49381
368.35581,1.46075
368.11474,1.45591
367.87367,1.47774
367.63260,1.50060
367.39153,1.49346
367.15046,1.45634
366.90939,1.42503
366.66832,1.42410
366.42725,1.44678
366.18618,1.47316
365.94510,1.48750
365.70403,1.48043
365.46296,1.45282
365.22189,1.42436
364.98082,1.41757
364.73975,1.43022
364.49868,1.43469
364.25761,1.41253
364.01654,1.38356
363.77547,1.37423
363.53440,1.38750
363.29333,1.40951
363.05226,1.42300
362.81119,1.41750
362.57012,1.39289
362.32905,1.35791
362.08798,1.33155
361.84691,1.33359
361.60583,1.36606
361.36476,1.40559
361.12369,1.42247
360.88262,1.41355
360.64155,1.39655
360.40048,1.38452
360.15941,1.37897
359.91834,1.37425
359.67727,1.36540
359.43620,1.35218
359.19513,1.33996
358.95406,1.33771
358.71299,1.34795
358.47192,1.36342
358.23085,1.37616
357.98978,1.38413
357.74871,1.38756
357.50764,1.38712
357.26656,1.38643
357.02549,1.38884
356.78442,1.39177
356.54335,1.38983
356.30228,1.38601
356.06121,1.39016
355.82014,1.40303
355.57907,1.41089
355.33800,1.40041
355.09693,1.36933
354.85586,1.32939
354.61479,1.30706
354.37372,1.32528
354.13265,1.37741
353.89158,1.42438
353.65051,1.43102
353.40944,1.40448
353.16837,1.37558
352.92729,1.36552
352.68622,1.37901
352.44515,1.40774
352.20408,1.43506
351.96301,1.44347
351.72194,1.42579
351.48087,1.39367
351.23980,1.36811
350.99873,1.36029
350.75766,1.36587
350.51659,1.37181
350.27552,1.36975
350.03445,1.36172
349.79338,1.35289
349.55231,1.35071
349.31124,1.35775
349.07017,1.37330
348.82910,1.40090
348.58802,1.44143
348.34695,1.48435
348.10588,1.51064
347.86481,1.50974
347.62374,1.48993
347.38267,1.46662
347.14160,1.44563
346.90053,1.42688
346.65946,1.41117
346.41839,1.40111
346.17732,1.40245
345.93625,1.41515
345.69518,1.42826
345.45411,1.43183
345.21304,1.42964
344.97197,1.43360
344.73090,1.45123
344.48983,1.48417
344.24875,1.53373
344.00768,1.59918
343.76661,1.65495
343.52554,1.66172
343.28447,1.61452
343.04340,1.54504
342.80233,1.49674
342.56126,1.48367
342.32019,1.48343
342.07912,1.47796
341.83805,1.48032
341.59698,1.50778
341.35591,1.55533
341.11484,1.60418
340.87377,1.64501
340.63270,1.67774
340.39163,1.69514
340.15056,1.69990
339.90948,1.71417
339.66841,1.74225
339.42734,1.75608
339.18627,1.73851
338.94520,1.71663
338.70413,1.72017
338.46306,1.75594
338.22199,1.81732
337.98092,1.89141
337.73985,1.94915
337.49878,1.92756
337.25771,1.85522
337.01664,1.85227
336.77557,1.93608
336.53450,2.02390
336.29343,2.07854
336.05236,2.06688
335.81129,2.02180
335.57021,2.01138
335.32914,2.03533
335.08807,2.06139
334.84700,2.03128
334.60593,1.97971
334.36486,1.96702
334.12379,1.98910
333.88272,2.02184
333.64165,2.03401
333.40058,1.96413
333.15951,1.84621
332.91844,1.76290
332.67737,1.74578
332.43630,1.78129
332.19523,1.82258
331.95416,1.82848
331.71309,1.81655
331.47202,1.80260
331.23094,1.75191
330.98987,1.67995
330.74880,1.65070
330.50773,1.67009
330.26666,1.68857
330.02559,1.68703
329.78452,1.69561
329.54345,1.70443
329.30238,1.67839
329.06131,1.63383
328.82024,1.59617
328.57917,1.58188
328.33810,1.60058
328.09703,1.63117
327.85596,1.65191
327.61489,1.65513
327.37382,1.63785
327.13275,1.61538
326.89167,1.61503
326.65060,1.63889
326.40953,1.66784
326.16846,1.69507
325.92739,1.71351
325.68632,1.71050
325.44525,1.69228
325.20418,1.66798
324.96311,1.64212
324.72204,1.63090
324.48097,1.65133
324.23990,1.70892
323.99883,1.79021
323.75776,1.83036
323.51669,1.84134
323.27562,1.88832
323.03455,1.92848
322.79348,1.92956
322.55240,1.99519
322.31133,2.05584
322.07026,2.03848
321.82919,2.09538
321.58812,2.09231
321.34705,2.01924
321.10598,1.95264
320.86491,1.88734
320.62384,1.85340
320.38277,1.81580
320.14170,1.73603
319.90063,1.65898
319.65956,1.63308
319.41849,1.68955
319.17742,1.82602
318.93635,1.96446
318.69528,2.00445
318.45421,1.99969
318.21313,2.00185
317.97206,1.98735
317.73099,1.99542
317.48992,2.04295
317.24885,2.08629
317.00778,2.15998
316.76671,2.29498
316.52564,2.16168
316.28457,1.94375
316.04350,1.88332
315.80243,1.98239
315.56136,2.16076
315.32029,2.22770
315.07922,2.28273
314.83815,2.24734
314.59708,2.17798
314.35601,2.24734
314.11494,2.37582
313.87386,2.35721
313.63279,2.16564
313.39172,2.00673
313.15065,1.93777
312.90958,1.93563
312.66851,1.91470
312.42744,1.83134
312.18637,1.75383
311.94530,1.76620
311.70423,1.93350
311.46316,2.19083
311.22209,2.11880
310.98102,2.01417
310.73995,1.95502
310.49888,1.99103
310.25781,2.11284
310.01674,2.10229
309.77567,1.98358
309.53459,1.89328
309.29352,1.85719
309.05245,1.91163
308.81138,2.04734
308.57031,2.17353
308.32924,2.21526
308.08817,2.23981
307.84710,2.33079
307.60603,2.45640
307.36496,2.20088
307.12389,1.92196
306.88282,1.77708
306.64175,1.72990
306.40068,1.73027
306.15961,1.71707
305.91854,1.71436
305.67747,1.73841
305.43640,1.74013
305.19532,1.72575
304.95425,1.70196
304.71318,1.67064
304.47211,1.65954
304.23104,1.66042
303.98997,1.64847
303.74890,1.62790
303.50783,1.61043
303.26676,1.59208
303.02569,1.56011
302.78462,1.51708
302.54355,1.47945
302.30248,1.45644
302.06141,1.44313
301.82034,1.43045
301.57927,1.41807
301.33820,1.40758
301.09713,1.39657
300.85605,1.38040
300.61498,1.35182
300.37391,1.31622
300.13284,1.28826
299.89177,1.27486
299.65070,1.27323
299.40963,1.27560
299.16856,1.27440
298.92749,1.26988
298.68642,1.26845
298.44535,1.26992
298.20428,1.26759
297.96321,1.25975
297.72214,1.24969
297.48107,1.23828
297.24000,1.22205
296.99893,1.19941
296.75786,1.17610
296.51678,1.16097
296.27571,1.15645
296.03464,1.15531
295.79357,1.14923
295.55250,1.13819
295.31143,1.12771
295.07036,1.12088
294.82929,1.11859
294.58822,1.12206
294.34715,1.13002
294.10608,1.13661
293.86501,1.13441
293.62394,1.12440
293.38287,1.11699
293.14180,1.11902
292.90073,1.12819
292.65966,1.13742
292.41859,1.13786
292.17751,1.12222
291.93644,1.09524
291.69537,1.07400
291.45430,1.07136
291.21323,1.08540
290.97216,1.10229
290.73109,1.10738
290.49002,1.09758
290.24895,1.08233
290.00788,1.07172
289.76681,1.06805
289.52574,1.06540
289.28467,1.05771
289.04360,1.04752
288.80253,1.04294
288.56146,1.04612
288.32039,1.05052
288.07932,1.05090
287.83824,1.04992
287.59717,1.05221
287.35610,1.05618
287.11503,1.05671
286.87396,1.05362
286.63289,1.05057
286.39182,1.04891
286.15075,1.04771
285.90968,1.04593
285.66861,1.04393
285.42754,1.04299
285.18647,1.04368
284.94540,1.04602
284.70433,1.04849
284.46326,1.04809
284.22219,1.04421
283.98112,1.04068
283.74005,1.04095
283.49897,1.04280
283.25790,1.04034
283.01683,1.03251
282.77576,1.02621
282.53469,1.02799
282.29362,1.03584
282.05255,1.04201
281.81148,1.04247
281.57041,1.03948
281.32934,1.03545
281.08827,1.03011
280.84720,1.02358
280.60613,1.01811
280.36506,1.01589
280.12399,1.01680
279.88292,1.01948
279.64185,1.02242
279.40078,1.02348
279.15970,1.02269
278.91863,1.02275
278.67756,1.02468
278.43649,1.02659
278.19542,1.02629
277.95435,1.02407
277.71328,1.02270
277.47221,1.02430
277.23114,1.02755
276.99007,1.02854
276.74900,1.02606
276.50793,1.02464
276.26686,1.02837
276.02579,1.03259
275.78472,1.02787
275.54365,1.01433
275.30258,1.00358
275.06151,1.00433
274.82043,1.01340
274.57936,1.02247
274.33829,1.02899
274.09722,1.03534
273.85615,1.04090
273.61508,1.04297
273.37401,1.04331
273.13294,1.04502
272.89187,1.04460
272.65080,1.03596
272.40973,1.02213
272.16866,1.01480
271.92759,1.02035
271.68652,1.03290
271.44545,1.04303
271.20438,1.04790
270.96331,1.04981
270.72224,1.05030
270.48116,1.05003
270.24009,1.05082
269.99902,1.05451
269.75795,1.06109
269.51688,1.06795
269.27581,1.07041
269.03474,1.06667
268.79367,1.06253
268.55260,1.06507
268.31153,1.07298
268.07046,1.07816
267.82939,1.07621
267.58832,1.07182
267.34725,1.07266
267.10618,1.08045
266.86511,1.08978
266.62404,1.09540
266.38297,1.09831
266.14189,1.10258
265.90082,1.11007
265.65975,1.12065
265.41868,1.13211
265.17761,1.14066
264.93654,1.14499
264.69547,1.14811
264.45440,1.15373
264.21333,1.16188
263.97226,1.16936
263.73119,1.17728
263.49012,1.19139
263.24905,1.21243
263.00798,1.23176
262.76691,1.24332
262.52584,1.25244
262.28477,1.26137
262.04370,1.26321
261.80262,1.25815
261.56155,1.25781
261.32048,1.26982
261.07941,1.29219
260.83834,1.32014
260.59727,1.34779
260.35620,1.36888
260.11513,1.38432
259.87406,1.40081
259.63299,1.42103
259.39192,1.44181
259.15085,1.46050
258.90978,1.47812
258.66871,1.49794
258.42764,1.51854
258.18657,1.53399
257.94550,1.54994
257.70443,1.57687
257.46335,1.60583
257.22228,1.61690
256.98121,1.61119
256.74014,1.61571
256.49907,1.65409
256.25800,1.72331
256.01693,1.78348
255.77586,1.79227
255.53479,1.77255
255.29372,1.77344
255.05265,1.81719
254.81158,1.88949
254.57051,1.94287
254.32944,1.95141
254.08837,1.95049
253.84730,1.97535
253.60623,2.01533
253.36516,2.03998
253.12408,2.06737
252.88301,2.13592
252.64194,2.18324
252.40087,2.14980
252.15980,2.10156
251.91873,2.08775
251.67766,2.13518
251.43659,2.16266
251.19552,2.12208
250.95445,2.11611
250.71338,2.13584
250.47231,2.16842
250.23124,2.25517
249.99017,2.30237
249.74910,2.19371
249.50803,2.10606
249.26696,2.08122
249.02589,2.09511
248.78481,2.15826
248.54374,2.24753
248.30267,2.27713
248.06160,2.35718
247.82053,2.36776
247.57946,2.18383
247.33839,2.10615
247.09732,2.19744
246.85625,2.27341
246.61518,2.25047
246.37411,2.24375
246.13304,2.16220
245.89197,2.08059
245.65090,2.01452
245.40983,1.95321
245.16876,1.94587
244.92769,1.98803
244.68661,1.99289
244.44554,1.92392
244.20447,1.84378
243.96340,1.78613
243.72233,1.73178
243.48126,1.67629
243.24019,1.62275
242.99912,1.55941
242.75805,1.49258
242.51698,1.44184
242.27591,1.40848
242.03484,1.37643
241.79377,1.33249
241.55270,1.28182
241.31163,1.23834
241.07056,1.20275
240.82949,1.16680
240.58842,1.12812
240.34734,1.08960
240.10627,1.05225
239.86520,1.01530
239.62413,0.97998
239.38306,0.94906
239.14199,0.92429
238.90092,0.90599
238.65985,0.89359
238.41878,0.88542
238.17771,0.87789
237.93664,0.86636
237.69557,0.84906
237.45450,0.82915
237.21343,0.81106
236.97236,0.79583
236.73129,0.78163
236.49022,0.76860
236.24915,0.75985
236.00807,0.75604
235.76700,0.75221
235.52593,0.74358
235.28486,0.73239
235.04379,0.72474
234.80272,0.72234
234.56165,0.72105
234.32058,0.71676
234.07951,0.71013
233.83844,0.70464
233.59737,0.70180
233.35630,0.70010
233.11523,0.69785
232.87416,0.69506
232.63309,0.69242
232.39202,0.69022
232.15095,0.68858
231.90988,0.68742
231.66880,0.68611
231.42773,0.68421
231.18666,0.68226
230.94559,0.68119
230.70452,0.68114
230.46345,0.68103
230.22238,0.67952
229.98131,0.67616
229.74024,0.67190
229.49917,0.66920
229.25810,0.67030
229.01703,0.67453
228.77596,0.67836
228.53489,0.67903
228.29382,0.67659
228.05275,0.67230
227.81168,0.66754
227.57061,0.66473
227.32953,0.66617
227.08846,0.67157
226.84739,0.67850
226.60632,0.68452
226.36525,0.68803
226.12418,0.68829
225.88311,0.68512
225.64204,0.67847
225.40097,0.67005
225.15990,0.66524
224.91883,0.66937
224.67776,0.68111
224.43669,0.69237
224.19562,0.69645
223.95455,0.69494
223.71348,0.69423
223.47241,0.69757
223.23134,0.70328
222.99026,0.70881
222.74919,0.71317
222.50812,0.71575
222.26705,0.71650
222.02598,0.71766
221.78491,0.72222
221.54384,0.73034
221.30277,0.74007
221.06170,0.75062
220.82063,0.76168
220.57956,0.77157
220.33849,0.77963
220.09742,0.78744
219.85635,0.79546
219.61528,0.80225
219.37421,0.80849
219.13314,0.81678
218.89207,0.82684
218.65099,0.83593
218.40992,0.84447
218.16885,0.85680
217.92778,0.87537
217.68671,0.89753
217.44564,0.91809
217.20457,0.93325
216.96350,0.94225
216.72243,0.94724
216.48136,0.95170
216.24029,0.95808
215.99922,0.96718
215.75815,0.97887
215.51708,0.99167
215.27601,1.00234
215.03494,1.00840
214.79387,1.01210
214.55280,1.01976
214.31172,1.03498
214.07065,1.05404
213.82958,1.07008
213.58851,1.08062
213.34744,1.08782
213.10637,1.09320
212.86530,1.09659
212.62423,1.09896
212.38316,1.10219
212.14209,1.10639
211.90102,1.11005
211.65995,1.11242
211.41888,1.11526
211.17781,1.12168
210.93674,1.13233
210.69567,1.14451
210.45460,1.15449
210.21353,1.16089
209.97245,1.16415
209.73138,1.16342
209.49031,1.15643
209.24924,1.14224
209.00817,1.12516
208.76710,1.11390
208.52603,1.11429
208.28496,1.12262
208.04389,1.12840
207.80282,1.12530
207.56175,1.11546
207.32068,1.10257
207.07961,1.08703
206.83854,1.06966
206.59747,1.05520
206.35640,1.04784
206.11533,1.04507
205.87426,1.03953
205.63318,1.02786
205.39211,1.01430
205.15104,1.00418
204.90997,0.99772
204.66890,0.99029
204.42783,0.97742
204.18676,0.95924
203.94569,0.93980
203.70462,0.92283
203.46355,0.90902
203.22248,0.89714
202.98141,0.88648
202.74034,0.87791
202.49927,0.87140
202.25820,0.86399
202.01713,0.85270
201.77606,0.83804
201.53499,0.82272
201.29391,0.80912
201.05284,0.79855
200.81177,0.79049
200.57070,0.78228
200.32963,0.77124
200.08856,0.75713
199.84749,0.74164
199.60642,0.72664
199.36535,0.71408
199.12428,0.70565
198.88321,0.70088
198.64214,0.69610
198.40107,0.68722
198.16000,0.67418
197.91893,0.66157
197.67786,0.65344
197.43679,0.64859
197.19572,0.64202
196.95464,0.63096
196.71357,0.61788
196.47250,0.60731
196.23143,0.60094
195.99036,0.59637
195.74929,0.59050
195.50822,0.58287
195.26715,0.57468
195.02608,0.56650
194.78501,0.55882
194.54394,0.55317
194.30287,0.55019
194.06180,0.54778
193.82073,0.54345
193.57966,0.53736
193.33859,0.53158
193.09752,0.52708
192.85645,0.52301
192.61537,0.51871
192.37430,0.51491
192.13323,0.51207
191.89216,0.50930
191.65109,0.50595
191.41002,0.50302
191.16895,0.50154
190.92788,0.50117
190.68681,0.50105
190.44574,0.50050
190.20467,0.49871
189.96360,0.49521
189.72253,0.49096
189.48146,0.48744
189.24039,0.48505
188.99932,0.48317
188.75825,0.48107
188.51718,0.47841
188.27610,0.47568
188.03503,0.47383
187.79396,0.47304
187.55289,0.47261
187.31182,0.47239
187.07075,0.47300
186.82968,0.47393
186.58861,0.47325
186.34754,0.47036
186.10647,0.46710
185.86540,0.46540
185.62433,0.46592
185.38326,0.46911
185.14219,0.47472
184.90112,0.48005
184.66005,0.48193
184.41898,0.48041
184.17791,0.47810
183.93683,0.47653
183.69576,0.47586
183.45469,0.47686
183.21362,0.48026
182.97255,0.48441
182.73148,0.48646
182.49041,0.48601
182.24934,0.48570
182.00827,0.48791
181.76720,0.49235
181.52613,0.49737
181.28506,0.50168
181.04399,0.50408
180.80292,0.50380
180.56185,0.50228
180.32078,0.50260
180.07971,0.50607
179.83864,0.51117
179.59756,0.51606
179.35649,0.52023
179.11542,0.52406
178.87435,0.52839
178.63328,0.53436
178.39221,0.54227
178.15114,0.55095
177.91007,0.55897
177.66900,0.56601
177.42793,0.57315
177.18686,0.58201
176.94579,0.59370
176.70472,0.60880
176.46365,0.62799
176.22258,0.65092
175.98151,0.67474
175.74044,0.69561
175.49937,0.71186
175.25829,0.72511
175.01722,0.73904
174.77615,0.75647
174.53508,0.77660
174.29401,0.79612
174.05294,0.81325
173.81187,0.82837
173.57080,0.84198
173.32973,0.85525
173.08866,0.87032
172.84759,0.88675
172.60652,0.89965
172.36545,0.90490
172.12438,0.90515
171.88331,0.90736
171.64224,0.91495
171.40117,0.92278
171.16010,0.92165
170.91902,0.90941
170.67795,0.89409
170.43688,0.88497
170.19581,0.88333
169.95474,0.88288
169.71367,0.87811
169.47260,0.86911
169.23153,0.85959
168.99046,0.85322
168.74939,0.85043
168.50832,0.84825
168.26725,0.84468
168.02618,0.84130
167.78511,0.83967
167.54404,0.83871
167.30297,0.83783
167.06190,0.83906
166.82083,0.84392
166.57975,0.85019
166.33868,0.85411
166.09761,0.85472
165.85654,0.85480
165.61547,0.85839
165.37440,0.86759
165.13333,0.88082
164.89226,0.89438
164.65119,0.90495
164.41012,0.91038
164.16905,0.91056
163.92798,0.90990
163.68691,0.91478
163.44584,0.92703
163.20477,0.94368
162.96370,0.96189
162.72263,0.97945
162.48156,0.99259
162.24048,0.99826
161.99941,0.99631
161.75834,0.99045
161.51727,0.98845
161.27620,0.99480
161.03513,1.00363
160.79406,1.00609
160.55299,1.00183
160.31192,0.99511
160.07085,0.98632
159.82978,0.97582
159.58871,0.96866
159.34764,0.96841
159.10657,0.97284
158.86550,0.97913
158.62443,0.98705
158.38336,0.99251
158.14229,0.98592
157.90121,0.96468
157.66014,0.94015
157.41907,0.92609
157.17800,0.92650
156.93693,0.93596
156.69586,0.94532
156.45479,0.94782
156.21372,0.94352
155.97265,0.93625
155.73158,0.92684
155.49051,0.91278
155.24944,0.89379
155.00837,0.87414
154.76730,0.85856
154.52623,0.84774
154.28516,0.83852
154.04409,0.82780
153.80302,0.81492
153.56194,0.80029
153.32087,0.78489
153.07980,0.77016
152.83873,0.75588
152.59766,0.73939
152.35659,0.71923
152.11552,0.69890
151.87445,0.68342
151.63338,0.67219
151.39231,0.65954
151.15124,0.64283
150.91017,0.62536
150.66910,0.60992
150.42803,0.59471
150.18696,0.57777
149.94589,0.56070
149.70482,0.54580
149.46375,0.53358
149.22267,0.52407
148.98160,0.51750
148.74053,0.51285
148.49946,0.50798
148.25839,0.50190
148.01732,0.49587
147.77625,0.49183
147.53518,0.49016
147.29411,0.48935
147.05304,0.48773
146.81197,0.48537
146.57090,0.48372
146.32983,0.48383
146.08876,0.48582
145.84769,0.48942
145.60662,0.49393
145.36555,0.49834
145.12448,0.50262
144.88340,0.50851
144.64233,0.51752
144.40126,0.52827
144.16019,0.53678
143.91912,0.53987
143.67805,0.53794
143.43698,0.53343
143.19591,0.52770
142.95484,0.52102
142.71377,0.51404
142.47270,0.50724
142.23163,0.49947
141.99056,0.48890
141.74949,0.47584
141.50842,0.46363
141.26735,0.45612
141.02628,0.45387
140.78521,0.45322
140.54413,0.45032
140.30306,0.44575
140.06199,0.44364
139.82092,0.44665
139.57985,0.45315
139.33878,0.45912
139.09771,0.46267
138.85664,0.46589
138.61557,0.47173
138.37450,0.48068
138.13343,0.49143
137.89236,0.50330
137.65129,0.51601
137.41022,0.52913
137.16915,0.54351
136.92808,0.56122
136.68701,0.58258
136.44594,0.60520
136.20486,0.62750
135.96379,0.65037
135.72272,0.67448
135.48165,0.69913
135.24058,0.72514
134.99951,0.75491
134.75844,0.78769
134.51737,0.81811
134.27630,0.84168
134.03523,0.86071
133.79416,0.88215
133.55309,0.90984
133.31202,0.93968
133.07095,0.96188
132.82988,0.97062
132.58881,0.97159
132.34774,0.97472
132.10667,0.98258
131.86559,0.98949
131.62452,0.98940
131.38345,0.98179
131.14238,0.96959
130.90131,0.95391
130.66024,0.93399
130.41917,0.90809
130.17810,0.87520
129.93703,0.83759
129.69596,0.80134
129.45489,0.77134
129.21382,0.74688
128.97275,0.72365
128.73168,0.69815
128.49061,0.66948
128.24954,0.63922
128.00847,0.61028
127.76740,0.58421
127.52632,0.55989
127.28525,0.53590
127.04418,0.51269
126.80311,0.49118
126.56204,0.47166
126.32097,0.45477
126.07990,0.44133
125.83883,0.43080
125.59776,0.42155
125.35669,0.41203
125.11562,0.40084
124.87455,0.38756
124.63348,0.37443
124.39241,0.36494
124.15134,0.36003
123.91027,0.35709
123.66920,0.35299
123.42812,0.34738
123.18705,0.34292
122.94598,0.34196
122.70491,0.34378
122.46384,0.34589
122.22277,0.34727
121.98170,0.34861
121.74063,0.35025
121.49956,0.35245
121.25849,0.35653
121.01742,0.36384
120.77635,0.37394
120.53528,0.38506
120.29421,0.39544
120.05314,0.40483
119.81207,0.41508
119.57100,0.42890
119.32993,0.44772
119.08885,0.47139
118.84778,0.49863
118.60671,0.52699
118.36564,0.55408
118.12457,0.58017
117.88350,0.60697
117.64243,0.63292
117.40136,0.65299
117.16029,0.66530
116.91922,0.67379
116.67815,0.68156
116.43708,0.68516
116.19601,0.67839
115.95494,0.66052
115.71387,0.63713
115.47280,0.61556
115.23173,0.60066
114.99066,0.59225
114.74958,0.58631
114.50851,0.57911
114.26744,0.57008
114.02637,0.56129
113.78530,0.55553
113.54423,0.55377
113.30316,0.55365
113.06209,0.55208
112.82102,0.54972
112.57995,0.55003
112.33888,0.55426
112.09781,0.56052
111.85674,0.56757
111.61567,0.57703
111.37460,0.59089
111.13353,0.60803
110.89246,0.62317
110.65139,0.63023
110.41031,0.62655
110.16924,0.61409
109.92817,0.59731
109.68710,0.57985
109.44603,0.56292
109.20496,0.54562
108.96389,0.52641
108.72282,0.50534
108.48175,0.48461
108.24068,0.46549
107.99961,0.44659
107.75854,0.42754
107.51747,0.41149
107.27640,0.40115
107.03533,0.39450
106.79426,0.38650
106.55319,0.37421
106.31212,0.35834
106.07104,0.34140
105.82997,0.32603
105.58890,0.31372
105.34783,0.30393
105.10676,0.29534
104.86569,0.28778
104.62462,0.28177
104.38355,0.27667
104.14248,0.27082
103.90141,0.26346
103.66034,0.25549
103.41927,0.24837
103.17820,0.24310
102.93713,0.24013
102.69606,0.23874
102.45499,0.23674
102.21392,0.23227
101.97285,0.22635
101.73177,0.22167
101.49070,0.21904
101.24963,0.21659
101.00856,0.21276
100.76749,0.20827
100.52642,0.20460
100.28535,0.20183
100.04428,0.19888
99.80321,0.19526
99.56214,0.19154
99.32107,0.18852
99.08000,0.18666
98.83893,0.18582
98.59786,0.18527
98.35679,0.18426
98.11572,0.18316
97.87465,0.18337
97.63358,0.18535
97.39250,0.18798
97.15143,0.19056
96.91036,0.19409
96.66929,0.19963
96.42822,0.20650
96.18715,0.21319
95.94608,0.21933
95.70501,0.22604
95.46394,0.23437
95.22287,0.24378
94.98180,0.25226
94.74073,0.25809
94.49966,0.26106
94.25859,0.26216
94.01752,0.26258
93.77645,0.26276
93.53538,0.26247
93.29431,0.26195
93.05323,0.26198
92.81216,0.26259
92.57109,0.26345
92.33002,0.26510
92.08895,0.26816
91.84788,0.27253
91.60681,0.27905
91.36574,0.28961
91.12467,0.30406
90.88360,0.32017
90.64253,0.33823
90.40146,0.36202
90.16039,0.39339
89.91932,0.42932
89.67825,0.46671
89.43718,0.50588
89.19611,0.54637
88.95504,0.58246
88.71396,0.60659
88.47289,0.61409
88.23182,0.60239
87.99075,0.57082
87.74968,0.52422
87.50861,0.47244
87.26754,0.42467
87.02647,0.38532
86.78540,0.35438
86.54433,0.32943
86.30326,0.30737
86.06219,0.28597
85.82112,0.26470
85.58005,0.24434
85.33898,0.22610
85.09791,0.21064
84.85684,0.19767
84.61577,0.18647
84.37469,0.17698
84.13362,0.16984
83.89255,0.16477
83.65148,0.15959
83.41041,0.15240
83.16934,0.14437
82.92827,0.13834
82.68720,0.13503
82.44613,0.13274
82.20506,0.13008
81.96399,0.12709
81.72292,0.12393
81.48185,0.12063
81.24078,0.11778
80.99971,0.11619
80.75864,0.11562
80.51757,0.11488
80.27650,0.11346
80.03542,0.11229
79.79435,0.11265
79.55328,0.11481
79.31221,0.11788
79.07114,0.12013
78.83007,0.11961
78.58900,0.11569
78.34793,0.11024
78.10686,0.10602
77.86579,0.10419
77.62472,0.10419
77.38365,0.10504
77.14258,0.10544
76.90151,0.10379
76.66044,0.09966
76.41937,0.09477
76.17830,0.09127
75.93723,0.08958
75.69615,0.08888
75.45508,0.08900
75.21401,0.09011
74.97294,0.09103
74.73187,0.09001
74.49080,0.08744
74.24973,0.08615
74.00866,0.08786
73.76759,0.09102
73.52652,0.09280
73.28545,0.09244
73.04438,0.09141
72.80331,0.09109
72.56224,0.09180
72.32117,0.09332
72.08010,0.09517
71.83903,0.09667
71.59796,0.09757
71.35688,0.09829
71.11581,0.09985
70.87474,0.10376
70.63367,0.11112
70.39260,0.12109
70.15153,0.13163
69.91046,0.14216
69.66939,0.15399
69.42832,0.16715
69.18725,0.17798
68.94618,0.18150
68.70511,0.17586
68.46404,0.16372
68.22297,0.14985
67.98190,0.13776
67.74083,0.12782
67.49976,0.11819
67.25869,0.10751
67.01761,0.09681
66.77654,0.08889
66.53547,0.08579
66.29440,0.08686
66.05333,0.08946
65.81226,0.09161
65.57119,0.09352
65.33012,0.09632
65.08905,0.10015
64.84798,0.10388
64.60691,0.10652
64.36584,0.10835
64.12477,0.11046
63.88370,0.11296
63.64263,0.11447
63.40156,0.11328
63.16049,0.10883
62.91942,0.10227
62.67834,0.09601
62.43727,0.09219
62.19620,0.09097
61.95513,0.09047
61.71406,0.08890
61.47299,0.08592
61.23192,0.08203
60.99085,0.07785
60.74978,0.07444
60.50871,0.07322
60.26764,0.07462
60.02657,0.07725
59.78550,0.07923
59.54443,0.07988
59.30336,0.07970
59.06229,0.07952
58.82122,0.08011
58.58015,0.08130
58.33907,0.08099
58.09800,0.07669
57.85693,0.06866
57.61586,0.05996
57.37479,0.05359
57.13372,0.05059
56.89265,0.05082
56.65158,0.05343
56.41051,0.05643
56.16944,0.05807
55.92837,0.05898
55.68730,0.06122
55.44623,0.06521
55.20516,0.06892
54.96409,0.06987
54.72302,0.06763
54.48195,0.06509
54.24088,0.06634
53.99980,0.07198
53.75873,0.07769
53.51766,0.07903
53.27659,0.07652
53.03552,0.07392
52.79445,0.07311
52.55338,0.07336
52.31231,0.07425
52.07124,0.07520
51.83017,0.07309
51.58910,0.06576
51.34803,0.05757
51.10696,0.05567
50.86589,0.06050
50.62482,0.06523
50.38375,0.06533
50.14268,0.06341
49.90161,0.06424
49.66053,0.06848
49.41946,0.07286
49.17839,0.07342
48.93732,0.06739
48.69625,0.05617
48.45518,0.04676
48.21411,0.04489
47.97304,0.04707
47.73197,0.04632
47.49090,0.04354
47.24983,0.04388
47.00876,0.04610
46.76769,0.04593
46.52662,0.04559
46.28555,0.05026
46.04448,0.05878
45.80341,0.06491
45.56234,0.06536
45.32126,0.06224
45.08019,0.05882
44.83912,0.05623
44.59805,0.05501
44.35698,0.05633
44.11591,0.05984
43.87484,0.06389
43.63377,0.06820
43.39270,0.07142
43.15163,0.06912
42.91056,0.06006
42.66949,0.05137
42.42842,0.05138
42.18735,0.05910
41.94628,0.06547
41.70521,0.06416
41.46414,0.05825
41.22307,0.05551
40.98199,0.05883
40.74092,0.06419
40.49985,0.06753
40.25878,0.07000
40.01771,0.07503
39.77664,0.08294
39.53557,0.09148
39.29450,0.09978
39.05343,0.10735
38.81236,0.11107
38.57129,0.10856
38.33022,0.10389
38.08915,0.10327
37.84808,0.10616
37.60701,0.10668
37.36594,0.10327
37.12487,0.10172
36.88380,0.10725
36.64272,0.11642
36.40165,0.11973
36.16058,0.11422
35.91951,0.11017
35.67844,0.11646
35.43737,0.12417
35.19630,0.12176
34.95523,0.11631
34.71416,0.12158
34.47309,0.13357
34.23202,0.13890
33.99095,0.13930
33.74988,0.14769
33.50881,0.16792
33.26774,0.18755
33.02667,0.19498
32.78560,0.19936
32.54453,0.21448
32.30345,0.23326
32.06238,0.24115
31.82131,0.23588
31.58024,0.22637
31.33917,0.21858
31.09810,0.20564
30.85703,0.18604
30.61596,0.16990
30.37489,0.16327
30.13382,0.15526
29.89275,0.12984
29.65168,0.09160
29.41061,0.06240
29.16954,0.05589
28.92847,0.06777
28.68740,0.08888
28.44633,0.12131
28.20526,0.17292
27.96418,0.23201
27.72311,0.26243
27.48204,0.24562
27.24097,0.21332
26.99990,0.21433
26.75883,0.26372
26.51776,0.32654
26.27669,0.35438
26.03562,0.33129
25.79455,0.28555
25.55348,0.25214
25.31241,0.24282
25.07134,0.25049
24.83027,0.26574
24.58920,0.28497
24.34813,0.30757
24.10706,0.32710
23.86599,0.34349
23.62491,0.37074
23.38384,0.40482
23.14277,0.43273
22.90170,0.45834
22.66063,0.50442
22.41956,0.56015
22.17849,0.57422
21.93742,0.53418
21.69635,0.47511
21.45528,0.42670
21.21421,0.38496
20.97314,0.34692
20.73207,0.33635
20.49100,0.36280
20.24993,0.41672
20.00886,0.49636
19.76779,0.58262
19.52672,0.62143
19.28564,0.60492
19.04457,0.59546
18.80350,0.56972
18.56243,0.51509
18.32136,0.48843
18.08029,0.51850
17.83922,0.62661
17.59815,0.80355
17.35708,0.99379
17.11601,1.15210
16.87494,1.01875
16.63387,0.75084
16.39280,0.60486
16.15173,0.58862
15.91066,0.66432
15.66959,0.77957
15.42852,0.83846
15.18745,0.76256
14.94637,0.59026
14.70530,0.48515
14.46423,0.50362
14.22316,0.50392
13.98209,0.50033
13.74102,0.47867
13.49995,0.48381
13.25888,0.55079
13.01781,0.68706
12.77674,0.89123
12.53567,1.02936
12.29460,0.85255
12.05353,0.66977
11.81246,0.62132
11.57139,0.67631
11.33032,0.76331
11.08925,0.71674
10.84818,0.63475
10.60710,0.57678
10.36603,0.58144
10.12496,0.66285
9.88389,0.80348
9.64282,0.91921
9.40175,0.85445
9.16068,0.73404
8.91961,0.68012
8.67854,0.75408
8.43747,0.98936
8.19640,1.10304
7.95533,0.91977
7.71426,0.84225
7.47319,0.96889
7.23212,0.87530
6.99105,0.65808
6.74998,0.60022
6.50891,0.62808
6.26783,0.66601
6.02676,0.71492
5.78569,0.84676
5.54462,0.92400
5.30355,0.82035
5.06248,0.78950
4.82141,0.93811
4.58034,1.17418
4.33927,0.96867
4.09820,0.84360
3.85713,0.87161
3.61606,0.94015
3.37499,0.96806
3.13392,1.11837
2.89285,1.17369
2.65178,0.93118
2.41071,0.85355
2.16964,0.83739
1.92856,0.77035
1.68749,0.70980
1.44642,0.71619
1.20535,0.74188
0.96428,0.78917
0.72321,0.81325
0.48214,0.74985
0.24107,0.58925
-0.00000,0.07748
