399.69498,1.57273
399.45391,1.57024
399.21284,1.56091
398.97177,1.55200
398.73070,1.54889
398.48963,1.55402
398.24856,1.56219
398.00749,1.55509
397.76642,1.52047
397.52535,1.47780
397.28428,1.46016
397.04321,1.47926
396.80214,1.51728
396.56107,1.54419
396.32000,1.54695
396.07892,1.53887
395.83785,1.53748
395.59678,1.54454
395.35571,1.54840
395.11464,1.54017
394.87357,1.52322
394.63250,1.50539
394.39143,1.49122
394.15036,1.48407
393.90929,1.48635
393.66822,1.49808
393.42715,1.51872
393.18608,1.54594
392.94501,1.56963
392.70394,1.57512
392.46287,1.56024
392.22180,1.53799
391.98073,1.52187
391.73965,1.51551
391.49858,1.51337
391.25751,1.50741
391.01644,1.49295
390.77537,1.47479
390.53430,1.46606
390.29323,1.47796
390.05216,1.50866
389.81109,1.54042
389.57002,1.55391
389.32895,1.54500
389.08788,1.52159
388.84681,1.49389
388.60574,1.47337
388.36467,1.47210
388.12360,1.49027
387.88253,1.50627
387.64146,1.49818
387.40038,1.47640
387.15931,1.46748
386.91824,1.47631
386.67717,1.48125
386.43610,1.46333
386.19503,1.43421
385.95396,1.41963
385.71289,1.42623
385.47182,1.43477
385.23075,1.42528
384.98968,1.40181
384.74861,1.37827
384.50754,1.35932
384.26647,1.34349
384.02540,1.33150
383.78433,1.32556
383.54326,1.32583
383.30219,1.32786
383.06111,1.32613
382.82004,1.32501
382.57897,1.32964
382.33790,1.33819
382.09683,1.34619
381.85576,1.34742
381.61469,1.33632
381.37362,1.31476
381.13255,1.29048
380.89148,1.26964
380.65041,1.25563
380.40934,1.25299
380.16827,1.26678
379.92720,1.29183
379.68613,1.30971
379.44506,1.31097
379.20399,1.31169
378.96292,1.32695
378.72184,1.34574
378.48077,1.34437
378.23970,1.31917
377.99863,1.29467
377.75756,1.29594
377.51649,1.32505
377.27542,1.36112
377.03435,1.37988
376.79328,1.37787
376.55221,1.36718
376.31114,1.35451
376.07007,1.34354
375.82900,1.34322
375.58793,1.35841
375.34686,1.38070
375.10579,1.39540
374.86472,1.39578
374.62365,1.39246
374.38257,1.40125
374.14150,1.41888
373.90043,1.42427
373.65936,1.40874
373.41829,1.38892
373.17722,1.38505
372.93615,1.39945
372.69508,1.41544
372.45401,1.41585
372.21294,1.40288
371.97187,1.39208
371.73080,1.39147
371.48973,1.39376
371.24866,1.38724
371.00759,1.36964
370.76652,1.34828
370.52545,1.33107
370.28437,1.32289
370.04330,1.32580
369.80223,1.33630
369.56116,1.34623
369.32009,1.35089
369.07902,1.35191
368.83795,1.34955
368.59688,1.33894
368.35581,1.31859
368.11474,1.29507
367.87367,1.27722
367.63260,1.27134
367.39153,1.27738
367.15046,1.28625
366.90939,1.28638
366.66832,1.27661
366.42725,1.26589
366.18618,1.25982
365.94510,1.25616
365.70403,1.25376
365.46296,1.25656
365.22189,1.26439
364.98082,1.26867
364.73975,1.26360
364.49868,1.25548
364.25761,1.25386
364.01654,1.25875
363.77547,1.26322
363.53440,1.26509
363.29333,1.26773
363.05226,1.26996
362.81119,1.26555
362.57012,1.25447
362.32905,1.24481
362.08798,1.24185
361.84691,1.24396
361.60583,1.24824
361.36476,1.25341
361.12369,1.25561
360.88262,1.24863
360.64155,1.23289
360.40048,1.21874
360.15941,1.21771
359.91834,1.23143
359.67727,1.24945
359.43620,1.25982
359.19513,1.25944
358.95406,1.25159
358.71299,1.24035
358.47192,1.23040
358.23085,1.22429
357.98978,1.21968
357.74871,1.21409
357.50764,1.20923
357.26656,1.20633
357.02549,1.20217
356.78442,1.19496
356.54335,1.19003
356.30228,1.19396
356.06121,1.20511
355.82014,1.21498
355.57907,1.21935
355.33800,1.22112
355.09693,1.22266
354.85586,1.22361
354.61479,1.22371
354.37372,1.22184
354.13265,1.21627
353.89158,1.20889
353.65051,1.20436
353.40944,1.20493
353.16837,1.20901
352.92729,1.21291
352.68622,1.21318
352.44515,1.20966
352.20408,1.20595
351.96301,1.20596
351.72194,1.20954
351.48087,1.21277
351.23980,1.21449
350.99873,1.21769
350.75766,1.22265
350.51659,1.22472
350.27552,1.22201
350.03445,1.21958
349.79338,1.22250
349.55231,1.23111
349.31124,1.24305
349.07017,1.25594
348.82910,1.26793
348.58802,1.27620
348.34695,1.27739
348.10588,1.27231
347.86481,1.26579
347.62374,1.26085
347.38267,1.25676
347.14160,1.25368
346.90053,1.25351
346.65946,1.25672
346.41839,1.26354
346.17732,1.27434
345.93625,1.28662
345.69518,1.29433
345.45411,1.29494
345.21304,1.29384
344.97197,1.29638
344.73090,1.30089
344.48983,1.30062
344.24875,1.29414
344.00768,1.29014
343.76661,1.29617
343.52554,1.31052
343.28447,1.32690
343.04340,1.34152
342.80233,1.35373
342.56126,1.36336
342.32019,1.36973
342.07912,1.37073
341.83805,1.36084
341.59698,1.33973
341.35591,1.32131
341.11484,1.32165
340.87377,1.34152
340.63270,1.36325
340.39163,1.36998
340.15056,1.36633
339.90948,1.36388
339.66841,1.36741
339.42734,1.38088
339.18627,1.40708
338.94520,1.44174
338.70413,1.46948
338.46306,1.47352
338.22199,1.45686
337.98092,1.43967
337.73985,1.43362
337.49878,1.43368
337.25771,1.42778
337.01664,1.41093
336.77557,1.39357
336.53450,1.39065
336.29343,1.40535
336.05236,1.42820
335.81129,1.44714
335.57021,1.45505
335.32914,1.45034
335.08807,1.43484
334.84700,1.41347
334.60593,1.39174
334.36486,1.37168
334.12379,1.35774
333.88272,1.35850
333.64165,1.37158
333.40058,1.38067
333.15951,1.37385
332.91844,1.35685
332.67737,1.34496
332.43630,1.34528
332.19523,1.35011
331.95416,1.34783
331.71309,1.33694
331.47202,1.32787
331.23094,1.33249
330.98987,1.35253
330.74880,1.37465
330.50773,1.37961
330.26666,1.36476
330.02559,1.34643
329.78452,1.33583
329.54345,1.32862
329.30238,1.31858
329.06131,1.30919
328.82024,1.30645
328.57917,1.30915
328.33810,1.31277
328.09703,1.31656
327.85596,1.32030
327.61489,1.32109
327.37382,1.31704
327.13275,1.30993
326.89167,1.30320
326.65060,1.29847
326.40953,1.29846
326.16846,1.30833
325.92739,1.32642
325.68632,1.33934
325.44525,1.33896
325.20418,1.33136
324.96311,1.31880
324.72204,1.29694
324.48097,1.27083
324.23990,1.25597
323.99883,1.26139
323.75776,1.27962
323.51669,1.29508
323.27562,1.30081
323.03455,1.30107
322.79348,1.29992
322.55240,1.29789
322.31133,1.29811
322.07026,1.30636
321.82919,1.32079
321.58812,1.33006
321.34705,1.32846
321.10598,1.32290
320.86491,1.31962
320.62384,1.31573
320.38277,1.30886
320.14170,1.30344
319.90063,1.30185
319.65956,1.30115
319.41849,1.30201
319.17742,1.30692
318.93635,1.31552
318.69528,1.33248
318.45421,1.36095
318.21313,1.38415
317.97206,1.37833
317.73099,1.34836
317.48992,1.32031
317.24885,1.30729
317.00778,1.30920
316.76671,1.32270
316.52564,1.33841
316.28457,1.34966
316.04350,1.35867
315.80243,1.36795
315.56136,1.37655
315.32029,1.38393
315.07922,1.38628
314.83815,1.37622
314.59708,1.35359
314.35601,1.33167
314.11494,1.32730
313.87386,1.34555
313.63279,1.37255
313.39172,1.38646
313.15065,1.38442
312.90958,1.38397
312.66851,1.39522
312.42744,1.40820
312.18637,1.41035
311.94530,1.40592
311.70423,1.40531
311.46316,1.40565
311.22209,1.39753
310.98102,1.38305
310.73995,1.36987
310.49888,1.35774
310.25781,1.34596
310.01674,1.34254
309.77567,1.35550
309.53459,1.38057
309.29352,1.40452
309.05245,1.42082
308.81138,1.43088
308.57031,1.43182
308.32924,1.41813
308.08817,1.39436
307.84710,1.37649
307.60603,1.37688
307.36496,1.39258
307.12389,1.41235
306.88282,1.42636
306.64175,1.42598
306.40068,1.41013
306.15961,1.39191
305.91854,1.38990
305.67747,1.40733
305.43640,1.42781
305.19532,1.43725
304.95425,1.43207
304.71318,1.41338
304.47211,1.39013
304.23104,1.37224
303.98997,1.36260
303.74890,1.35910
303.50783,1.35845
303.26676,1.35762
303.02569,1.35380
302.78462,1.34624
302.54355,1.33888
302.30248,1.33645
302.06141,1.33833
301.82034,1.33915
301.57927,1.33430
301.33820,1.32363
301.09713,1.31078
300.85605,1.30015
300.61498,1.29255
300.37391,1.28492
300.13284,1.27633
299.89177,1.26964
299.65070,1.26812
299.40963,1.27308
299.16856,1.27969
298.92749,1.27922
298.68642,1.27098
298.44535,1.26295
298.20428,1.25870
297.96321,1.25345
297.72214,1.24333
297.48107,1.23166
297.24000,1.22562
296.99893,1.23000
296.75786,1.24197
296.51678,1.25092
296.27571,1.24748
296.03464,1.23259
295.79357,1.21414
295.55250,1.19810
295.31143,1.18754
295.07036,1.18528
294.82929,1.19110
294.58822,1.19830
294.34715,1.19909
294.10608,1.19430
293.86501,1.19246
293.62394,1.19785
293.38287,1.20344
293.14180,1.19892
292.90073,1.18541
292.65966,1.17511
292.41859,1.17590
292.17751,1.18443
291.93644,1.19151
291.69537,1.19065
291.45430,1.18253
291.21323,1.17236
290.97216,1.16551
290.73109,1.16353
290.49002,1.16303
290.24895,1.16048
290.00788,1.15724
289.76681,1.15661
289.52574,1.15726
289.28467,1.15453
289.04360,1.14840
288.80253,1.14398
288.56146,1.14322
288.32039,1.14215
288.07932,1.13772
287.83824,1.13297
287.59717,1.13222
287.35610,1.13485
287.11503,1.13618
286.87396,1.13341
286.63289,1.12859
286.39182,1.12556
286.15075,1.12533
285.90968,1.12438
285.66861,1.11887
285.42754,1.11145
285.18647,1.10944
284.94540,1.11412
284.70433,1.11745
284.46326,1.11308
284.22219,1.10565
283.98112,1.10331
283.74005,1.10656
283.49897,1.10946
283.25790,1.10864
283.01683,1.10675
282.77576,1.10748
282.53469,1.11135
282.29362,1.11647
282.05255,1.12038
281.81148,1.12139
281.57041,1.11955
281.32934,1.11654
281.08827,1.11472
280.84720,1.11548
280.60613,1.11756
280.36506,1.11728
280.12399,1.11314
279.88292,1.10952
279.64185,1.11110
279.40078,1.11534
279.15970,1.11641
278.91863,1.11460
278.67756,1.11465
278.43649,1.11731
278.19542,1.11912
277.95435,1.11823
277.71328,1.11602
277.47221,1.11530
277.23114,1.11849
276.99007,1.12481
276.74900,1.12949
276.50793,1.12891
276.26686,1.12529
276.02579,1.12369
275.78472,1.12715
275.54365,1.13522
275.30258,1.14346
275.06151,1.14514
274.82043,1.13837
274.57936,1.12952
274.33829,1.12577
274.09722,1.12810
273.85615,1.13326
273.61508,1.13849
273.37401,1.14239
273.13294,1.14497
272.89187,1.14829
272.65080,1.15399
272.40973,1.16084
272.16866,1.16662
271.92759,1.17040
271.68652,1.17140
271.44545,1.16881
271.20438,1.16539
270.96331,1.16770
270.72224,1.17939
270.48116,1.19585
270.24009,1.20749
269.99902,1.20858
269.75795,1.20097
269.51688,1.19022
269.27581,1.18192
269.03474,1.18090
268.79367,1.18936
268.55260,1.20578
268.31153,1.22499
268.07046,1.23798
267.82939,1.23805
267.58832,1.23009
267.34725,1.22645
267.10618,1.23400
266.86511,1.24972
266.62404,1.26702
266.38297,1.28187
266.14189,1.29220
265.90082,1.29622
265.65975,1.29487
265.41868,1.29363
265.17761,1.29891
264.93654,1.31239
264.69547,1.32879
264.45440,1.33945
264.21333,1.34083
263.97226,1.33889
263.73119,1.34290
263.49012,1.35599
263.24905,1.37382
263.00798,1.39182
262.76691,1.41021
262.52584,1.43155
262.28477,1.45660
262.04370,1.48319
261.80262,1.50907
261.56155,1.53234
261.32048,1.54877
261.07941,1.55573
260.83834,1.56201
260.59727,1.58494
260.35620,1.62835
260.11513,1.67401
259.87406,1.70269
259.63299,1.71784
259.39192,1.73091
259.15085,1.74449
258.90978,1.75971
258.66871,1.77843
258.42764,1.80453
258.18657,1.83769
257.94550,1.87133
257.70443,1.89610
257.46335,1.89838
257.22228,1.87307
256.98121,1.82958
256.74014,1.78469
256.49907,1.75410
256.25800,1.73680
256.01693,1.72356
255.77586,1.71889
255.53479,1.73595
255.29372,1.76836
255.05265,1.78365
254.81158,1.75877
254.57051,1.70828
254.32944,1.66067
254.08837,1.63221
253.84730,1.63047
253.60623,1.64938
253.36516,1.66180
253.12408,1.64705
252.88301,1.61500
252.64194,1.58836
252.40087,1.57900
252.15980,1.58539
251.91873,1.59790
251.67766,1.60224
251.43659,1.59019
251.19552,1.56803
250.95445,1.54877
250.71338,1.53835
250.47231,1.53226
250.23124,1.52473
249.99017,1.51802
249.74910,1.51909
249.50803,1.52951
249.26696,1.54127
249.02589,1.54450
248.78481,1.53941
248.54374,1.53446
248.30267,1.53313
248.06160,1.53229
247.82053,1.53040
247.57946,1.52951
247.33839,1.53024
247.09732,1.53135
246.85625,1.53449
246.61518,1.54205
246.37411,1.55155
246.13304,1.55982
245.89197,1.56966
245.65090,1.58445
245.40983,1.60026
245.16876,1.61190
244.92769,1.62425
244.68661,1.65044
244.44554,1.69860
244.20447,1.76184
243.96340,1.82356
243.72233,1.87374
243.48126,1.91110
243.24019,1.93219
242.99912,1.93106
242.75805,1.89284
242.51698,1.82320
242.27591,1.75788
242.03484,1.70190
241.79377,1.64134
241.55270,1.56514
241.31163,1.47910
241.07056,1.39793
240.82949,1.32991
240.58842,1.27701
240.34734,1.23734
240.10627,1.20480
239.86520,1.17274
239.62413,1.13933
239.38306,1.10738
239.14199,1.08014
238.90092,1.05846
238.65985,1.04036
238.41878,1.02192
238.17771,0.99997
237.93664,0.97531
237.69557,0.95260
237.45450,0.93590
237.21343,0.92533
236.97236,0.91845
236.73129,0.91225
236.49022,0.90334
236.24915,0.88995
236.00807,0.87551
235.76700,0.86546
235.52593,0.85964
235.28486,0.85277
235.04379,0.84276
234.80272,0.83345
234.56165,0.82845
234.32058,0.82661
234.07951,0.82458
233.83844,0.82155
233.59737,0.81944
233.35630,0.81948
233.11523,0.82017
232.87416,0.81938
232.63309,0.81729
232.39202,0.81571
232.15095,0.81488
231.90988,0.81338
231.66880,0.81122
231.42773,0.80998
231.18666,0.80931
230.94559,0.80637
230.70452,0.80040
230.46345,0.79488
230.22238,0.79293
229.98131,0.79349
229.74024,0.79371
229.49917,0.79387
229.25810,0.79650
229.01703,0.80153
228.77596,0.80595
228.53489,0.80780
228.29382,0.80705
228.05275,0.80398
227.81168,0.79922
227.57061,0.79333
227.32953,0.78646
227.08846,0.78029
226.84739,0.77783
226.60632,0.77934
226.36525,0.78165
226.12418,0.78339
225.88311,0.78666
225.64204,0.79217
225.40097,0.79695
225.15990,0.79795
224.91883,0.79549
224.67776,0.79260
224.43669,0.79238
224.19562,0.79631
223.95455,0.80401
223.71348,0.81285
223.47241,0.81932
223.23134,0.82285
222.99026,0.82623
222.74919,0.83061
222.50812,0.83423
222.26705,0.83662
222.02598,0.83950
221.78491,0.84369
221.54384,0.84930
221.30277,0.85726
221.06170,0.86797
220.82063,0.88048
220.57956,0.89330
220.33849,0.90423
220.09742,0.91124
219.85635,0.91489
219.61528,0.91871
219.37421,0.92592
219.13314,0.93690
218.89207,0.95023
218.65099,0.96511
218.40992,0.98289
218.16885,1.00441
217.92778,1.02557
217.68671,1.04041
217.44564,1.04922
217.20457,1.05766
216.96350,1.06902
216.72243,1.08255
216.48136,1.09726
216.24029,1.11235
215.99922,1.12567
215.75815,1.13672
215.51708,1.14882
215.27601,1.16392
215.03494,1.18051
214.79387,1.19959
214.55280,1.22421
214.31172,1.25148
214.07065,1.27273
213.82958,1.28200
213.58851,1.28068
213.34744,1.27669
213.10637,1.27920
212.86530,1.29208
212.62423,1.31260
212.38316,1.33530
212.14209,1.35336
211.90102,1.35939
211.65995,1.35200
211.41888,1.33870
211.17781,1.32886
210.93674,1.32850
210.69567,1.33912
210.45460,1.35560
210.21353,1.36866
209.97245,1.37345
209.73138,1.37152
209.49031,1.36461
209.24924,1.35345
209.00817,1.34136
208.76710,1.33359
208.52603,1.33230
208.28496,1.33358
208.04389,1.33112
207.80282,1.32374
207.56175,1.31430
207.32068,1.30205
207.07961,1.28896
206.83854,1.28180
206.59747,1.27945
206.35640,1.27183
206.11533,1.25216
205.87426,1.22350
205.63318,1.19376
205.39211,1.16863
205.15104,1.14970
204.90997,1.13739
204.66890,1.13199
204.42783,1.12997
204.18676,1.12321
203.94569,1.10677
203.70462,1.08425
203.46355,1.06270
203.22248,1.04623
202.98141,1.03426
202.74034,1.02209
202.49927,1.00470
202.25820,0.98269
202.01713,0.96118
201.77606,0.94308
201.53499,0.92784
201.29391,0.91440
201.05284,0.90200
200.81177,0.88910
200.57070,0.87435
200.32963,0.85921
200.08856,0.84740
199.84749,0.84048
199.60642,0.83558
199.36535,0.82816
199.12428,0.81635
198.88321,0.80194
198.64214,0.78727
198.40107,0.77317
198.16000,0.76079
197.91893,0.75220
197.67786,0.74667
197.43679,0.73940
197.19572,0.72740
196.95464,0.71378
196.71357,0.70312
196.47250,0.69588
196.23143,0.68857
195.99036,0.67795
195.74929,0.66538
195.50822,0.65582
195.26715,0.65194
195.02608,0.65104
194.78501,0.64755
194.54394,0.63857
194.30287,0.62740
194.06180,0.62007
193.82073,0.61829
193.57966,0.61786
193.33859,0.61389
193.09752,0.60627
192.85645,0.59906
192.61537,0.59522
192.37430,0.59373
192.13323,0.59151
191.89216,0.58744
191.65109,0.58353
191.41002,0.58183
191.16895,0.58161
190.92788,0.58048
190.68681,0.57789
190.44574,0.57590
190.20467,0.57561
189.96360,0.57464
189.72253,0.57013
189.48146,0.56338
189.24039,0.55884
188.99932,0.55884
188.75825,0.56106
188.51718,0.56191
188.27610,0.56085
188.03503,0.55904
187.79396,0.55577
187.55289,0.55022
187.31182,0.54528
187.07075,0.54495
186.82968,0.54903
186.58861,0.55315
186.34754,0.55358
186.10647,0.55065
185.86540,0.54723
185.62433,0.54551
185.38326,0.54593
185.14219,0.54853
184.90112,0.55314
184.66005,0.55774
184.41898,0.55953
184.17791,0.55935
183.93683,0.56104
183.69576,0.56532
183.45469,0.56857
183.21362,0.56967
182.97255,0.57200
182.73148,0.57619
182.49041,0.57847
182.24934,0.57750
182.00827,0.57586
181.76720,0.57511
181.52613,0.57513
181.28506,0.57629
181.04399,0.57789
180.80292,0.57828
180.56185,0.57838
180.32078,0.58053
180.07971,0.58438
179.83864,0.58852
179.59756,0.59398
179.35649,0.60226
179.11542,0.61176
178.87435,0.61960
178.63328,0.62573
178.39221,0.63287
178.15114,0.64280
177.91007,0.65453
177.66900,0.66631
177.42793,0.67778
177.18686,0.68979
176.94579,0.70358
176.70472,0.72041
176.46365,0.74012
176.22258,0.76038
175.98151,0.77930
175.74044,0.79751
175.49937,0.81608
175.25829,0.83474
175.01722,0.85318
174.77615,0.87227
174.53508,0.89268
174.29401,0.91369
174.05294,0.93440
173.81187,0.95542
173.57080,0.97713
173.32973,0.99820
173.08866,1.01803
172.84759,1.03717
172.60652,1.05345
172.36545,1.06201
172.12438,1.06171
171.88331,1.05683
171.64224,1.05138
171.40117,1.04609
171.16010,1.04066
170.91902,1.03553
170.67795,1.03073
170.43688,1.02464
170.19581,1.01547
169.95474,1.00444
169.71367,0.99512
169.47260,0.98989
169.23153,0.98815
168.99046,0.98697
168.74939,0.98254
168.50832,0.97305
168.26725,0.96121
168.02618,0.95215
167.78511,0.94838
167.54404,0.94812
167.30297,0.94901
167.06190,0.95220
166.82083,0.96043
166.57975,0.97301
166.33868,0.98493
166.09761,0.99105
165.85654,0.99041
165.61547,0.98665
165.37440,0.98494
165.13333,0.98930
164.89226,1.00107
164.65119,1.01812
164.41012,1.03672
164.16905,1.05428
163.92798,1.06900
163.68691,1.07910
163.44584,1.08566
163.20477,1.09309
162.96370,1.10509
162.72263,1.12212
162.48156,1.14146
162.24048,1.15903
161.99941,1.17176
161.75834,1.17902
161.51727,1.18283
161.27620,1.18601
161.03513,1.18761
160.79406,1.18168
160.55299,1.16742
160.31192,1.15358
160.07085,1.14695
159.82978,1.14518
159.58871,1.14256
159.34764,1.13690
159.10657,1.12891
158.86550,1.11962
158.62443,1.11083
158.38336,1.10552
158.14229,1.10439
157.90121,1.10301
157.66014,1.09625
157.41907,1.08395
157.17800,1.06996
156.93693,1.05859
156.69586,1.05410
156.45479,1.05814
156.21372,1.06402
155.97265,1.06172
155.73158,1.04980
155.49051,1.03332
155.24944,1.01741
155.00837,1.00657
154.76730,1.00109
154.52623,0.99402
154.28516,0.97765
154.04409,0.95268
153.80302,0.92688
153.56194,0.90625
153.32087,0.88981
153.07980,0.87231
152.83873,0.85104
152.59766,0.82861
152.35659,0.80788
152.11552,0.78732
151.87445,0.76423
151.63338,0.73985
151.39231,0.71839
151.15124,0.70275
150.91017,0.69188
150.66910,0.68160
150.42803,0.66832
150.18696,0.65191
149.94589,0.63455
149.70482,0.61891
149.46375,0.60789
149.22267,0.60258
148.98160,0.59941
148.74053,0.59276
148.49946,0.58155
148.25839,0.57028
148.01732,0.56347
147.77625,0.56173
147.53518,0.56225
147.29411,0.56125
147.05304,0.55744
146.81197,0.55396
146.57090,0.55509
146.32983,0.56088
146.08876,0.56691
145.84769,0.57021
145.60662,0.57279
145.36555,0.57782
145.12448,0.58519
144.88340,0.59247
144.64233,0.59799
144.40126,0.60180
144.16019,0.60484
143.91912,0.60752
143.67805,0.60867
143.43698,0.60639
143.19591,0.60031
142.95484,0.59226
142.71377,0.58374
142.47270,0.57410
142.23163,0.56250
141.99056,0.55066
141.74949,0.54134
141.50842,0.53485
141.26735,0.52918
141.02628,0.52348
140.78521,0.51926
140.54413,0.51782
140.30306,0.51805
140.06199,0.51804
139.82092,0.51785
139.57985,0.51944
139.33878,0.52390
139.09771,0.53015
138.85664,0.53689
138.61557,0.54459
138.37450,0.55441
138.13343,0.56627
137.89236,0.57967
137.65129,0.59454
137.41022,0.61065
137.16915,0.62807
136.92808,0.64847
136.68701,0.67276
136.44594,0.69831
136.20486,0.72199
135.96379,0.74509
135.72272,0.77157
135.48165,0.80310
135.24058,0.83759
134.99951,0.87105
134.75844,0.90134
134.51737,0.93067
134.27630,0.96247
134.03523,0.99715
133.79416,1.03381
133.55309,1.07312
133.31202,1.11366
133.07095,1.14904
132.82988,1.17392
132.58881,1.19067
132.34774,1.20554
132.10667,1.21866
131.86559,1.22289
131.62452,1.21589
131.38345,1.20464
131.14238,1.19091
130.90131,1.16494
130.66024,1.12253
130.41917,1.07420
130.17810,1.03038
129.93703,0.99181
129.69596,0.95620
129.45489,0.92243
129.21382,0.88748
128.97275,0.84747
128.73168,0.80342
128.49061,0.76122
128.24954,0.72483
128.00847,0.69328
127.76740,0.66430
127.52632,0.63776
127.28525,0.61432
127.04418,0.59318
126.80311,0.57329
126.56204,0.55513
126.32097,0.53948
126.07990,0.52574
125.83883,0.51255
125.59776,0.49940
125.35669,0.48723
125.11562,0.47713
124.87455,0.46895
124.63348,0.46093
124.39241,0.45095
124.15134,0.43864
123.91027,0.42671
123.66920,0.41910
123.42812,0.41729
123.18705,0.41863
122.94598,0.41914
122.70491,0.41745
122.46384,0.41560
122.22277,0.41612
121.98170,0.41937
121.74063,0.42371
121.49956,0.42793
121.25849,0.43252
121.01742,0.43856
120.77635,0.44623
120.53528,0.45498
120.29421,0.46467
120.05314,0.47588
119.81207,0.48953
119.57100,0.50682
119.32993,0.52906
119.08885,0.55632
118.84778,0.58761
118.60671,0.62288
118.36564,0.66274
118.12457,0.70481
117.88350,0.74347
117.64243,0.77477
117.40136,0.79787
117.16029,0.81150
116.91922,0.81412
116.67815,0.80722
116.43708,0.79471
116.19601,0.77969
115.95494,0.76287
115.71387,0.74380
115.47280,0.72396
115.23173,0.70735
114.99066,0.69678
114.74958,0.69096
114.50851,0.68657
114.26744,0.68247
114.02637,0.68049
113.78530,0.68156
113.54423,0.68256
113.30316,0.67925
113.06209,0.67198
112.82102,0.66515
112.57995,0.66221
112.33888,0.66431
112.09781,0.67195
111.85674,0.68555
111.61567,0.70590
111.37460,0.73247
111.13353,0.75800
110.89246,0.76928
110.65139,0.75998
110.41031,0.73766
110.16924,0.71429
109.92817,0.69643
109.68710,0.68557
109.44603,0.68156
109.20496,0.68190
108.96389,0.67908
108.72282,0.66354
108.48175,0.63345
108.24068,0.59776
107.99961,0.56562
107.75854,0.53980
107.51747,0.52065
107.27640,0.50840
107.03533,0.50038
106.79426,0.49093
106.55319,0.47590
106.31212,0.45558
106.07104,0.43338
105.82997,0.41339
105.58890,0.39796
105.34783,0.38642
105.10676,0.37684
104.86569,0.36812
104.62462,0.35993
104.38355,0.35177
104.14248,0.34290
103.90141,0.33377
103.66034,0.32646
103.41927,0.32243
103.17820,0.32076
102.93713,0.31918
102.69606,0.31615
102.45499,0.31113
102.21392,0.30405
101.97285,0.29593
101.73177,0.28954
101.49070,0.28733
101.24963,0.28831
101.00856,0.28836
100.76749,0.28434
100.52642,0.27667
100.28535,0.26836
100.04428,0.26339
99.80321,0.26461
99.56214,0.26993
99.32107,0.27160
99.08000,0.26411
98.83893,0.25249
98.59786,0.24679
98.35679,0.25106
98.11572,0.26006
97.87465,0.26402
97.63358,0.25882
97.39250,0.25082
97.15143,0.24880
96.91036,0.25548
96.66929,0.26610
96.42822,0.27298
96.18715,0.27466
95.94608,0.27812
95.70501,0.28879
95.46394,0.30375
95.22287,0.31547
94.98180,0.32133
94.74073,0.32577
94.49966,0.33157
94.25859,0.33531
94.01752,0.33405
93.77645,0.33258
93.53538,0.33714
93.29431,0.34520
93.05323,0.34787
92.81216,0.34384
92.57109,0.34222
92.33002,0.34699
92.08895,0.35059
91.84788,0.34945
91.60681,0.35235
91.36574,0.36409
91.12467,0.37853
90.88360,0.39354
90.64253,0.41680
90.40146,0.45149
90.16039,0.49263
89.91932,0.53918
89.67825,0.59360
89.43718,0.65010
89.19611,0.69915
88.95504,0.73653
88.71396,0.75832
88.47289,0.75914
88.23182,0.73836
87.99075,0.69982
87.74968,0.64939
87.50861,0.59482
87.26754,0.54334
87.02647,0.49805
86.78540,0.45747
86.54433,0.41971
86.30326,0.38658
86.06219,0.36096
85.82112,0.34094
85.58005,0.32133
85.33898,0.30003
85.09791,0.27912
84.85684,0.26080
84.61577,0.24547
84.37469,0.23266
84.13362,0.22209
83.89255,0.21411
83.65148,0.20899
83.41041,0.20591
83.16934,0.20336
82.92827,0.20044
82.68720,0.19722
82.44613,0.19432
82.20506,0.19218
81.96399,0.19050
81.72292,0.18851
81.48185,0.18615
81.24078,0.18431
80.99971,0.18364
80.75864,0.18391
80.51757,0.18465
80.27650,0.18536
80.03542,0.18501
79.79435,0.18279
79.55328,0.17970
79.31221,0.17782
79.07114,0.17769
78.83007,0.17775
78.58900,0.17647
78.34793,0.17363
78.10686,0.16994
77.86579,0.16672
77.62472,0.16558
77.38365,0.16684
77.14258,0.16838
76.90151,0.16739
76.66044,0.16363
76.41937,0.15973
76.17830,0.15828
75.93723,0.15950
75.69615,0.16168
75.45508,0.16268
75.21401,0.16084
74.97294,0.15588
74.73187,0.14978
74.49080,0.14625
74.24973,0.14769
74.00866,0.15281
73.76759,0.15812
73.52652,0.16133
73.28545,0.16232
73.04438,0.16221
72.80331,0.16239
72.56224,0.16380
72.32117,0.16607
72.08010,0.16803
71.83903,0.16889
71.59796,0.16839
71.35688,0.16689
71.11581,0.16551
70.87474,0.16548
70.63367,0.16813
70.39260,0.17591
70.15153,0.19215
69.91046,0.21803
69.66939,0.24965
69.42832,0.27816
69.18725,0.29301
68.94618,0.28849
68.70511,0.26883
68.46404,0.24359
68.22297,0.21936
67.98190,0.19824
67.74083,0.18145
67.49976,0.17025
67.25869,0.16385
67.01761,0.15967
66.77654,0.15604
66.53547,0.15291
66.29440,0.15014
66.05333,0.14749
65.81226,0.14619
65.57119,0.14858
65.33012,0.15611
65.08905,0.16823
64.84798,0.18291
64.60691,0.19736
64.36584,0.20854
64.12477,0.21444
63.88370,0.21543
63.64263,0.21353
63.40156,0.20971
63.16049,0.20332
62.91942,0.19431
62.67834,0.18453
62.43727,0.17652
62.19620,0.17191
61.95513,0.16985
61.71406,0.16715
61.47299,0.16141
61.23192,0.15364
60.99085,0.14602
60.74978,0.13854
60.50871,0.13013
60.26764,0.12127
60.02657,0.11380
59.78550,0.10899
59.54443,0.10691
59.30336,0.10771
59.06229,0.11276
58.82122,0.12354
58.58015,0.13892
58.33907,0.15577
58.09800,0.17308
57.85693,0.19287
57.61586,0.21381
57.37479,0.22507
57.13372,0.21516
56.89265,0.18678
56.65158,0.15223
56.41051,0.12247
56.16944,0.10325
55.92837,0.09650
55.68730,0.10394
55.44623,0.12742
55.20516,0.16447
54.96409,0.20217
54.72302,0.21735
54.48195,0.19789
54.24088,0.16069
53.99980,0.12829
53.75873,0.11229
53.51766,0.11652
53.27659,0.14084
53.03552,0.17934
52.79445,0.21398
52.55338,0.21937
52.31231,0.19353
52.07124,0.15933
51.83017,0.13392
51.58910,0.12564
51.34803,0.13937
51.10696,0.17193
50.86589,0.20178
50.62482,0.19533
50.38375,0.15420
50.14268,0.11560
49.90161,0.10616
49.66053,0.13781
49.41946,0.20018
49.17839,0.22383
48.93732,0.16614
48.69625,0.10759
48.45518,0.09548
48.21411,0.13891
47.97304,0.21044
47.73197,0.21818
47.49090,0.15946
47.24983,0.12766
47.00876,0.14354
46.76769,0.16089
46.52662,0.13594
46.28555,0.11205
46.04448,0.12513
45.80341,0.14559
45.56234,0.13842
45.32126,0.12995
45.08019,0.14184
44.83912,0.15327
44.59805,0.14644
44.35698,0.14194
44.11591,0.15107
43.87484,0.16212
43.63377,0.16933
43.39270,0.17816
43.15163,0.18933
42.91056,0.19855
42.66949,0.20122
42.42842,0.19475
42.18735,0.18265
41.94628,0.17091
41.70521,0.16174
41.46414,0.15501
41.22307,0.15167
40.98199,0.15508
40.74092,0.16718
40.49985,0.18158
40.25878,0.18905
40.01771,0.19283
39.77664,0.20173
39.53557,0.21320
39.29450,0.22004
39.05343,0.22697
38.81236,0.24616
38.57129,0.27858
38.33022,0.30593
38.08915,0.30386
37.84808,0.27368
37.60701,0.24164
37.36594,0.22832
37.12487,0.23460
36.88380,0.24541
36.64272,0.24159
36.40165,0.21814
36.16058,0.18908
35.91951,0.17056
35.67844,0.16937
35.43737,0.18126
35.19630,0.19493
34.95523,0.20132
34.71416,0.20087
34.47309,0.20107
34.23202,0.20995
33.99095,0.22675
33.74988,0.23693
33.50881,0.22979
33.26774,0.21408
33.02667,0.20465
32.78560,0.20729
32.54453,0.22009
32.30345,0.23945
32.06238,0.25499
31.82131,0.24759
31.58024,0.20670
31.33917,0.14415
31.09810,0.08288
30.85703,0.04152
30.61596,0.02925
30.37489,0.04348
30.13382,0.06919
29.89275,0.08471
29.65168,0.08350
29.41061,0.07387
29.16954,0.05992
28.92847,0.04252
28.68740,0.02409
28.44633,0.00920
28.20526,0.00825
27.96418,0.02236
27.72311,0.03818
27.48204,0.04428
27.24097,0.03754
26.99990,0.01716
26.75883,-0.01672
26.51776,-0.05390
26.27669,-0.07343
26.03562,-0.06711
25.79455,-0.05007
25.55348,-0.03795
25.31241,-0.03296
25.07134,-0.03142
24.83027,-0.03511
24.58920,-0.05136
24.34813,-0.08509
24.10706,-0.12882
23.86599,-0.16192
23.62491,-0.17016
23.38384,-0.16233
23.14277,-0.15657
22.90170,-0.16549
22.66063,-0.19675
22.41956,-0.24458
22.17849,-0.28046
21.93742,-0.28708
21.69635,-0.28927
21.45528,-0.31255
21.21421,-0.35250
20.97314,-0.39039
20.73207,-0.40748
20.49100,-0.39044
20.24993,-0.34367
20.00886,-0.29251
19.76779,-0.26323
19.52672,-0.26595
19.28564,-0.29094
19.04457,-0.31529
18.80350,-0.32980
18.56243,-0.34607
18.32136,-0.36802
18.08029,-0.38576
17.83922,-0.39169
17.59815,-0.38720
17.35708,-0.37323
17.11601,-0.35090
16.87494,-0.31891
16.63387,-0.28560
16.39280,-0.27226
16.15173,-0.29133
15.91066,-0.33451
15.66959,-0.37400
15.42852,-0.38258
15.18745,-0.36511
14.94637,-0.34303
14.70530,-0.33074
14.46423,-0.32662
14.22316,-0.31575
13.98209,-0.29193
13.74102,-0.28327
13.49995,-0.31945
13.25888,-0.38305
13.01781,-0.43168
12.77674,-0.45396
12.53567,-0.47137
12.29460,-0.49924
12.05353,-0.51705
11.81246,-0.49589
11.57139,-0.46245
11.33032,-0.45575
11.08925,-0.48674
10.84818,-0.50942
10.60710,-0.49566
10.36603,-0.47683
10.12496,-0.44506
9.88389,-0.39213
9.64282,-0.37210
9.40175,-0.39516
9.16068,-0.41651
8.91961,-0.44156
8.67854,-0.44464
8.43747,-0.44412
8.19640,-0.42582
7.95533,-0.40398
7.71426,-0.39150
7.47319,-0.38386
7.23212,-0.37891
6.99105,-0.38032
6.74998,-0.38725
6.50891,-0.39832
6.26783,-0.41186
6.02676,-0.42156
5.78569,-0.41828
5.54462,-0.40735
5.30355,-0.39942
5.06248,-0.39903
4.82141,-0.38845
4.58034,-0.37513
4.33927,-0.36870
4.09820,-0.36245
3.85713,-0.36285
3.61606,-0.38263
3.37499,-0.40937
3.13392,-0.40992
2.89285,-0.40628
2.65178,-0.41000
2.41071,-0.40762
2.16964,-0.41660
1.92856,-0.43397
1.68749,-0.42771
1.44642,-0.40069
1.20535,-0.37222
0.96428,-0.35798
0.72321,-0.39246
0.48214,-0.48049
0.24107,-0.47823
-0.00000,-0.13993
