399.69498,1.56971
399.45391,1.56325
399.21284,1.56692
398.97177,1.57359
398.73070,1.57279
398.48963,1.56582
398.24856,1.56247
398.00749,1.56855
397.76642,1.57967
397.52535,1.58415
397.28428,1.57514
397.04321,1.55758
396.80214,1.54004
396.56107,1.52966
396.32000,1.53419
396.07892,1.55603
395.83785,1.58285
395.59678,1.59522
395.35571,1.58505
395.11464,1.56065
394.87357,1.53629
394.63250,1.52307
394.39143,1.52565
394.15036,1.53982
393.90929,1.55619
393.66822,1.56523
393.42715,1.56379
393.18608,1.55558
392.94501,1.54453
392.70394,1.53649
392.46287,1.53765
392.22180,1.54427
391.98073,1.54308
391.73965,1.52988
391.49858,1.51679
391.25751,1.51656
391.01644,1.52854
390.77537,1.53762
390.53430,1.53060
390.29323,1.51375
390.05216,1.50574
389.81109,1.51472
389.57002,1.52647
389.32895,1.52300
389.08788,1.50950
388.84681,1.50340
388.60574,1.50741
388.36467,1.51111
388.12360,1.51081
387.88253,1.51045
387.64146,1.50668
387.40038,1.49192
387.15931,1.46940
386.91824,1.45451
386.67717,1.45952
386.43610,1.48181
386.19503,1.50987
385.95396,1.52717
385.71289,1.50968
385.47182,1.46319
385.23075,1.41802
384.98968,1.38787
384.74861,1.37383
384.50754,1.36768
384.26647,1.35701
384.02540,1.34103
383.78433,1.33273
383.54326,1.34150
383.30219,1.36208
383.06111,1.37930
382.82004,1.37914
382.57897,1.36339
382.33790,1.34225
382.09683,1.31546
381.85576,1.28440
381.61469,1.26195
381.37362,1.25688
381.13255,1.26479
380.89148,1.27272
380.65041,1.27500
380.40934,1.27765
380.16827,1.29002
379.92720,1.31029
379.68613,1.31621
379.44506,1.30091
379.20399,1.28444
378.96292,1.28414
378.72184,1.30377
378.48077,1.33241
378.23970,1.34896
377.99863,1.34161
377.75756,1.32208
377.51649,1.31194
377.27542,1.31829
377.03435,1.33205
376.79328,1.34596
376.55221,1.36340
376.31114,1.38626
376.07007,1.40391
375.82900,1.40386
375.58793,1.39345
375.34686,1.39331
375.10579,1.40942
374.86472,1.42883
374.62365,1.43888
374.38257,1.43672
374.14150,1.42314
373.90043,1.40823
373.65936,1.40931
373.41829,1.42784
373.17722,1.44133
372.93615,1.42883
372.69508,1.39866
372.45401,1.37435
372.21294,1.36752
371.97187,1.37202
371.73080,1.37427
371.48973,1.36692
371.24866,1.35161
371.00759,1.33397
370.76652,1.32233
370.52545,1.32163
370.28437,1.32633
370.04330,1.32680
369.80223,1.31951
369.56116,1.30784
369.32009,1.29680
369.07902,1.28917
368.83795,1.28369
368.59688,1.27597
368.35581,1.26593
368.11474,1.26219
367.87367,1.27213
367.63260,1.28976
367.39153,1.29860
367.15046,1.29050
366.90939,1.27450
366.66832,1.26113
366.42725,1.25120
366.18618,1.24438
365.94510,1.24418
365.70403,1.25106
365.46296,1.25857
365.22189,1.26076
364.98082,1.26026
364.73975,1.26204
364.49868,1.26285
364.25761,1.25571
364.01654,1.24408
363.77547,1.24156
363.53440,1.25322
363.29333,1.26507
363.05226,1.25965
362.81119,1.23714
362.57012,1.21196
362.32905,1.19650
362.08798,1.19447
361.84691,1.20240
361.60583,1.21353
361.36476,1.22448
361.12369,1.23632
360.88262,1.24622
360.64155,1.24756
360.40048,1.23975
360.15941,1.23117
359.91834,1.23086
359.67727,1.23905
359.43620,1.24755
359.19513,1.24820
358.95406,1.24096
358.71299,1.23214
358.47192,1.22639
358.23085,1.22426
357.98978,1.22514
357.74871,1.22930
357.50764,1.23688
357.26656,1.24621
357.02549,1.25281
356.78442,1.25207
356.54335,1.24425
356.30228,1.23436
356.06121,1.22695
355.82014,1.22226
355.57907,1.21880
355.33800,1.21827
355.09693,1.22364
354.85586,1.23330
354.61479,1.24082
354.37372,1.24126
354.13265,1.23565
353.89158,1.22845
353.65051,1.22468
353.40944,1.22747
353.16837,1.23505
352.92729,1.24147
352.68622,1.24101
352.44515,1.23371
352.20408,1.22645
351.96301,1.22492
351.72194,1.22660
351.48087,1.22628
351.23980,1.22538
350.99873,1.22925
350.75766,1.23856
350.51659,1.24759
350.27552,1.24935
350.03445,1.24280
349.79338,1.23526
349.55231,1.23396
349.31124,1.23772
349.07017,1.24016
348.82910,1.23877
348.58802,1.23686
348.34695,1.23748
348.10588,1.24021
347.86481,1.24367
347.62374,1.24896
347.38267,1.25778
347.14160,1.26725
346.90053,1.27173
346.65946,1.27045
346.41839,1.26795
346.17732,1.26592
345.93625,1.26100
345.69518,1.25305
345.45411,1.24941
345.21304,1.25690
344.97197,1.27322
344.73090,1.28954
344.48983,1.30114
344.24875,1.31101
344.00768,1.32112
343.76661,1.32823
343.52554,1.33111
343.28447,1.33346
343.04340,1.33748
342.80233,1.34133
342.56126,1.34094
342.32019,1.33458
342.07912,1.32942
341.83805,1.33669
341.59698,1.35718
341.35591,1.37786
341.11484,1.38779
340.87377,1.39166
340.63270,1.39791
340.39163,1.40510
340.15056,1.40865
339.90948,1.41032
339.66841,1.41529
339.42734,1.42146
339.18627,1.41909
338.94520,1.40625
338.70413,1.39543
338.46306,1.39590
338.22199,1.40312
337.98092,1.40699
337.73985,1.40471
337.49878,1.40365
337.25771,1.41043
337.01664,1.42235
336.77557,1.42873
336.53450,1.42495
336.29343,1.42222
336.05236,1.43028
335.81129,1.44296
335.57021,1.44935
335.32914,1.44570
335.08807,1.43219
334.84700,1.41042
334.60593,1.38732
334.36486,1.37518
334.12379,1.38293
333.88272,1.40587
333.64165,1.42546
333.40058,1.42834
333.15951,1.41929
332.91844,1.40268
332.67737,1.37615
332.43630,1.34839
332.19523,1.33294
331.95416,1.32969
331.71309,1.32827
331.47202,1.32359
331.23094,1.32112
330.98987,1.32637
330.74880,1.33442
330.50773,1.33809
330.26666,1.34008
330.02559,1.34176
329.78452,1.33326
329.54345,1.31185
329.30238,1.29458
329.06131,1.29701
328.82024,1.31096
328.57917,1.31343
328.33810,1.29975
328.09703,1.28954
327.85596,1.29502
327.61489,1.30739
327.37382,1.31338
327.13275,1.31209
326.89167,1.31182
326.65060,1.31608
326.40953,1.31861
326.16846,1.31422
325.92739,1.30703
325.68632,1.30313
325.44525,1.29939
325.20418,1.29142
324.96311,1.28701
324.72204,1.29029
324.48097,1.29565
324.23990,1.30050
323.99883,1.31097
323.75776,1.33045
323.51669,1.34752
323.27562,1.34706
323.03455,1.33074
322.79348,1.31114
322.55240,1.29746
322.31133,1.29466
322.07026,1.30529
321.82919,1.32512
321.58812,1.34240
321.34705,1.34877
321.10598,1.34669
320.86491,1.34124
320.62384,1.33314
320.38277,1.32297
320.14170,1.31211
319.90063,1.30355
319.65956,1.30077
319.41849,1.30727
319.17742,1.31840
318.93635,1.31825
318.69528,1.29968
318.45421,1.27942
318.21313,1.27951
317.97206,1.30147
317.73099,1.32317
317.48992,1.32340
317.24885,1.30796
317.00778,1.29330
316.76671,1.28539
316.52564,1.28392
316.28457,1.29041
316.04350,1.30575
315.80243,1.32634
315.56136,1.34830
315.32029,1.36575
315.07922,1.37027
314.83815,1.36465
314.59708,1.36362
314.35601,1.37161
314.11494,1.37318
313.87386,1.36113
313.63279,1.35147
313.39172,1.35657
313.15065,1.37210
312.90958,1.39007
312.66851,1.40784
312.42744,1.41935
312.18637,1.41483
311.94530,1.40034
311.70423,1.39080
311.46316,1.38588
311.22209,1.37936
310.98102,1.37605
310.73995,1.38264
310.49888,1.39295
310.25781,1.38820
310.01674,1.36192
309.77567,1.33528
309.53459,1.33184
309.29352,1.35152
309.05245,1.37536
308.81138,1.38970
308.57031,1.39570
308.32924,1.39729
308.08817,1.39806
307.84710,1.39959
307.60603,1.39477
307.36496,1.38355
307.12389,1.38396
306.88282,1.40685
306.64175,1.43456
306.40068,1.44110
306.15961,1.42654
305.91854,1.41025
305.67747,1.40273
305.43640,1.39894
305.19532,1.39269
304.95425,1.39045
304.71318,1.40043
304.47211,1.41427
304.23104,1.41439
303.98997,1.39732
303.74890,1.37494
303.50783,1.35792
303.26676,1.35030
303.02569,1.35228
302.78462,1.36081
302.54355,1.36985
302.30248,1.37263
302.06141,1.36538
301.82034,1.34999
301.57927,1.33095
301.33820,1.31185
301.09713,1.29754
300.85605,1.29457
300.61498,1.30461
300.37391,1.31897
300.13284,1.32553
299.89177,1.32044
299.65070,1.30892
299.40963,1.29774
299.16856,1.29151
298.92749,1.29022
298.68642,1.28717
298.44535,1.27641
298.20428,1.26058
297.96321,1.24621
297.72214,1.23808
297.48107,1.23865
297.24000,1.24484
296.99893,1.24876
296.75786,1.24827
296.51678,1.24802
296.27571,1.24563
296.03464,1.23340
295.79357,1.21414
295.55250,1.19996
295.31143,1.19701
295.07036,1.19913
294.82929,1.19647
294.58822,1.18795
294.34715,1.18196
294.10608,1.18516
293.86501,1.19402
293.62394,1.19759
293.38287,1.19022
293.14180,1.17866
292.90073,1.17242
292.65966,1.17326
292.41859,1.17654
292.17751,1.17727
291.93644,1.17311
291.69537,1.16675
291.45430,1.16461
291.21323,1.16940
290.97216,1.17554
290.73109,1.17599
290.49002,1.17112
290.24895,1.16529
290.00788,1.15901
289.76681,1.15084
289.52574,1.14255
289.28467,1.13723
289.04360,1.13479
288.80253,1.13247
288.56146,1.12865
288.32039,1.12459
288.07932,1.12233
287.83824,1.12192
287.59717,1.12262
287.35610,1.12566
287.11503,1.13164
286.87396,1.13630
286.63289,1.13399
286.39182,1.12495
286.15075,1.11397
285.90968,1.10495
285.66861,1.10075
285.42754,1.10265
285.18647,1.10745
284.94540,1.11020
284.70433,1.11131
284.46326,1.11513
284.22219,1.12113
283.98112,1.12350
283.74005,1.11984
283.49897,1.11404
283.25790,1.11048
283.01683,1.11020
282.77576,1.11180
282.53469,1.11301
282.29362,1.11155
282.05255,1.10675
281.81148,1.10186
281.57041,1.10162
281.32934,1.10553
281.08827,1.10779
280.84720,1.10554
280.60613,1.10300
280.36506,1.10480
280.12399,1.11013
279.88292,1.11490
279.64185,1.11654
279.40078,1.11604
279.15970,1.11619
278.91863,1.11820
278.67756,1.11962
278.43649,1.11789
278.19542,1.11411
277.95435,1.10980
277.71328,1.10481
277.47221,1.10063
277.23114,1.10140
276.99007,1.10869
276.74900,1.11764
276.50793,1.12191
276.26686,1.12069
276.02579,1.11709
275.78472,1.11346
275.54365,1.11115
275.30258,1.11081
275.06151,1.11180
274.82043,1.11350
274.57936,1.11658
274.33829,1.12125
274.09722,1.12588
273.85615,1.12894
273.61508,1.13175
273.37401,1.13729
273.13294,1.14657
272.89187,1.15718
272.65080,1.16502
272.40973,1.16693
272.16866,1.16298
271.92759,1.15740
271.68652,1.15565
271.44545,1.15857
271.20438,1.16187
270.96331,1.16291
270.72224,1.16403
270.48116,1.16761
270.24009,1.17272
269.99902,1.17799
269.75795,1.18371
269.51688,1.18972
269.27581,1.19414
269.03474,1.19605
268.79367,1.19700
268.55260,1.19832
268.31153,1.19949
268.07046,1.20056
267.82939,1.20382
267.58832,1.21095
267.34725,1.22009
267.10618,1.22810
266.86511,1.23425
266.62404,1.23929
266.38297,1.24379
266.14189,1.24867
265.90082,1.25462
265.65975,1.26197
265.41868,1.27225
265.17761,1.28770
264.93654,1.30804
264.69547,1.32898
264.45440,1.34535
264.21333,1.35612
263.97226,1.36434
263.73119,1.37079
263.49012,1.37308
263.24905,1.37282
263.00798,1.37798
262.76691,1.39380
262.52584,1.41666
262.28477,1.44148
262.04370,1.46885
261.80262,1.49918
261.56155,1.52663
261.32048,1.54398
261.07941,1.55181
260.83834,1.56192
260.59727,1.58614
260.35620,1.62439
260.11513,1.66802
259.87406,1.70910
259.63299,1.74035
259.39192,1.75341
259.15085,1.75094
258.90978,1.75181
258.66871,1.77070
258.42764,1.80003
258.18657,1.81831
257.94550,1.82230
257.70443,1.83046
257.46335,1.85238
257.22228,1.87267
256.98121,1.87278
256.74014,1.85546
256.49907,1.83026
256.25800,1.80088
256.01693,1.77289
255.77586,1.74729
255.53479,1.72306
255.29372,1.70392
255.05265,1.69078
254.81158,1.67406
254.57051,1.64798
254.32944,1.62228
254.08837,1.60814
253.84730,1.60523
253.60623,1.60685
253.36516,1.61314
253.12408,1.62905
252.88301,1.64870
252.64194,1.65389
252.40087,1.63673
252.15980,1.60969
251.91873,1.58889
251.67766,1.57710
251.43659,1.56835
251.19552,1.55965
250.95445,1.55295
250.71338,1.54886
250.47231,1.54167
250.23124,1.52710
249.99017,1.51230
249.74910,1.50995
249.50803,1.52683
249.26696,1.55918
249.02589,1.59261
248.78481,1.60821
248.54374,1.59861
248.30267,1.57634
248.06160,1.56087
247.82053,1.56305
247.57946,1.57963
247.33839,1.59669
247.09732,1.60147
246.85625,1.59423
246.61518,1.58413
246.37411,1.57529
246.13304,1.56867
245.89197,1.56741
245.65090,1.57282
245.40983,1.58321
245.16876,1.59657
244.92769,1.61143
244.68661,1.62916
244.44554,1.64889
244.20447,1.66317
243.96340,1.67512
243.72233,1.70279
243.48126,1.75871
243.24019,1.83649
242.99912,1.90520
242.75805,1.92620
242.51698,1.87539
242.27591,1.76923
242.03484,1.68375
241.79377,1.60965
241.55270,1.53501
241.31163,1.46497
241.07056,1.40529
240.82949,1.35189
240.58842,1.29879
240.34734,1.24898
240.10627,1.20878
239.86520,1.17640
239.62413,1.14516
239.38306,1.11302
239.14199,1.08156
238.90092,1.05096
238.65985,1.02130
238.41878,0.99490
238.17771,0.97330
237.93664,0.95446
237.69557,0.93658
237.45450,0.92254
237.21343,0.91592
236.97236,0.91418
236.73129,0.91021
236.49022,0.90084
236.24915,0.88915
236.00807,0.87811
235.76700,0.86699
235.52593,0.85448
235.28486,0.84156
235.04379,0.83058
234.80272,0.82348
234.56165,0.82115
234.32058,0.82288
234.07951,0.82611
233.83844,0.82761
233.59737,0.82521
233.35630,0.81936
233.11523,0.81349
232.87416,0.81044
232.63309,0.80824
232.39202,0.80326
232.15095,0.79747
231.90988,0.79609
231.66880,0.79913
231.42773,0.80202
231.18666,0.80285
230.94559,0.80262
230.70452,0.80060
230.46345,0.79576
230.22238,0.79048
229.98131,0.78785
229.74024,0.78805
229.49917,0.78969
229.25810,0.79204
229.01703,0.79445
228.77596,0.79643
228.53489,0.79890
228.29382,0.80218
228.05275,0.80331
227.81168,0.79917
227.57061,0.79194
227.32953,0.78668
227.08846,0.78482
226.84739,0.78426
226.60632,0.78429
226.36525,0.78666
226.12418,0.79194
225.88311,0.79803
225.64204,0.80233
225.40097,0.80404
225.15990,0.80400
224.91883,0.80299
224.67776,0.80098
224.43669,0.79847
224.19562,0.79721
223.95455,0.79867
223.71348,0.80229
223.47241,0.80674
223.23134,0.81200
222.99026,0.81883
222.74919,0.82715
222.50812,0.83571
222.26705,0.84271
222.02598,0.84693
221.78491,0.84877
221.54384,0.84999
221.30277,0.85249
221.06170,0.85781
220.82063,0.86685
220.57956,0.87958
220.33849,0.89514
220.09742,0.91204
219.85635,0.92827
219.61528,0.94200
219.37421,0.95181
219.13314,0.95625
218.89207,0.95691
218.65099,0.96039
218.40992,0.97169
218.16885,0.98837
217.92778,1.00497
217.68671,1.01984
217.44564,1.03328
217.20457,1.04377
216.96350,1.05145
216.72243,1.06075
216.48136,1.07595
216.24029,1.09741
215.99922,1.12252
215.75815,1.14826
215.51708,1.17147
215.27601,1.18892
215.03494,1.20024
214.79387,1.20971
214.55280,1.22152
214.31172,1.23518
214.07065,1.24727
213.82958,1.25456
213.58851,1.25578
213.34744,1.25525
213.10637,1.26206
212.86530,1.28101
212.62423,1.30640
212.38316,1.32656
212.14209,1.33303
211.90102,1.32613
211.65995,1.31513
211.41888,1.31222
211.17781,1.32456
210.93674,1.34994
210.69567,1.37765
210.45460,1.39482
210.21353,1.39517
209.97245,1.38197
209.73138,1.36377
209.49031,1.35006
209.24924,1.34756
209.00817,1.35564
208.76710,1.36561
208.52603,1.36620
208.28496,1.35159
208.04389,1.32648
207.80282,1.30193
207.56175,1.28425
207.32068,1.27218
207.07961,1.26494
206.83854,1.26311
206.59747,1.26132
206.35640,1.25211
206.11533,1.23629
205.87426,1.22020
205.63318,1.20528
205.39211,1.18852
205.15104,1.17189
204.90997,1.16154
204.66890,1.15488
204.42783,1.13988
204.18676,1.11200
203.94569,1.08046
203.70462,1.05583
203.46355,1.04179
203.22248,1.03655
202.98141,1.03366
202.74034,1.02371
202.49927,1.00262
202.25820,0.97703
202.01713,0.95585
201.77606,0.94147
201.53499,0.93094
201.29391,0.92051
201.05284,0.90818
200.81177,0.89403
200.57070,0.87891
200.32963,0.86298
200.08856,0.84604
199.84749,0.82913
199.60642,0.81434
199.36535,0.80262
199.12428,0.79282
198.88321,0.78316
198.64214,0.77335
198.40107,0.76510
198.16000,0.75950
197.91893,0.75404
197.67786,0.74399
197.43679,0.72801
197.19572,0.71103
196.95464,0.69976
196.71357,0.69642
196.47250,0.69574
196.23143,0.68854
195.99036,0.67323
195.74929,0.65866
195.50822,0.65247
195.26715,0.65325
195.02608,0.65361
194.78501,0.64868
194.54394,0.64053
194.30287,0.63402
194.06180,0.63093
193.82073,0.62921
193.57966,0.62598
193.33859,0.62011
193.09752,0.61241
192.85645,0.60443
192.61537,0.59761
192.37430,0.59300
192.13323,0.59074
191.89216,0.58951
191.65109,0.58724
191.41002,0.58293
191.16895,0.57755
190.92788,0.57342
190.68681,0.57206
190.44574,0.57206
190.20467,0.57013
189.96360,0.56553
189.72253,0.56138
189.48146,0.56000
189.24039,0.55981
188.99932,0.55848
188.75825,0.55668
188.51718,0.55654
188.27610,0.55812
188.03503,0.55923
187.79396,0.55809
187.55289,0.55516
187.31182,0.55212
187.07075,0.54971
186.82968,0.54757
186.58861,0.54625
186.34754,0.54689
186.10647,0.54866
185.86540,0.54947
185.62433,0.54999
185.38326,0.55245
185.14219,0.55552
184.90112,0.55561
184.66005,0.55360
184.41898,0.55416
184.17791,0.55847
183.93683,0.56336
183.69576,0.56684
183.45469,0.56946
183.21362,0.57137
182.97255,0.57242
182.73148,0.57331
182.49041,0.57407
182.24934,0.57406
182.00827,0.57457
181.76720,0.57755
181.52613,0.58135
181.28506,0.58204
181.04399,0.57963
180.80292,0.57843
180.56185,0.58063
180.32078,0.58391
180.07971,0.58575
179.83864,0.58706
179.59756,0.59065
179.35649,0.59754
179.11542,0.60617
178.87435,0.61471
178.63328,0.62301
178.39221,0.63158
178.15114,0.64074
177.91007,0.65116
177.66900,0.66281
177.42793,0.67408
177.18686,0.68449
176.94579,0.69567
176.70472,0.70830
176.46365,0.72186
176.22258,0.73792
175.98151,0.75840
175.74044,0.78144
175.49937,0.80410
175.25829,0.82645
175.01722,0.84945
174.77615,0.87261
174.53508,0.89500
174.29401,0.91539
174.05294,0.93308
173.81187,0.94961
173.57080,0.96633
173.32973,0.98182
173.08866,0.99554
172.84759,1.00917
172.60652,1.02279
172.36545,1.03516
172.12438,1.04655
171.88331,1.05650
171.64224,1.06142
171.40117,1.05961
171.16010,1.05478
170.91902,1.05151
170.67795,1.05137
170.43688,1.05145
170.19581,1.04515
169.95474,1.02923
169.71367,1.00906
169.47260,0.99276
169.23153,0.98374
168.99046,0.98031
168.74939,0.97902
168.50832,0.97745
168.26725,0.97522
168.02618,0.97281
167.78511,0.96995
167.54404,0.96575
167.30297,0.96001
167.06190,0.95407
166.82083,0.95030
166.57975,0.95092
166.33868,0.95761
166.09761,0.97041
165.85654,0.98610
165.61547,0.99923
165.37440,1.00589
165.13333,1.00591
164.89226,1.00304
164.65119,1.00322
164.41012,1.01067
164.16905,1.02506
163.92798,1.04404
163.68691,1.06748
163.44584,1.09565
163.20477,1.12450
162.96370,1.14641
162.72263,1.15627
162.48156,1.15654
162.24048,1.15502
161.99941,1.15782
161.75834,1.16535
161.51727,1.17307
161.27620,1.17783
161.03513,1.18187
160.79406,1.18720
160.55299,1.18966
160.31192,1.18347
160.07085,1.16941
159.82978,1.15337
159.58871,1.13953
159.34764,1.12927
159.10657,1.12393
158.86550,1.12491
158.62443,1.13005
158.38336,1.13154
158.14229,1.12110
157.90121,1.09899
157.66014,1.07505
157.41907,1.05917
157.17800,1.05390
156.93693,1.05609
156.69586,1.06119
156.45479,1.06487
156.21372,1.06336
155.97265,1.05460
155.73158,1.03925
155.49051,1.02008
155.24944,1.00187
155.00837,0.99073
154.76730,0.98835
154.52623,0.98735
154.28516,0.97672
154.04409,0.95365
153.80302,0.92539
153.56194,0.90011
153.32087,0.88151
153.07980,0.86909
152.83873,0.85902
152.59766,0.84550
152.35659,0.82456
152.11552,0.79808
151.87445,0.77160
151.63338,0.74862
151.39231,0.72944
151.15124,0.71274
150.91017,0.69657
150.66910,0.67993
150.42803,0.66397
150.18696,0.65008
149.94589,0.63788
149.70482,0.62670
149.46375,0.61723
149.22267,0.60968
148.98160,0.60204
148.74053,0.59210
148.49946,0.58061
148.25839,0.57036
148.01732,0.56293
147.77625,0.55731
147.53518,0.55175
147.29411,0.54672
147.05304,0.54471
146.81197,0.54739
146.57090,0.55365
146.32983,0.55989
146.08876,0.56270
145.84769,0.56250
145.60662,0.56330
145.36555,0.56848
145.12448,0.57762
144.88340,0.58710
144.64233,0.59391
144.40126,0.59876
144.16019,0.60366
143.91912,0.60782
143.67805,0.60881
143.43698,0.60658
143.19591,0.60260
142.95484,0.59634
142.71377,0.58637
142.47270,0.57395
142.23163,0.56209
141.99056,0.55214
141.74949,0.54347
141.50842,0.53575
141.26735,0.52976
141.02628,0.52582
140.78521,0.52273
140.54413,0.51895
140.30306,0.51448
140.06199,0.51116
139.82092,0.51070
139.57985,0.51343
139.33878,0.51894
139.09771,0.52657
138.85664,0.53506
138.61557,0.54315
138.37450,0.55153
138.13343,0.56244
137.89236,0.57628
137.65129,0.59077
137.41022,0.60467
137.16915,0.61995
136.92808,0.63868
136.68701,0.66012
136.44594,0.68246
136.20486,0.70591
135.96379,0.73256
135.72272,0.76369
135.48165,0.79748
135.24058,0.83011
134.99951,0.86095
134.75844,0.89464
134.51737,0.93466
134.27630,0.97688
134.03523,1.01405
133.79416,1.04487
133.55309,1.07457
133.31202,1.10685
133.07095,1.13843
132.82988,1.16325
132.58881,1.18107
132.34774,1.19713
132.10667,1.21154
131.86559,1.21631
131.62452,1.20706
131.38345,1.18946
131.14238,1.17129
130.90131,1.15418
130.66024,1.13414
130.41917,1.10578
130.17810,1.06728
129.93703,1.02210
129.69596,0.97509
129.45489,0.92926
129.21382,0.88489
128.97275,0.84076
128.73168,0.79696
128.49061,0.75623
128.24954,0.72103
128.00847,0.69064
127.76740,0.66279
127.52632,0.63665
127.28525,0.61265
127.04418,0.59074
126.80311,0.57052
126.56204,0.55202
126.32097,0.53570
126.07990,0.52153
125.83883,0.50886
125.59776,0.49693
125.35669,0.48551
125.11562,0.47500
124.87455,0.46595
124.63348,0.45839
124.39241,0.45150
124.15134,0.44411
123.91027,0.43590
123.66920,0.42791
123.42812,0.42157
123.18705,0.41759
122.94598,0.41572
122.70491,0.41540
122.46384,0.41602
122.22277,0.41703
121.98170,0.41835
121.74063,0.42024
121.49956,0.42261
121.25849,0.42573
121.01742,0.43140
120.77635,0.44135
120.53528,0.45496
120.29421,0.47032
120.05314,0.48649
119.81207,0.50331
119.57100,0.52065
119.32993,0.53986
119.08885,0.56388
118.84778,0.59391
118.60671,0.62657
118.36564,0.65669
118.12457,0.68245
117.88350,0.70526
117.64243,0.72615
117.40136,0.74561
117.16029,0.76515
116.91922,0.78538
116.67815,0.80300
116.43708,0.81240
116.19601,0.81044
115.95494,0.79900
115.71387,0.78274
115.47280,0.76462
115.23173,0.74484
114.99066,0.72336
114.74958,0.70128
114.50851,0.68034
114.26744,0.66227
114.02637,0.64887
113.78530,0.64137
113.54423,0.63960
113.30316,0.64221
113.06209,0.64847
112.82102,0.65964
112.57995,0.67672
112.33888,0.69585
112.09781,0.70924
111.85674,0.71363
111.61567,0.71308
111.37460,0.71198
111.13353,0.71116
110.89246,0.71143
110.65139,0.71589
110.41031,0.72679
110.16924,0.74162
109.92817,0.75304
109.68710,0.75275
109.44603,0.73666
109.20496,0.70712
108.96389,0.66938
108.72282,0.62864
108.48175,0.59015
108.24068,0.55869
107.99961,0.53676
107.75854,0.52366
107.51747,0.51602
107.27640,0.50899
107.03533,0.49759
106.79426,0.47980
106.55319,0.45822
106.31212,0.43698
106.07104,0.41839
105.82997,0.40329
105.58890,0.39221
105.34783,0.38454
105.10676,0.37747
104.86569,0.36789
104.62462,0.35564
104.38355,0.34325
104.14248,0.33299
103.90141,0.32606
103.66034,0.32343
103.41927,0.32462
103.17820,0.32577
102.93713,0.32187
102.69606,0.31167
102.45499,0.29932
102.21392,0.29048
101.97285,0.28731
101.73177,0.28758
101.49070,0.28816
101.24963,0.28784
101.00856,0.28593
100.76749,0.28039
100.52642,0.27041
100.28535,0.25972
100.04428,0.25444
99.80321,0.25723
99.56214,0.26362
99.32107,0.26498
99.08000,0.25803
98.83893,0.24881
98.59786,0.24484
98.35679,0.24743
98.11572,0.25122
97.87465,0.24995
97.63358,0.24435
97.39250,0.24151
97.15143,0.24658
96.91036,0.25740
96.66929,0.26588
96.42822,0.26731
96.18715,0.26701
95.94608,0.27235
95.70501,0.28411
95.46394,0.29725
95.22287,0.30747
94.98180,0.31574
94.74073,0.32424
94.49966,0.33067
94.25859,0.33122
94.01752,0.32867
93.77645,0.32991
93.53538,0.33431
93.29431,0.33367
93.05323,0.32765
92.81216,0.32650
92.57109,0.33348
92.33002,0.33946
92.08895,0.33940
91.84788,0.34086
91.60681,0.34880
91.36574,0.35851
91.12467,0.36831
90.88360,0.38487
90.64253,0.41068
90.40146,0.44078
90.16039,0.47443
89.91932,0.51597
89.67825,0.56455
89.43718,0.61598
89.19611,0.66768
88.95504,0.71229
88.71396,0.73945
88.47289,0.74726
88.23182,0.73674
87.99075,0.70573
87.74968,0.65786
87.50861,0.60365
87.26754,0.55163
87.02647,0.50514
86.78540,0.46348
86.54433,0.42513
86.30326,0.39159
86.06219,0.36496
85.82112,0.34270
85.58005,0.32024
85.33898,0.29756
85.09791,0.27779
84.85684,0.26223
84.61577,0.24995
84.37469,0.23960
84.13362,0.23006
83.89255,0.22090
83.65148,0.21258
83.41041,0.20571
83.16934,0.20015
82.92827,0.19520
82.68720,0.19055
82.44613,0.18705
82.20506,0.18559
81.96399,0.18560
81.72292,0.18538
81.48185,0.18370
81.24078,0.18049
80.99971,0.17660
80.75864,0.17325
80.51757,0.17114
80.27650,0.16982
80.03542,0.16823
79.79435,0.16596
79.55328,0.16345
79.31221,0.16087
79.07114,0.15828
78.83007,0.15700
78.58900,0.15888
78.34793,0.16319
78.10686,0.16616
77.86579,0.16487
77.62472,0.16034
77.38365,0.15617
77.14258,0.15501
76.90151,0.15638
76.66044,0.15809
76.41937,0.15900
76.17830,0.15917
75.93723,0.15849
75.69615,0.15717
75.45508,0.15636
75.21401,0.15630
74.97294,0.15516
74.73187,0.15154
74.49080,0.14693
74.24973,0.14470
74.00866,0.14701
73.76759,0.15298
73.52652,0.15937
73.28545,0.16328
73.04438,0.16400
72.80331,0.16268
72.56224,0.16111
72.32117,0.16073
72.08010,0.16153
71.83903,0.16191
71.59796,0.16051
71.35688,0.15754
71.11581,0.15412
70.87474,0.15156
70.63367,0.15178
70.39260,0.15733
70.15153,0.17049
69.91046,0.19234
69.66939,0.22139
69.42832,0.25113
69.18725,0.27015
68.94618,0.27002
68.70511,0.25326
68.46404,0.22938
68.22297,0.20648
67.98190,0.18788
67.74083,0.17339
67.49976,0.16219
67.25869,0.15416
67.01761,0.14905
66.77654,0.14569
66.53547,0.14254
66.29440,0.13887
66.05333,0.13544
65.81226,0.13400
65.57119,0.13576
65.33012,0.14063
65.08905,0.14813
64.84798,0.15857
64.60691,0.17236
64.36584,0.18835
64.12477,0.20322
63.88370,0.21313
63.64263,0.21624
63.40156,0.21351
63.16049,0.20704
62.91942,0.19822
62.67834,0.18780
62.43727,0.17640
62.19620,0.16391
61.95513,0.15025
61.71406,0.13689
61.47299,0.12587
61.23192,0.11722
60.99085,0.10953
60.74978,0.10302
60.50871,0.09956
60.26764,0.09971
60.02657,0.10200
59.78550,0.10556
59.54443,0.11177
59.30336,0.12237
59.06229,0.13716
58.82122,0.15435
58.58015,0.17070
58.33907,0.18110
58.09800,0.18096
57.85693,0.16964
57.61586,0.15046
57.37479,0.12844
57.13372,0.10818
56.89265,0.09324
56.65158,0.08647
56.41051,0.08920
56.16944,0.10058
55.92837,0.11901
55.68730,0.14354
55.44623,0.17128
55.20516,0.19230
54.96409,0.19350
54.72302,0.17317
54.48195,0.14263
54.24088,0.11444
53.99980,0.09793
53.75873,0.09956
53.51766,0.12238
53.27659,0.16378
53.03552,0.20824
52.79445,0.22382
52.55338,0.19700
52.31231,0.15467
52.07124,0.12031
51.83017,0.10242
51.58910,0.10554
51.34803,0.13190
51.10696,0.17390
50.86589,0.20053
50.62482,0.17611
50.38375,0.12324
50.14268,0.08629
49.90161,0.08833
49.66053,0.13743
49.41946,0.21283
49.17839,0.22394
48.93732,0.14760
48.69625,0.08643
48.45518,0.08106
48.21411,0.12589
47.97304,0.16872
47.73197,0.14185
47.49090,0.09543
47.24983,0.08744
47.00876,0.11177
46.76769,0.11839
46.52662,0.09632
46.28555,0.08960
46.04448,0.10003
45.80341,0.09540
45.56234,0.08299
45.32126,0.09442
45.08019,0.12045
44.83912,0.11993
44.59805,0.09686
44.35698,0.08548
44.11591,0.08811
43.87484,0.09388
43.63377,0.10116
43.39270,0.10878
43.15163,0.11636
42.91056,0.12788
42.66949,0.13815
42.42842,0.13887
42.18735,0.13580
41.94628,0.13618
41.70521,0.13874
41.46414,0.14164
41.22307,0.14247
40.98199,0.13975
40.74092,0.14048
40.49985,0.14959
40.25878,0.15885
40.01771,0.16210
39.77664,0.16498
39.53557,0.17015
39.29450,0.16938
39.05343,0.15979
38.81236,0.15136
38.57129,0.15265
38.33022,0.16231
38.08915,0.17366
37.84808,0.18251
37.60701,0.18844
37.36594,0.19347
37.12487,0.19931
36.88380,0.20230
36.64272,0.19721
36.40165,0.18533
36.16058,0.17218
35.91951,0.16143
35.67844,0.15153
35.43737,0.13779
35.19630,0.12288
34.95523,0.12079
34.71416,0.13665
34.47309,0.14977
34.23202,0.14092
33.99095,0.12210
33.74988,0.11589
33.50881,0.12599
33.26774,0.13784
33.02667,0.14299
32.78560,0.15027
32.54453,0.17074
32.30345,0.19968
32.06238,0.21370
31.82131,0.19203
31.58024,0.13990
31.33917,0.08422
31.09810,0.04794
30.85703,0.03085
30.61596,0.02025
30.37489,0.01401
30.13382,0.01661
29.89275,0.02212
29.65168,0.02173
29.41061,0.01603
29.16954,0.00721
28.92847,-0.00536
28.68740,-0.01926
28.44633,-0.02848
28.20526,-0.03131
27.96418,-0.03776
27.72311,-0.05870
27.48204,-0.08476
27.24097,-0.09459
26.99990,-0.08649
26.75883,-0.07663
26.51776,-0.07531
26.27669,-0.08323
26.03562,-0.09636
25.79455,-0.10490
25.55348,-0.10012
25.31241,-0.08599
25.07134,-0.07936
24.83027,-0.09753
24.58920,-0.14176
24.34813,-0.19288
24.10706,-0.22842
23.86599,-0.24400
23.62491,-0.24641
23.38384,-0.24050
23.14277,-0.22940
22.90170,-0.21573
22.66063,-0.20706
22.41956,-0.21182
22.17849,-0.22433
21.93742,-0.23137
21.69635,-0.23129
21.45528,-0.23617
21.21421,-0.25362
20.97314,-0.27276
20.73207,-0.27611
20.49100,-0.26431
20.24993,-0.25650
20.00886,-0.26386
19.76779,-0.27666
19.52672,-0.26202
19.28564,-0.22683
19.04457,-0.21274
18.80350,-0.22243
18.56243,-0.22899
18.32136,-0.21142
18.08029,-0.17243
17.83922,-0.13232
17.59815,-0.11417
17.35708,-0.12538
17.11601,-0.15100
16.87494,-0.16844
16.63387,-0.16923
16.39280,-0.16246
16.15173,-0.16245
15.91066,-0.17525
15.66959,-0.19661
15.42852,-0.21748
15.18745,-0.23393
14.94637,-0.25382
14.70530,-0.28330
14.46423,-0.31224
14.22316,-0.32201
13.98209,-0.29974
13.74102,-0.24976
13.49995,-0.19512
13.25888,-0.15648
13.01781,-0.13947
12.77674,-0.14159
12.53567,-0.15812
12.29460,-0.18199
12.05353,-0.20182
11.81246,-0.20885
11.57139,-0.20941
11.33032,-0.21849
11.08925,-0.23831
10.84818,-0.25363
10.60710,-0.25470
10.36603,-0.25020
10.12496,-0.25008
9.88389,-0.25774
9.64282,-0.26610
9.40175,-0.26055
9.16068,-0.23573
8.91961,-0.20987
8.67854,-0.20432
8.43747,-0.21588
8.19640,-0.23001
7.95533,-0.24008
7.71426,-0.25014
7.47319,-0.26629
7.23212,-0.28048
6.99105,-0.28285
6.74998,-0.27819
6.50891,-0.27179
6.26783,-0.26035
6.02676,-0.24535
5.78569,-0.23734
5.54462,-0.23763
5.30355,-0.23888
5.06248,-0.23466
4.82141,-0.22065
4.58034,-0.20569
4.33927,-0.20022
4.09820,-0.20317
3.85713,-0.21424
3.61606,-0.23209
3.37499,-0.24606
3.13392,-0.25045
2.89285,-0.24547
2.65178,-0.22914
2.41071,-0.20994
2.16964,-0.20244
1.92856,-0.20821
1.68749,-0.22014
1.44642,-0.23602
1.20535,-0.24946
0.96428,-0.25887
0.72321,-0.29113
0.48214,-0.37402
0.24107,-0.41315
-0.00000,-0.39077
