399.69498,1.53311
399.45391,1.53265
399.21284,1.52581
398.97177,1.51476
398.73070,1.51062
398.48963,1.52185
398.24856,1.54205
398.00749,1.55470
397.76642,1.55246
397.52535,1.54201
397.28428,1.52962
397.04321,1.51767
396.80214,1.51004
396.56107,1.51304
396.32000,1.53072
396.07892,1.55587
395.83785,1.57193
395.59678,1.57108
395.35571,1.56311
395.11464,1.56081
394.87357,1.56068
394.63250,1.55150
394.39143,1.53339
394.15036,1.51608
393.90929,1.50898
393.66822,1.51666
393.42715,1.53382
393.18608,1.54459
392.94501,1.53820
392.70394,1.52153
392.46287,1.50640
392.22180,1.49656
391.98073,1.49200
391.73965,1.49406
391.49858,1.50210
391.25751,1.51171
391.01644,1.51967
390.77537,1.52662
390.53430,1.53063
390.29323,1.52580
390.05216,1.51216
389.81109,1.49758
389.57002,1.48918
389.32895,1.48668
389.08788,1.48540
388.84681,1.48449
388.60574,1.48566
388.36467,1.48564
388.12360,1.48120
387.88253,1.47677
387.64146,1.47504
387.40038,1.46820
387.15931,1.44978
386.91824,1.42848
386.67717,1.42134
386.43610,1.43437
386.19503,1.45229
385.95396,1.45350
385.71289,1.43729
385.47182,1.42141
385.23075,1.41793
384.98968,1.42242
384.74861,1.42088
384.50754,1.40693
384.26647,1.38941
384.02540,1.37826
383.78433,1.37035
383.54326,1.35678
383.30219,1.33883
383.06111,1.32446
382.82004,1.31552
382.57897,1.31231
382.33790,1.31852
382.09683,1.32855
381.85576,1.32627
381.61469,1.30729
381.37362,1.28615
381.13255,1.27842
380.89148,1.28503
380.65041,1.29618
380.40934,1.30098
380.16827,1.29234
379.92720,1.27231
379.68613,1.25131
379.44506,1.24242
379.20399,1.25164
378.96292,1.27217
378.72184,1.29063
378.48077,1.30242
378.23970,1.31561
377.99863,1.33685
377.75756,1.36431
377.51649,1.39163
377.27542,1.41204
377.03435,1.42229
376.79328,1.42283
376.55221,1.41803
376.31114,1.41561
376.07007,1.41973
375.82900,1.42774
375.58793,1.43506
375.34686,1.44077
375.10579,1.44579
374.86472,1.45103
374.62365,1.45984
374.38257,1.47155
374.14150,1.47592
373.90043,1.46627
373.65936,1.44892
373.41829,1.43308
373.17722,1.42235
372.93615,1.41546
372.69508,1.40940
372.45401,1.40316
372.21294,1.39957
371.97187,1.40103
371.73080,1.40443
371.48973,1.40468
371.24866,1.40076
371.00759,1.39469
370.76652,1.38773
370.52545,1.37918
370.28437,1.36731
370.04330,1.35276
369.80223,1.33988
369.56116,1.33091
369.32009,1.32168
369.07902,1.30756
368.83795,1.29001
368.59688,1.27484
368.35581,1.26655
368.11474,1.26484
367.87367,1.26644
367.63260,1.26891
367.39153,1.27101
367.15046,1.27052
366.90939,1.26684
366.66832,1.26387
366.42725,1.26415
366.18618,1.26332
365.94510,1.25610
365.70403,1.24542
365.46296,1.23906
365.22189,1.23992
364.98082,1.24493
364.73975,1.25076
364.49868,1.25530
364.25761,1.25545
364.01654,1.24994
363.77547,1.24269
363.53440,1.23792
363.29333,1.23607
363.05226,1.23617
362.81119,1.23805
362.57012,1.24012
362.32905,1.23843
362.08798,1.23143
361.84691,1.22276
361.60583,1.21848
361.36476,1.22153
361.12369,1.22880
360.88262,1.23404
360.64155,1.23342
360.40048,1.22699
360.15941,1.21744
359.91834,1.21080
359.67727,1.21190
359.43620,1.21728
359.19513,1.21951
358.95406,1.21808
358.71299,1.21842
358.47192,1.22219
358.23085,1.22590
357.98978,1.22662
357.74871,1.22359
357.50764,1.21757
357.26656,1.21170
357.02549,1.20929
356.78442,1.21005
356.54335,1.21104
356.30228,1.21009
356.06121,1.20711
355.82014,1.20330
355.57907,1.19950
355.33800,1.19563
355.09693,1.19226
354.85586,1.19117
354.61479,1.19384
354.37372,1.20039
354.13265,1.20872
353.89158,1.21353
353.65051,1.20948
353.40944,1.19855
353.16837,1.19025
352.92729,1.19237
352.68622,1.20434
352.44515,1.21867
352.20408,1.22666
351.96301,1.22567
351.72194,1.22065
351.48087,1.21753
351.23980,1.21741
350.99873,1.21825
350.75766,1.21966
350.51659,1.22319
350.27552,1.22865
350.03445,1.23247
349.79338,1.23003
349.55231,1.22079
349.31124,1.21042
349.07017,1.20609
348.82910,1.21018
348.58802,1.21917
348.34695,1.22853
348.10588,1.23731
347.86481,1.24568
347.62374,1.25068
347.38267,1.24949
347.14160,1.24529
346.90053,1.24433
346.65946,1.24858
346.41839,1.25606
346.17732,1.26614
345.93625,1.27768
345.69518,1.28502
345.45411,1.28360
345.21304,1.27715
344.97197,1.27341
344.73090,1.27566
344.48983,1.28139
344.24875,1.28708
344.00768,1.29217
343.76661,1.29820
343.52554,1.30497
343.28447,1.30993
343.04340,1.31276
342.80233,1.31666
342.56126,1.32145
342.32019,1.32158
342.07912,1.31702
341.83805,1.31661
341.59698,1.32449
341.35591,1.33542
341.11484,1.34685
340.87377,1.36278
340.63270,1.38308
340.39163,1.39866
340.15056,1.40029
339.90948,1.38749
339.66841,1.36981
339.42734,1.35856
339.18627,1.35787
338.94520,1.36429
338.70413,1.37463
338.46306,1.39136
338.22199,1.41613
337.98092,1.43920
337.73985,1.44414
337.49878,1.43018
337.25771,1.41578
337.01664,1.41410
336.77557,1.41994
336.53450,1.42242
336.29343,1.42058
336.05236,1.41779
335.81129,1.41255
335.57021,1.40496
335.32914,1.40186
335.08807,1.40909
334.84700,1.42104
334.60593,1.42281
334.36486,1.40848
334.12379,1.38901
333.88272,1.37725
333.64165,1.37459
333.40058,1.37536
333.15951,1.37645
332.91844,1.37746
332.67737,1.37643
332.43630,1.37158
332.19523,1.36666
331.95416,1.36892
331.71309,1.37675
331.47202,1.37598
331.23094,1.35849
330.98987,1.33563
330.74880,1.32236
330.50773,1.31912
330.26666,1.31577
330.02559,1.30801
329.78452,1.30227
329.54345,1.30469
329.30238,1.31250
329.06131,1.31812
328.82024,1.31749
328.57917,1.31027
328.33810,1.29782
328.09703,1.28488
327.85596,1.27800
327.61489,1.28158
327.37382,1.29527
327.13275,1.31227
326.89167,1.32110
326.65060,1.31538
326.40953,1.30331
326.16846,1.30135
325.92739,1.31679
325.68632,1.33798
325.44525,1.34655
325.20418,1.34074
324.96311,1.33455
324.72204,1.33391
324.48097,1.33039
324.23990,1.32050
323.99883,1.31400
323.75776,1.31912
323.51669,1.33182
323.27562,1.33969
323.03455,1.33516
322.79348,1.32620
322.55240,1.32647
322.31133,1.33730
322.07026,1.34815
321.82919,1.35445
321.58812,1.36269
321.34705,1.37313
321.10598,1.37703
320.86491,1.37487
320.62384,1.37518
320.38277,1.38025
320.14170,1.38684
319.90063,1.39344
319.65956,1.39828
319.41849,1.39384
319.17742,1.37644
318.93635,1.35664
318.69528,1.34784
318.45421,1.34999
318.21313,1.35157
317.97206,1.34515
317.73099,1.33563
317.48992,1.33244
317.24885,1.33815
317.00778,1.34920
316.76671,1.36274
316.52564,1.37341
316.28457,1.37254
316.04350,1.36358
315.80243,1.36120
315.56136,1.36832
315.32029,1.37195
315.07922,1.36502
314.83815,1.35494
314.59708,1.34876
314.35601,1.34771
314.11494,1.35050
313.87386,1.35619
313.63279,1.36211
313.39172,1.36313
313.15065,1.35622
312.90958,1.34436
312.66851,1.33453
312.42744,1.33414
312.18637,1.34839
311.94530,1.37225
311.70423,1.38815
311.46316,1.38508
311.22209,1.36998
310.98102,1.35987
310.73995,1.36592
310.49888,1.38615
310.25781,1.40995
310.01674,1.42405
309.77567,1.42358
309.53459,1.41491
309.29352,1.40490
309.05245,1.39643
308.81138,1.39261
308.57031,1.39661
308.32924,1.40630
308.08817,1.41434
307.84710,1.41524
307.60603,1.40910
307.36496,1.39950
307.12389,1.39104
306.88282,1.38985
306.64175,1.40040
306.40068,1.41893
306.15961,1.43391
305.91854,1.43532
305.67747,1.42347
305.43640,1.40860
305.19532,1.40333
304.95425,1.41328
304.71318,1.42943
304.47211,1.43344
304.23104,1.41953
303.98997,1.40174
303.74890,1.39326
303.50783,1.39374
303.26676,1.39736
303.02569,1.39910
302.78462,1.39198
302.54355,1.37444
302.30248,1.35449
302.06141,1.33908
301.82034,1.32922
301.57927,1.32286
301.33820,1.32092
301.09713,1.32505
300.85605,1.33062
300.61498,1.32958
300.37391,1.31946
300.13284,1.30526
299.89177,1.29366
299.65070,1.28849
299.40963,1.28875
299.16856,1.28918
298.92749,1.28590
298.68642,1.27973
298.44535,1.27319
298.20428,1.26776
297.96321,1.26354
297.72214,1.25829
297.48107,1.24895
297.24000,1.23752
296.99893,1.23055
296.75786,1.23052
296.51678,1.23232
296.27571,1.23022
296.03464,1.22477
295.79357,1.22049
295.55250,1.21928
295.31143,1.21796
295.07036,1.21244
294.82929,1.20290
294.58822,1.19292
294.34715,1.18563
294.10608,1.18216
293.86501,1.18129
293.62394,1.17958
293.38287,1.17416
293.14180,1.16540
292.90073,1.15580
292.65966,1.14766
292.41859,1.14206
292.17751,1.14024
291.93644,1.14349
291.69537,1.15035
291.45430,1.15661
291.21323,1.15830
290.97216,1.15395
290.73109,1.14619
290.49002,1.14051
290.24895,1.13871
290.00788,1.13635
289.76681,1.12961
289.52574,1.12187
289.28467,1.11908
289.04360,1.12088
288.80253,1.12180
288.56146,1.11890
288.32039,1.11389
288.07932,1.10966
287.83824,1.10843
287.59717,1.11107
287.35610,1.11533
287.11503,1.11662
286.87396,1.11289
286.63289,1.10712
286.39182,1.10431
286.15075,1.10688
285.90968,1.11241
285.66861,1.11543
285.42754,1.11358
285.18647,1.11071
284.94540,1.11068
284.70433,1.11117
284.46326,1.10763
284.22219,1.10037
283.98112,1.09327
283.74005,1.08828
283.49897,1.08575
283.25790,1.08694
283.01683,1.09244
282.77576,1.10002
282.53469,1.10575
282.29362,1.10696
282.05255,1.10405
281.81148,1.10005
281.57041,1.09834
281.32934,1.10062
281.08827,1.10586
280.84720,1.11062
280.60613,1.11196
280.36506,1.11045
280.12399,1.10899
279.88292,1.10844
279.64185,1.10698
279.40078,1.10402
279.15970,1.10175
278.91863,1.10202
278.67756,1.10349
278.43649,1.10354
278.19542,1.10184
277.95435,1.10010
277.71328,1.09999
277.47221,1.10212
277.23114,1.10520
276.99007,1.10602
276.74900,1.10337
276.50793,1.10078
276.26686,1.10231
276.02579,1.10774
275.78472,1.11322
275.54365,1.11595
275.30258,1.11671
275.06151,1.11705
274.82043,1.11742
274.57936,1.11895
274.33829,1.12353
274.09722,1.13075
273.85615,1.13691
273.61508,1.13885
273.37401,1.13708
273.13294,1.13433
272.89187,1.13320
272.65080,1.13508
272.40973,1.13977
272.16866,1.14570
271.92759,1.15039
271.68652,1.15235
271.44545,1.15274
271.20438,1.15400
270.96331,1.15796
270.72224,1.16514
270.48116,1.17310
270.24009,1.17665
269.99902,1.17391
269.75795,1.17072
269.51688,1.17407
269.27581,1.18347
269.03474,1.19168
268.79367,1.19404
268.55260,1.19445
268.31153,1.19930
268.07046,1.20870
267.82939,1.21771
267.58832,1.22427
267.34725,1.23142
267.10618,1.24252
266.86511,1.25727
266.62404,1.27088
266.38297,1.27710
266.14189,1.27499
265.90082,1.27098
265.65975,1.27160
265.41868,1.27801
265.17761,1.28914
264.93654,1.30482
264.69547,1.32282
264.45440,1.33729
264.21333,1.34547
263.97226,1.35355
263.73119,1.36987
263.49012,1.39471
263.24905,1.42081
263.00798,1.44128
262.76691,1.45285
262.52584,1.45562
262.28477,1.45524
262.04370,1.46043
261.80262,1.47631
261.56155,1.50295
261.32048,1.53553
261.07941,1.56566
260.83834,1.58855
260.59727,1.60694
260.35620,1.62571
260.11513,1.64883
259.87406,1.68035
259.63299,1.72142
259.39192,1.76838
259.15085,1.81444
258.90978,1.85253
258.66871,1.87614
258.42764,1.88249
258.18657,1.87942
257.94550,1.87075
257.70443,1.85601
257.46335,1.84805
257.22228,1.85981
256.98121,1.88423
256.74014,1.90508
256.49907,1.90846
256.25800,1.88899
256.01693,1.85881
255.77586,1.83162
255.53479,1.80792
255.29372,1.78561
255.05265,1.76718
254.81158,1.75304
254.57051,1.74454
254.32944,1.74071
254.08837,1.73133
253.84730,1.70713
253.60623,1.67638
253.36516,1.65329
253.12408,1.63922
252.88301,1.62886
252.64194,1.62089
252.40087,1.61339
252.15980,1.60300
251.91873,1.59267
251.67766,1.58955
251.43659,1.59371
251.19552,1.59611
250.95445,1.59186
250.71338,1.58703
250.47231,1.58679
250.23124,1.58626
249.99017,1.57970
249.74910,1.57286
249.50803,1.57580
249.26696,1.58697
249.02589,1.59392
248.78481,1.59020
248.54374,1.58476
248.30267,1.58742
248.06160,1.59460
247.82053,1.59806
247.57946,1.59772
247.33839,1.60016
247.09732,1.61007
246.85625,1.62435
246.61518,1.63128
246.37411,1.62291
246.13304,1.60854
245.89197,1.60197
245.65090,1.60456
245.40983,1.60955
245.16876,1.61699
244.92769,1.63707
244.68661,1.67495
244.44554,1.71905
244.20447,1.75246
243.96340,1.77426
243.72233,1.79361
243.48126,1.81236
243.24019,1.83128
242.99912,1.86239
242.75805,1.91614
242.51698,1.94216
242.27591,1.83872
242.03484,1.72232
241.79377,1.63452
241.55270,1.56177
241.31163,1.49160
241.07056,1.42429
240.82949,1.36496
240.58842,1.31458
240.34734,1.27035
240.10627,1.23024
239.86520,1.19411
239.62413,1.16138
239.38306,1.12979
239.14199,1.09781
238.90092,1.06706
238.65985,1.04004
238.41878,1.01692
238.17771,0.99613
237.93664,0.97697
237.69557,0.96033
237.45450,0.94678
237.21343,0.93470
236.97236,0.92121
236.73129,0.90592
236.49022,0.89177
236.24915,0.88090
236.00807,0.87199
235.76700,0.86317
235.52593,0.85577
235.28486,0.85195
235.04379,0.84995
234.80272,0.84524
234.56165,0.83681
234.32058,0.82835
234.07951,0.82253
233.83844,0.81810
233.59737,0.81378
233.35630,0.81108
233.11523,0.81149
232.87416,0.81333
232.63309,0.81354
232.39202,0.81154
232.15095,0.80927
231.90988,0.80756
231.66880,0.80514
231.42773,0.80186
231.18666,0.79984
230.94559,0.80042
230.70452,0.80203
230.46345,0.80228
230.22238,0.80048
229.98131,0.79783
229.74024,0.79601
229.49917,0.79555
229.25810,0.79548
229.01703,0.79448
228.77596,0.79229
228.53489,0.79013
228.29382,0.78917
228.05275,0.78832
227.81168,0.78516
227.57061,0.78033
227.32953,0.77803
227.08846,0.78007
226.84739,0.78304
226.60632,0.78347
226.36525,0.78283
226.12418,0.78387
225.88311,0.78553
225.64204,0.78606
225.40097,0.78694
225.15990,0.78970
224.91883,0.79281
224.67776,0.79491
224.43669,0.79722
224.19562,0.80075
223.95455,0.80491
223.71348,0.80903
223.47241,0.81253
223.23134,0.81478
222.99026,0.81690
222.74919,0.82141
222.50812,0.82938
222.26705,0.83977
222.02598,0.85040
221.78491,0.85871
221.54384,0.86402
221.30277,0.86888
221.06170,0.87615
220.82063,0.88611
220.57956,0.89754
220.33849,0.90925
220.09742,0.91998
219.85635,0.92939
219.61528,0.93891
219.37421,0.94944
219.13314,0.95994
218.89207,0.97069
218.65099,0.98448
218.40992,1.00172
218.16885,1.01788
217.92778,1.02954
217.68671,1.03984
217.44564,1.05364
217.20457,1.07061
216.96350,1.08742
216.72243,1.10408
216.48136,1.12282
216.24029,1.14308
215.99922,1.16238
215.75815,1.18032
215.51708,1.19738
215.27601,1.21227
215.03494,1.22483
214.79387,1.23775
214.55280,1.25190
214.31172,1.26481
214.07065,1.27666
213.82958,1.29188
213.58851,1.31224
213.34744,1.33263
213.10637,1.34587
212.86530,1.35050
212.62423,1.35018
212.38316,1.34851
212.14209,1.34784
211.90102,1.35060
211.65995,1.35976
211.41888,1.37641
211.17781,1.39556
210.93674,1.40738
210.69567,1.40708
210.45460,1.39933
210.21353,1.39079
209.97245,1.38558
209.73138,1.38600
209.49031,1.39038
209.24924,1.39546
209.00817,1.40395
208.76710,1.41918
208.52603,1.42926
208.28496,1.41473
208.04389,1.37976
207.80282,1.34729
207.56175,1.32905
207.32068,1.32201
207.07961,1.32187
206.83854,1.32680
206.59747,1.33003
206.35640,1.31977
206.11533,1.29399
205.87426,1.26505
205.63318,1.24432
205.39211,1.23271
205.15104,1.22359
204.90997,1.20927
204.66890,1.18688
204.42783,1.16044
204.18676,1.13644
203.94569,1.11772
203.70462,1.10313
203.46355,1.09122
203.22248,1.08143
202.98141,1.07223
202.74034,1.06035
202.49927,1.04285
202.25820,1.02047
202.01713,0.99757
201.77606,0.97778
201.53499,0.96050
201.29391,0.94304
201.05284,0.92503
200.81177,0.90805
200.57070,0.89229
200.32963,0.87675
200.08856,0.86162
199.84749,0.84774
199.60642,0.83521
199.36535,0.82382
199.12428,0.81365
198.88321,0.80433
198.64214,0.79465
198.40107,0.78400
198.16000,0.77330
197.91893,0.76347
197.67786,0.75421
197.43679,0.74488
197.19572,0.73530
196.95464,0.72513
196.71357,0.71410
196.47250,0.70320
196.23143,0.69418
195.99036,0.68744
195.74929,0.68133
195.50822,0.67375
195.26715,0.66392
195.02608,0.65307
194.78501,0.64386
194.54394,0.63842
194.30287,0.63611
194.06180,0.63384
193.82073,0.62943
193.57966,0.62366
193.33859,0.61868
193.09752,0.61533
192.85645,0.61223
192.61537,0.60707
192.37430,0.59962
192.13323,0.59300
191.89216,0.59026
191.65109,0.59025
191.41002,0.58882
191.16895,0.58402
190.92788,0.57833
190.68681,0.57506
190.44574,0.57411
190.20467,0.57250
189.96360,0.56847
189.72253,0.56365
189.48146,0.56033
189.24039,0.55846
188.99932,0.55650
188.75825,0.55434
188.51718,0.55351
188.27610,0.55440
188.03503,0.55516
187.79396,0.55411
187.55289,0.55220
187.31182,0.55152
187.07075,0.55234
186.82968,0.55291
186.58861,0.55196
186.34754,0.55017
186.10647,0.54884
185.86540,0.54835
185.62433,0.54822
185.38326,0.54837
185.14219,0.54937
184.90112,0.55143
184.66005,0.55407
184.41898,0.55698
184.17791,0.56033
183.93683,0.56378
183.69576,0.56665
183.45469,0.56894
183.21362,0.57086
182.97255,0.57181
182.73148,0.57163
182.49041,0.57185
182.24934,0.57387
182.00827,0.57666
181.76720,0.57846
181.52613,0.57959
181.28506,0.58103
181.04399,0.58200
180.80292,0.58214
180.56185,0.58392
180.32078,0.58894
180.07971,0.59429
179.83864,0.59691
179.59756,0.59869
179.35649,0.60304
179.11542,0.60984
178.87435,0.61705
178.63328,0.62440
178.39221,0.63334
178.15114,0.64500
177.91007,0.65911
177.66900,0.67405
177.42793,0.68821
177.18686,0.70152
176.94579,0.71521
176.70472,0.73042
176.46365,0.74728
176.22258,0.76511
175.98151,0.78376
175.74044,0.80471
175.49937,0.82894
175.25829,0.85416
175.01722,0.87697
174.77615,0.89760
174.53508,0.91970
174.29401,0.94537
174.05294,0.97219
173.81187,0.99502
173.57080,1.01123
173.32973,1.02398
173.08866,1.03867
172.84759,1.05628
172.60652,1.07263
172.36545,1.08445
172.12438,1.09201
171.88331,1.09512
171.64224,1.09244
171.40117,1.08564
171.16010,1.07943
170.91902,1.07697
170.67795,1.07710
170.43688,1.07564
170.19581,1.06932
169.95474,1.05959
169.71367,1.05061
169.47260,1.04355
169.23153,1.03592
168.99046,1.02573
168.74939,1.01386
168.50832,1.00275
168.26725,0.99471
168.02618,0.99073
167.78511,0.98979
167.54404,0.98998
167.30297,0.99077
167.06190,0.99308
166.82083,0.99727
166.57975,1.00276
166.33868,1.00927
166.09761,1.01686
165.85654,1.02521
165.61547,1.03413
165.37440,1.04378
165.13333,1.05307
164.89226,1.05956
164.65119,1.06315
164.41012,1.06802
164.16905,1.07908
163.92798,1.09745
163.68691,1.11992
163.44584,1.14182
163.20477,1.16003
162.96370,1.17342
162.72263,1.18176
162.48156,1.18533
162.24048,1.18595
161.99941,1.18653
161.75834,1.18945
161.51727,1.19620
161.27620,1.20777
161.03513,1.22260
160.79406,1.23391
160.55299,1.23404
160.31192,1.22479
160.07085,1.21661
159.82978,1.21416
159.58871,1.21213
159.34764,1.20496
159.10657,1.19330
158.86550,1.18101
158.62443,1.17092
158.38336,1.16367
158.14229,1.15774
157.90121,1.15039
157.66014,1.14008
157.41907,1.12828
157.17800,1.11896
156.93693,1.11500
156.69586,1.11534
156.45479,1.11666
156.21372,1.11652
155.97265,1.11321
155.73158,1.10383
155.49051,1.08603
155.24944,1.06266
155.00837,1.04139
154.76730,1.02783
154.52623,1.02012
154.28516,1.01187
154.04409,0.99839
153.80302,0.97821
153.56194,0.95213
153.32087,0.92362
153.07980,0.89723
152.83873,0.87529
152.59766,0.85696
152.35659,0.83970
152.11552,0.82117
151.87445,0.80093
151.63338,0.78061
151.39231,0.76188
151.15124,0.74503
150.91017,0.72949
150.66910,0.71430
150.42803,0.69834
150.18696,0.68117
149.94589,0.66328
149.70482,0.64588
149.46375,0.63051
149.22267,0.61814
148.98160,0.60824
148.74053,0.59940
148.49946,0.59122
148.25839,0.58468
148.01732,0.58048
147.77625,0.57767
147.53518,0.57464
147.29411,0.57125
147.05304,0.56896
146.81197,0.56899
146.57090,0.57129
146.32983,0.57485
146.08876,0.57860
145.84769,0.58219
145.60662,0.58629
145.36555,0.59205
145.12448,0.59981
144.88340,0.60819
144.64233,0.61495
144.40126,0.61924
144.16019,0.62208
143.91912,0.62437
143.67805,0.62522
143.43698,0.62284
143.19591,0.61692
142.95484,0.60919
142.71377,0.60137
142.47270,0.59332
142.23163,0.58363
141.99056,0.57197
141.74949,0.55983
141.50842,0.54888
141.26735,0.53971
141.02628,0.53262
140.78521,0.52836
140.54413,0.52732
140.30306,0.52841
140.06199,0.52979
139.82092,0.53102
139.57985,0.53344
139.33878,0.53787
139.09771,0.54349
138.85664,0.54951
138.61557,0.55643
138.37450,0.56507
138.13343,0.57571
137.89236,0.58857
137.65129,0.60386
137.41022,0.62119
137.16915,0.64021
136.92808,0.66152
136.68701,0.68569
136.44594,0.71184
136.20486,0.73845
135.96379,0.76567
135.72272,0.79490
135.48165,0.82624
135.24058,0.85910
134.99951,0.89404
134.75844,0.93072
134.51737,0.96726
134.27630,1.00447
134.03523,1.04569
133.79416,1.08939
133.55309,1.12792
133.31202,1.15795
133.07095,1.18422
132.82988,1.20927
132.58881,1.22924
132.34774,1.24025
132.10667,1.24344
131.86559,1.24297
131.62452,1.24019
131.38345,1.23054
131.14238,1.20954
130.90131,1.18098
130.66024,1.15235
130.41917,1.12417
130.17810,1.08979
129.93703,1.04503
129.69596,0.99398
129.45489,0.94454
129.21382,0.90125
128.97275,0.86318
128.73168,0.82651
128.49061,0.78891
128.24954,0.75164
128.00847,0.71738
127.76740,0.68724
127.52632,0.66025
127.28525,0.63503
127.04418,0.61120
126.80311,0.58932
126.56204,0.57011
126.32097,0.55370
126.07990,0.53923
125.83883,0.52547
125.59776,0.51185
125.35669,0.49879
125.11562,0.48702
124.87455,0.47679
124.63348,0.46773
124.39241,0.45929
124.15134,0.45103
123.91027,0.44311
123.66920,0.43655
123.42812,0.43232
123.18705,0.43001
122.94598,0.42801
122.70491,0.42564
122.46384,0.42410
122.22277,0.42482
121.98170,0.42756
121.74063,0.43099
121.49956,0.43455
121.25849,0.43899
121.01742,0.44512
120.77635,0.45281
120.53528,0.46177
120.29421,0.47267
120.05314,0.48663
119.81207,0.50386
119.57100,0.52406
119.32993,0.54779
119.08885,0.57545
118.84778,0.60534
118.60671,0.63550
118.36564,0.66711
118.12457,0.70256
117.88350,0.74032
117.64243,0.77546
117.40136,0.80446
117.16029,0.82599
116.91922,0.83886
116.67815,0.84305
116.43708,0.84026
116.19601,0.83117
115.95494,0.81498
115.71387,0.79210
115.47280,0.76592
115.23173,0.74146
114.99066,0.72205
114.74958,0.70771
114.50851,0.69675
114.26744,0.68802
114.02637,0.68147
113.78530,0.67736
113.54423,0.67546
113.30316,0.67521
113.06209,0.67722
112.82102,0.68350
112.57995,0.69510
112.33888,0.71073
112.09781,0.72818
111.85674,0.74493
111.61567,0.75733
111.37460,0.76223
111.13353,0.76043
110.89246,0.75597
110.65139,0.75117
110.41031,0.74506
110.16924,0.73656
109.92817,0.72699
109.68710,0.71833
109.44603,0.71034
109.20496,0.70010
108.96389,0.68426
108.72282,0.66161
108.48175,0.63376
108.24068,0.60353
107.99961,0.57405
107.75854,0.54811
107.51747,0.52628
107.27640,0.50691
107.03533,0.48908
106.79426,0.47393
106.55319,0.46201
106.31212,0.45106
106.07104,0.43786
105.82997,0.42139
105.58890,0.40381
105.34783,0.38834
105.10676,0.37625
104.86569,0.36640
104.62462,0.35788
104.38355,0.35118
104.14248,0.34601
103.90141,0.33975
103.66034,0.33011
103.41927,0.31840
103.17820,0.30852
102.93713,0.30338
102.69606,0.30285
102.45499,0.30380
102.21392,0.30204
101.97285,0.29552
101.73177,0.28627
101.49070,0.27830
101.24963,0.27401
101.00856,0.27300
100.76749,0.27324
100.52642,0.27241
100.28535,0.26909
100.04428,0.26414
99.80321,0.26000
99.56214,0.25822
99.32107,0.25787
99.08000,0.25659
98.83893,0.25308
98.59786,0.24833
98.35679,0.24436
98.11572,0.24266
97.87465,0.24383
97.63358,0.24690
97.39250,0.24954
97.15143,0.25063
96.91036,0.25232
96.66929,0.25789
96.42822,0.26776
96.18715,0.27819
95.94608,0.28545
95.70501,0.29119
95.46394,0.29999
95.22287,0.31227
94.98180,0.32269
94.74073,0.32690
94.49966,0.32777
94.25859,0.33087
94.01752,0.33611
93.77645,0.33796
93.53538,0.33440
93.29431,0.33092
93.05323,0.33229
92.81216,0.33594
92.57109,0.33713
92.33002,0.33693
92.08895,0.33945
91.84788,0.34434
91.60681,0.34862
91.36574,0.35426
91.12467,0.36710
90.88360,0.38893
90.64253,0.41754
90.40146,0.45312
90.16039,0.49631
89.91932,0.54278
89.67825,0.58966
89.43718,0.64125
89.19611,0.69566
88.95504,0.73859
88.71396,0.76074
88.47289,0.76324
88.23182,0.74431
87.99075,0.70311
87.74968,0.64937
87.50861,0.59375
87.26754,0.54035
87.02647,0.49111
86.78540,0.44844
86.54433,0.41350
86.30326,0.38499
86.06219,0.36020
85.82112,0.33690
85.58005,0.31471
85.33898,0.29432
85.09791,0.27615
84.85684,0.26015
84.61577,0.24643
84.37469,0.23509
84.13362,0.22562
83.89255,0.21695
83.65148,0.20854
83.41041,0.20094
83.16934,0.19487
82.92827,0.19034
82.68720,0.18689
82.44613,0.18417
82.20506,0.18180
81.96399,0.17941
81.72292,0.17680
81.48185,0.17418
81.24078,0.17196
80.99971,0.17044
80.75864,0.16956
80.51757,0.16899
80.27650,0.16839
80.03542,0.16744
79.79435,0.16596
79.55328,0.16393
79.31221,0.16161
79.07114,0.15955
78.83007,0.15839
78.58900,0.15839
78.34793,0.15886
78.10686,0.15821
77.86579,0.15519
77.62472,0.15014
77.38365,0.14464
77.14258,0.14024
76.90151,0.13795
76.66044,0.13810
76.41937,0.14002
76.17830,0.14217
75.93723,0.14306
75.69615,0.14197
75.45508,0.13927
75.21401,0.13628
74.97294,0.13439
74.73187,0.13414
74.49080,0.13506
74.24973,0.13615
74.00866,0.13698
73.76759,0.13800
73.52652,0.13931
73.28545,0.13994
73.04438,0.13944
72.80331,0.13923
72.56224,0.14104
72.32117,0.14507
72.08010,0.15029
71.83903,0.15538
71.59796,0.15884
71.35688,0.15902
71.11581,0.15576
70.87474,0.15216
70.63367,0.15365
70.39260,0.16414
70.15153,0.18302
69.91046,0.20630
69.66939,0.22969
69.42832,0.24967
69.18725,0.26239
68.94618,0.26417
68.70511,0.25446
68.46404,0.23661
68.22297,0.21489
67.98190,0.19263
67.74083,0.17259
67.49976,0.15684
67.25869,0.14620
67.01761,0.13998
66.77654,0.13586
66.53547,0.13090
66.29440,0.12434
66.05333,0.11874
65.81226,0.11724
65.57119,0.12061
65.33012,0.12750
65.08905,0.13627
64.84798,0.14615
64.60691,0.15734
64.36584,0.16993
64.12477,0.18227
63.88370,0.19088
63.64263,0.19268
63.40156,0.18718
63.16049,0.17668
62.91942,0.16503
62.67834,0.15530
62.43727,0.14805
62.19620,0.14205
61.95513,0.13653
61.71406,0.13169
61.47299,0.12736
61.23192,0.12309
60.99085,0.11958
60.74978,0.11831
60.50871,0.11934
60.26764,0.12108
60.02657,0.12238
59.78550,0.12366
59.54443,0.12547
59.30336,0.12672
59.06229,0.12548
58.82122,0.12189
58.58015,0.11904
58.33907,0.12016
58.09800,0.12560
57.85693,0.13365
57.61586,0.14316
57.37479,0.15359
57.13372,0.16288
56.89265,0.16695
56.65158,0.16281
56.41051,0.15210
56.16944,0.13931
55.92837,0.12725
55.68730,0.11645
55.44623,0.10768
55.20516,0.10238
54.96409,0.10086
54.72302,0.10244
54.48195,0.10743
54.24088,0.11781
53.99980,0.13532
53.75873,0.15710
53.51766,0.17258
53.27659,0.17028
53.03552,0.15166
52.79445,0.12865
52.55338,0.11192
52.31231,0.10793
52.07124,0.11995
51.83017,0.14611
51.58910,0.17269
51.34803,0.17516
51.10696,0.14806
50.86589,0.11501
50.62482,0.09641
50.38375,0.09896
50.14268,0.12052
49.90161,0.14863
49.66053,0.15703
49.41946,0.13240
49.17839,0.10088
48.93732,0.09240
48.69625,0.11553
48.45518,0.14986
48.21411,0.15366
47.97304,0.12477
47.73197,0.10597
47.49090,0.12087
47.24983,0.15035
47.00876,0.14684
46.76769,0.11522
46.52662,0.10092
46.28555,0.11236
46.04448,0.12233
45.80341,0.11324
45.56234,0.10641
45.32126,0.11434
45.08019,0.11970
44.83912,0.11535
44.59805,0.11894
44.35698,0.13088
44.11591,0.13237
43.87484,0.12458
43.63377,0.12206
43.39270,0.12370
43.15163,0.12424
42.91056,0.12972
42.66949,0.14289
42.42842,0.15424
42.18735,0.15524
41.94628,0.14850
41.70521,0.14120
41.46414,0.13578
41.22307,0.12979
40.98199,0.12319
40.74092,0.12019
40.49985,0.12183
40.25878,0.12463
40.01771,0.12794
39.77664,0.13522
39.53557,0.14584
39.29450,0.15306
39.05343,0.15364
38.81236,0.15329
38.57129,0.15982
38.33022,0.17456
38.08915,0.19177
37.84808,0.20338
37.60701,0.20324
37.36594,0.19075
37.12487,0.17189
36.88380,0.15599
36.64272,0.15091
36.40165,0.15720
36.16058,0.16738
35.91951,0.17339
35.67844,0.17493
35.43737,0.17725
35.19630,0.18192
34.95523,0.18650
34.71416,0.18788
34.47309,0.18419
34.23202,0.17884
33.99095,0.17681
33.74988,0.17499
33.50881,0.16542
33.26774,0.14807
33.02667,0.13338
32.78560,0.13290
32.54453,0.14840
32.30345,0.16816
32.06238,0.17806
31.82131,0.17438
31.58024,0.16064
31.33917,0.13994
31.09810,0.11549
30.85703,0.09165
30.61596,0.07296
30.37489,0.06268
30.13382,0.06043
29.89275,0.06360
29.65168,0.06722
29.41061,0.06150
29.16954,0.04013
28.92847,0.00993
28.68740,-0.01534
28.44633,-0.03074
28.20526,-0.04431
27.96418,-0.06272
27.72311,-0.08115
27.48204,-0.09155
27.24097,-0.09745
26.99990,-0.11015
26.75883,-0.13237
26.51776,-0.15475
26.27669,-0.16502
26.03562,-0.15687
25.79455,-0.13547
25.55348,-0.11697
25.31241,-0.11406
25.07134,-0.12502
24.83027,-0.13937
24.58920,-0.15074
24.34813,-0.16290
24.10706,-0.18263
23.86599,-0.20993
23.62491,-0.24047
23.38384,-0.26649
23.14277,-0.27459
22.90170,-0.25932
22.66063,-0.23669
22.41956,-0.23361
22.17849,-0.25927
21.93742,-0.29708
21.69635,-0.32375
21.45528,-0.32758
21.21421,-0.31335
20.97314,-0.29295
20.73207,-0.27236
20.49100,-0.26328
20.24993,-0.28055
20.00886,-0.31805
19.76779,-0.35269
19.52672,-0.37216
19.28564,-0.38212
19.04457,-0.38915
18.80350,-0.39584
18.56243,-0.39431
18.32136,-0.38321
18.08029,-0.39782
17.83922,-0.41722
17.59815,-0.42652
17.35708,-0.44453
17.11601,-0.48255
16.87494,-0.53261
16.63387,-0.55697
16.39280,-0.54681
16.15173,-0.52370
15.91066,-0.51388
15.66959,-0.53276
15.42852,-0.56304
15.18745,-0.57996
14.94637,-0.57132
14.70530,-0.53858
14.46423,-0.47371
14.22316,-0.42760
13.98209,-0.41780
13.74102,-0.42797
13.49995,-0.45266
13.25888,-0.45789
13.01781,-0.42062
12.77674,-0.38656
12.53567,-0.39267
12.29460,-0.44311
12.05353,-0.49951
11.81246,-0.50243
11.57139,-0.46943
11.33032,-0.43981
11.08925,-0.43497
10.84818,-0.44562
10.60710,-0.44781
10.36603,-0.42959
10.12496,-0.41247
9.88389,-0.41079
9.64282,-0.41512
9.40175,-0.41350
9.16068,-0.41001
8.91961,-0.42283
8.67854,-0.46586
8.43747,-0.52645
8.19640,-0.55798
7.95533,-0.53574
7.71426,-0.49484
7.47319,-0.48063
7.23212,-0.48557
6.99105,-0.46257
6.74998,-0.44453
6.50891,-0.45700
6.26783,-0.49311
6.02676,-0.48252
5.78569,-0.44113
5.54462,-0.42630
5.30355,-0.43752
5.06248,-0.45753
4.82141,-0.46770
4.58034,-0.45478
4.33927,-0.44499
4.09820,-0.45167
3.85713,-0.45537
3.61606,-0.44995
3.37499,-0.44327
3.13392,-0.43456
2.89285,-0.42381
2.65178,-0.41556
2.41071,-0.42912
2.16964,-0.46217
1.92856,-0.47373
1.68749,-0.47653
1.44642,-0.48174
1.20535,-0.47250
0.96428,-0.44751
0.72321,-0.42890
0.48214,-0.41277
0.24107,-0.37389
-0.00000,-0.10429
