399.69498,1.70257
399.45391,1.67273
399.21284,1.63817
398.97177,1.61303
398.73070,1.61086
398.48963,1.63181
398.24856,1.65852
398.00749,1.66678
397.76642,1.65575
397.52535,1.64198
397.28428,1.64620
397.04321,1.67832
396.80214,1.71991
396.56107,1.74424
396.32000,1.74132
396.07892,1.72238
395.83785,1.70654
395.59678,1.70439
395.35571,1.71904
395.11464,1.74774
394.87357,1.77966
394.63250,1.80676
394.39143,1.82735
394.15036,1.83626
393.90929,1.83048
393.66822,1.81786
393.42715,1.81426
393.18608,1.81991
392.94501,1.84386
392.70394,1.90657
392.46287,1.97435
392.22180,1.98842
391.98073,1.96955
391.73965,1.94473
391.49858,1.93096
391.25751,1.96337
391.01644,2.04571
390.77537,2.17442
390.53430,2.36276
390.29323,2.33118
390.05216,2.17794
389.81109,2.13200
389.57002,2.13551
389.32895,2.14292
389.08788,2.20305
388.84681,2.21373
388.60574,2.17619
388.36467,2.09532
388.12360,2.01953
387.88253,1.96850
387.64146,1.91385
387.40038,1.87034
387.15931,1.87748
386.91824,1.91945
386.67717,1.96332
386.43610,2.02061
386.19503,2.03527
385.95396,2.04904
385.71289,2.22040
385.47182,2.40243
385.23075,2.13140
384.98968,1.99664
384.74861,2.05935
384.50754,2.16010
384.26647,2.08541
384.02540,2.00952
383.78433,2.08333
383.54326,2.18462
383.30219,2.15620
383.06111,2.03996
382.82004,2.02757
382.57897,2.04763
382.33790,1.91235
382.09683,1.87756
381.85576,2.03643
381.61469,2.45511
381.37362,2.60586
381.13255,2.51777
380.89148,2.46960
380.65041,2.28595
380.40934,2.24333
380.16827,2.20158
379.92720,2.07582
379.68613,1.92273
379.44506,1.87699
379.20399,1.96370
378.96292,2.13605
378.72184,2.21820
378.48077,2.19802
378.23970,2.03161
377.99863,1.98019
377.75756,2.02397
377.51649,2.04013
377.27542,2.11817
377.03435,2.37754
376.79328,2.21227
376.55221,1.95684
376.31114,1.88405
376.07007,1.95779
375.82900,2.09142
375.58793,2.04076
375.34686,1.90350
375.10579,1.82966
374.86472,1.78118
374.62365,1.75310
374.38257,1.78519
374.14150,1.87444
373.90043,1.98345
373.65936,2.04532
373.41829,1.97244
373.17722,1.87887
372.93615,1.82224
372.69508,1.80828
372.45401,1.81811
372.21294,1.79709
371.97187,1.71646
371.73080,1.63350
371.48973,1.58182
371.24866,1.54695
371.00759,1.50953
370.76652,1.47047
370.52545,1.44017
370.28437,1.42594
370.04330,1.42904
369.80223,1.43804
369.56116,1.44178
369.32009,1.44481
369.07902,1.44813
368.83795,1.43749
368.59688,1.40780
368.35581,1.37332
368.11474,1.34978
367.87367,1.34051
367.63260,1.33857
367.39153,1.33896
367.15046,1.34495
366.90939,1.35651
366.66832,1.36475
366.42725,1.36740
366.18618,1.36970
365.94510,1.37149
365.70403,1.36673
365.46296,1.35206
365.22189,1.32825
364.98082,1.30014
364.73975,1.27762
364.49868,1.26758
364.25761,1.26835
364.01654,1.27383
363.77547,1.27911
363.53440,1.28161
363.29333,1.28105
363.05226,1.27744
362.81119,1.26920
362.57012,1.25877
362.32905,1.25290
362.08798,1.25469
361.84691,1.26248
361.60583,1.27590
361.36476,1.29331
361.12369,1.30310
360.88262,1.29288
360.64155,1.26895
360.40048,1.25014
360.15941,1.24580
359.91834,1.25012
359.67727,1.25392
359.43620,1.25489
359.19513,1.25287
358.95406,1.24609
358.71299,1.23795
358.47192,1.23631
358.23085,1.24309
357.98978,1.25065
357.74871,1.25182
357.50764,1.24973
357.26656,1.24811
357.02549,1.24387
356.78442,1.23568
356.54335,1.22758
356.30228,1.22415
356.06121,1.22660
355.82014,1.23230
355.57907,1.23689
355.33800,1.23776
355.09693,1.23685
354.85586,1.23839
354.61479,1.24321
354.37372,1.24988
354.13265,1.25952
353.89158,1.27134
353.65051,1.27670
353.40944,1.26823
353.16837,1.25178
352.92729,1.23898
352.68622,1.23502
352.44515,1.23692
352.20408,1.23940
351.96301,1.24057
351.72194,1.24183
351.48087,1.24630
351.23980,1.25540
350.99873,1.26437
350.75766,1.26273
350.51659,1.24611
350.27552,1.22700
350.03445,1.22515
349.79338,1.24942
349.55231,1.28737
349.31124,1.31130
349.07017,1.30479
348.82910,1.28107
348.58802,1.26434
348.34695,1.26522
348.10588,1.27862
347.86481,1.29525
347.62374,1.30959
347.38267,1.31668
347.14160,1.31185
346.90053,1.29885
346.65946,1.28849
346.41839,1.28675
346.17732,1.29206
345.93625,1.30294
345.69518,1.31953
345.45411,1.33624
345.21304,1.34418
344.97197,1.34516
344.73090,1.35017
344.48983,1.36384
344.24875,1.38295
344.00768,1.40259
343.76661,1.41837
343.52554,1.43052
343.28447,1.44061
343.04340,1.44181
342.80233,1.42641
342.56126,1.40234
342.32019,1.38689
342.07912,1.39041
341.83805,1.41161
341.59698,1.44293
341.35591,1.47641
341.11484,1.50249
340.87377,1.51780
340.63270,1.53449
340.39163,1.56505
340.15056,1.59728
339.90948,1.60512
339.66841,1.59470
339.42734,1.59491
339.18627,1.60152
338.94520,1.58979
338.70413,1.56994
338.46306,1.56887
338.22199,1.59396
337.98092,1.63377
337.73985,1.69004
337.49878,1.78161
337.25771,1.89542
337.01664,1.95690
336.77557,1.97087
336.53450,1.93011
336.29343,1.84163
336.05236,1.76519
335.81129,1.73481
335.57021,1.73801
335.32914,1.74471
335.08807,1.74768
334.84700,1.77010
334.60593,1.81404
334.36486,1.82890
334.12379,1.78844
333.88272,1.74056
333.64165,1.71862
333.40058,1.70836
333.15951,1.69493
332.91844,1.68419
332.67737,1.69838
332.43630,1.74619
332.19523,1.78797
331.95416,1.77821
331.71309,1.73344
331.47202,1.68931
331.23094,1.64281
330.98987,1.58799
330.74880,1.54561
330.50773,1.53672
330.26666,1.55060
330.02559,1.55698
329.78452,1.54752
329.54345,1.53517
329.30238,1.52320
329.06131,1.51117
328.82024,1.50729
328.57917,1.50430
328.33810,1.48082
328.09703,1.44767
327.85596,1.44035
327.61489,1.47444
327.37382,1.52688
327.13275,1.55310
326.89167,1.54027
326.65060,1.51528
326.40953,1.49624
326.16846,1.48575
325.92739,1.48916
325.68632,1.51004
325.44525,1.54690
325.20418,1.58765
324.96311,1.61165
324.72204,1.61913
324.48097,1.63257
324.23990,1.66229
323.99883,1.69040
323.75776,1.70553
323.51669,1.74477
323.27562,1.84178
323.03455,1.94252
322.79348,1.92689
322.55240,1.81847
322.31133,1.72745
322.07026,1.71237
321.82919,1.77879
321.58812,1.87726
321.34705,1.91699
321.10598,1.87536
320.86491,1.84061
320.62384,1.85876
320.38277,1.90060
320.14170,1.93766
319.90063,1.98848
319.65956,2.06777
319.41849,2.10257
319.17742,2.04582
318.93635,1.99649
318.69528,1.98746
318.45421,1.96182
318.21313,1.94902
317.97206,2.01962
317.73099,2.10783
317.48992,2.10580
317.24885,2.01367
317.00778,1.92859
316.76671,1.89044
316.52564,1.89367
316.28457,1.94810
316.04350,2.04214
315.80243,2.09184
315.56136,2.04592
315.32029,1.96452
315.07922,1.90569
314.83815,1.89579
314.59708,1.92659
314.35601,1.94012
314.11494,1.91318
313.87386,1.88583
313.63279,1.88944
313.39172,1.96307
313.15065,2.03129
312.90958,2.07203
312.66851,2.16201
312.42744,2.23739
312.18637,2.22938
311.94530,2.18637
311.70423,2.19100
311.46316,2.25382
311.22209,2.23492
310.98102,2.13678
310.73995,2.03447
310.49888,2.00580
310.25781,2.10937
310.01674,2.26801
309.77567,2.21040
309.53459,2.25086
309.29352,2.35454
309.05245,2.13229
308.81138,2.02384
308.57031,2.04410
308.32924,2.05465
308.08817,2.02164
307.84710,2.02391
307.60603,2.09408
307.36496,2.21376
307.12389,2.31041
306.88282,2.30376
306.64175,2.12909
306.40068,1.94356
306.15961,1.81721
305.91854,1.73280
305.67747,1.67682
305.43640,1.63653
305.19532,1.61006
304.95425,1.60336
304.71318,1.61177
304.47211,1.61621
304.23104,1.61191
303.98997,1.61004
303.74890,1.60430
303.50783,1.57317
303.26676,1.52330
303.02569,1.48808
302.78462,1.47633
302.54355,1.46172
302.30248,1.42119
302.06141,1.36333
301.82034,1.31247
301.57927,1.28098
301.33820,1.26544
301.09713,1.25742
300.85605,1.25316
300.61498,1.25153
300.37391,1.24826
300.13284,1.24051
299.89177,1.23024
299.65070,1.21825
299.40963,1.20311
299.16856,1.18813
298.92749,1.17826
298.68642,1.17171
298.44535,1.16373
298.20428,1.15502
297.96321,1.14983
297.72214,1.14851
297.48107,1.14790
297.24000,1.14514
296.99893,1.13867
296.75786,1.12950
296.51678,1.12148
296.27571,1.11775
296.03464,1.11700
295.79357,1.11522
295.55250,1.11044
295.31143,1.10378
295.07036,1.09766
294.82929,1.09441
294.58822,1.09375
294.34715,1.09096
294.10608,1.08157
293.86501,1.06797
293.62394,1.05664
293.38287,1.05105
293.14180,1.04974
292.90073,1.04902
292.65966,1.04670
292.41859,1.04263
292.17751,1.03899
291.93644,1.03869
291.69537,1.04099
291.45430,1.04198
291.21323,1.04012
290.97216,1.03715
290.73109,1.03439
290.49002,1.03239
290.24895,1.03203
290.00788,1.03244
289.76681,1.02958
289.52574,1.02032
289.28467,1.00715
289.04360,0.99604
288.80253,0.98993
288.56146,0.98615
288.32039,0.98148
288.07932,0.97772
287.83824,0.97884
287.59717,0.98452
287.35610,0.98978
287.11503,0.99094
286.87396,0.98870
286.63289,0.98515
286.39182,0.98131
286.15075,0.97772
285.90968,0.97615
285.66861,0.97876
285.42754,0.98420
285.18647,0.98649
284.94540,0.98168
284.70433,0.97407
284.46326,0.97032
284.22219,0.97067
283.98112,0.97134
283.74005,0.97108
283.49897,0.97027
283.25790,0.96748
283.01683,0.96188
282.77576,0.95664
282.53469,0.95634
282.29362,0.96180
282.05255,0.96887
281.81148,0.97186
281.57041,0.96893
281.32934,0.96282
281.08827,0.95632
280.84720,0.95051
280.60613,0.94737
280.36506,0.95003
280.12399,0.95833
279.88292,0.96714
279.64185,0.97157
279.40078,0.97100
279.15970,0.96648
278.91863,0.95811
278.67756,0.94728
278.43649,0.93749
278.19542,0.93107
277.95435,0.92801
277.71328,0.92814
277.47221,0.93111
277.23114,0.93473
276.99007,0.93686
276.74900,0.93906
276.50793,0.94556
276.26686,0.95631
276.02579,0.96373
275.78472,0.96154
275.54365,0.95360
275.30258,0.94807
275.06151,0.94779
274.82043,0.95066
274.57936,0.95493
274.33829,0.96050
274.09722,0.96721
273.85615,0.97383
273.61508,0.97811
273.37401,0.97861
273.13294,0.97680
272.89187,0.97555
272.65080,0.97558
272.40973,0.97504
272.16866,0.97273
271.92759,0.96974
271.68652,0.96762
271.44545,0.96710
271.20438,0.96900
270.96331,0.97352
270.72224,0.97858
270.48116,0.98140
270.24009,0.98202
269.99902,0.98336
269.75795,0.98813
269.51688,0.99636
269.27581,1.00509
269.03474,1.01100
268.79367,1.01409
268.55260,1.01632
268.31153,1.01717
268.07046,1.01535
267.82939,1.01321
267.58832,1.01374
267.34725,1.01503
267.10618,1.01326
266.86511,1.01036
266.62404,1.01352
266.38297,1.02595
266.14189,1.04135
265.90082,1.05074
265.65975,1.05355
265.41868,1.05590
265.17761,1.06098
264.93654,1.06783
264.69547,1.07569
264.45440,1.08449
264.21333,1.09299
263.97226,1.10067
263.73119,1.11065
263.49012,1.12627
263.24905,1.14466
263.00798,1.15746
262.76691,1.15981
262.52584,1.15619
262.28477,1.15533
262.04370,1.16273
261.80262,1.17963
261.56155,1.20321
261.32048,1.22726
261.07941,1.24619
260.83834,1.25849
260.59727,1.26658
260.35620,1.27513
260.11513,1.28804
259.87406,1.30466
259.63299,1.32180
259.39192,1.33629
259.15085,1.34644
258.90978,1.35742
258.66871,1.37930
258.42764,1.41424
258.18657,1.45023
257.94550,1.47263
257.70443,1.48191
257.46335,1.49393
257.22228,1.52499
256.98121,1.57741
256.74014,1.62950
256.49907,1.64536
256.25800,1.62477
256.01693,1.61178
255.77586,1.64149
255.53479,1.71402
255.29372,1.80007
255.05265,1.86201
254.81158,1.88491
254.57051,1.88187
254.32944,1.87501
254.08837,1.88341
253.84730,1.92442
253.60623,2.01381
253.36516,2.14964
253.12408,2.27691
252.88301,2.33020
252.64194,2.40135
252.40087,2.44955
252.15980,2.36104
251.91873,2.37495
251.67766,2.47872
251.43659,2.57464
251.19552,2.62412
250.95445,2.62657
250.71338,2.52863
250.47231,2.35897
250.23124,2.32306
249.99017,2.36394
249.74910,2.54029
249.50803,2.79792
249.26696,2.62099
249.02589,2.37810
248.78481,2.30556
248.54374,2.34712
248.30267,2.45768
248.06160,2.61805
247.82053,2.76342
247.57946,2.70134
247.33839,2.54916
247.09732,2.43761
246.85625,2.41514
246.61518,2.45906
246.37411,2.44392
246.13304,2.35432
245.89197,2.19529
245.65090,2.07860
245.40983,1.98266
245.16876,1.88645
244.92769,1.81793
244.68661,1.79480
244.44554,1.80230
244.20447,1.80684
243.96340,1.77482
243.72233,1.70168
243.48126,1.61997
243.24019,1.55466
242.99912,1.50281
242.75805,1.45113
242.51698,1.39453
242.27591,1.33811
242.03484,1.28839
241.79377,1.24577
241.55270,1.20389
241.31163,1.15777
241.07056,1.11187
240.82949,1.07478
240.58842,1.04775
240.34734,1.02347
240.10627,0.99588
239.86520,0.96674
239.62413,0.94060
239.38306,0.91817
239.14199,0.89749
238.90092,0.87757
238.65985,0.85851
238.41878,0.84015
238.17771,0.82229
237.93664,0.80570
237.69557,0.79188
237.45450,0.78167
237.21343,0.77397
236.97236,0.76644
236.73129,0.75792
236.49022,0.74870
236.24915,0.73923
236.00807,0.72995
235.76700,0.72165
235.52593,0.71497
235.28486,0.71043
235.04379,0.70837
234.80272,0.70738
234.56165,0.70404
234.32058,0.69643
234.07951,0.68670
233.83844,0.67879
233.59737,0.67507
233.35630,0.67490
233.11523,0.67495
232.87416,0.67178
232.63309,0.66558
232.39202,0.65938
232.15095,0.65508
231.90988,0.65262
231.66880,0.65263
231.42773,0.65620
231.18666,0.66175
230.94559,0.66533
230.70452,0.66440
230.46345,0.65975
230.22238,0.65412
229.98131,0.65022
229.74024,0.64955
229.49917,0.65146
229.25810,0.65412
229.01703,0.65647
228.77596,0.65790
228.53489,0.65709
228.29382,0.65394
228.05275,0.65119
227.81168,0.65128
227.57061,0.65332
227.32953,0.65495
227.08846,0.65511
226.84739,0.65377
226.60632,0.65140
226.36525,0.64923
226.12418,0.64859
225.88311,0.64983
225.64204,0.65205
225.40097,0.65382
225.15990,0.65482
224.91883,0.65650
224.67776,0.66015
224.43669,0.66446
224.19562,0.66678
223.95455,0.66661
223.71348,0.66604
223.47241,0.66705
223.23134,0.66985
222.99026,0.67383
222.74919,0.67875
222.50812,0.68458
222.26705,0.69091
222.02598,0.69705
221.78491,0.70281
221.54384,0.70892
221.30277,0.71588
221.06170,0.72255
220.82063,0.72729
220.57956,0.73096
220.33849,0.73662
220.09742,0.74511
219.85635,0.75356
219.61528,0.75995
219.37421,0.76673
219.13314,0.77773
218.89207,0.79290
218.65099,0.80799
218.40992,0.81967
218.16885,0.82900
217.92778,0.83850
217.68671,0.84890
217.44564,0.86034
217.20457,0.87292
216.96350,0.88535
216.72243,0.89618
216.48136,0.90631
216.24029,0.91691
215.99922,0.92646
215.75815,0.93250
215.51708,0.93504
215.27601,0.93677
215.03494,0.94085
214.79387,0.94936
214.55280,0.96298
214.31172,0.98061
214.07065,0.99943
213.82958,1.01608
213.58851,1.02878
213.34744,1.03856
213.10637,1.04630
212.86530,1.05121
212.62423,1.05327
212.38316,1.05442
212.14209,1.05721
211.90102,1.06193
211.65995,1.06682
211.41888,1.07179
211.17781,1.07831
210.93674,1.08516
210.69567,1.09014
210.45460,1.09501
210.21353,1.10160
209.97245,1.10640
209.73138,1.10596
209.49031,1.10258
209.24924,1.09894
209.00817,1.09325
208.76710,1.08335
208.52603,1.07123
208.28496,1.06153
208.04389,1.05603
207.80282,1.05206
207.56175,1.04679
207.32068,1.04067
207.07961,1.03477
206.83854,1.02757
206.59747,1.01735
206.35640,1.00604
206.11533,0.99755
205.87426,0.99157
205.63318,0.98315
205.39211,0.97008
205.15104,0.95633
204.90997,0.94591
204.66890,0.93776
204.42783,0.92901
204.18676,0.92021
203.94569,0.91355
203.70462,0.90753
203.46355,0.89704
203.22248,0.87992
202.98141,0.86079
202.74034,0.84625
202.49927,0.83710
202.25820,0.82832
202.01713,0.81684
201.77606,0.80481
201.53499,0.79485
201.29391,0.78642
201.05284,0.77721
200.81177,0.76547
200.57070,0.75102
200.32963,0.73575
200.08856,0.72251
199.84749,0.71242
199.60642,0.70451
199.36535,0.69775
199.12428,0.69167
198.88321,0.68534
198.64214,0.67777
198.40107,0.66892
198.16000,0.65879
197.91893,0.64707
197.67786,0.63481
197.43679,0.62430
197.19572,0.61616
196.95464,0.60872
196.71357,0.60078
196.47250,0.59280
196.23143,0.58508
195.99036,0.57713
195.74929,0.56896
195.50822,0.56138
195.26715,0.55473
195.02608,0.54868
194.78501,0.54352
194.54394,0.54010
194.30287,0.53787
194.06180,0.53463
193.82073,0.52893
193.57966,0.52165
193.33859,0.51482
193.09752,0.51011
192.85645,0.50810
192.61537,0.50764
192.37430,0.50581
192.13323,0.50057
191.89216,0.49333
191.65109,0.48742
191.41002,0.48456
191.16895,0.48402
190.92788,0.48395
190.68681,0.48245
190.44574,0.47854
190.20467,0.47321
189.96360,0.46858
189.72253,0.46584
189.48146,0.46487
189.24039,0.46520
188.99932,0.46652
188.75825,0.46837
188.51718,0.46996
188.27610,0.47028
188.03503,0.46864
187.79396,0.46551
187.55289,0.46181
187.31182,0.45784
187.07075,0.45405
186.82968,0.45185
186.58861,0.45215
186.34754,0.45427
186.10647,0.45728
185.86540,0.46075
185.62433,0.46358
185.38326,0.46447
185.14219,0.46411
184.90112,0.46450
184.66005,0.46623
184.41898,0.46840
184.17791,0.47073
183.93683,0.47363
183.69576,0.47695
183.45469,0.48027
183.21362,0.48324
182.97255,0.48478
182.73148,0.48379
182.49041,0.48122
182.24934,0.47957
182.00827,0.47967
181.76720,0.47984
181.52613,0.47891
181.28506,0.47791
181.04399,0.47826
180.80292,0.47990
180.56185,0.48226
180.32078,0.48546
180.07971,0.48944
179.83864,0.49327
179.59756,0.49658
179.35649,0.50025
179.11542,0.50480
178.87435,0.50937
178.63328,0.51357
178.39221,0.51927
178.15114,0.52895
177.91007,0.54244
177.66900,0.55680
177.42793,0.56981
177.18686,0.58214
176.94579,0.59538
176.70472,0.60960
176.46365,0.62454
176.22258,0.64072
175.98151,0.65788
175.74044,0.67451
175.49937,0.69031
175.25829,0.70641
175.01722,0.72260
174.77615,0.73724
174.53508,0.75067
174.29401,0.76625
174.05294,0.78754
173.81187,0.81426
173.57080,0.84022
173.32973,0.85729
173.08866,0.86376
172.84759,0.86506
172.60652,0.86637
172.36545,0.87002
172.12438,0.87701
171.88331,0.88569
171.64224,0.89121
171.40117,0.89082
171.16010,0.88638
170.91902,0.87969
170.67795,0.87066
170.43688,0.86078
170.19581,0.85283
169.95474,0.84676
169.71367,0.84072
169.47260,0.83559
169.23153,0.83345
168.99046,0.83229
168.74939,0.82774
168.50832,0.82038
168.26725,0.81583
168.02618,0.81620
167.78511,0.81724
167.54404,0.81530
167.30297,0.81242
167.06190,0.81264
166.82083,0.81684
166.57975,0.82252
166.33868,0.82711
166.09761,0.83026
165.85654,0.83290
165.61547,0.83554
165.37440,0.83857
165.13333,0.84286
164.89226,0.84944
164.65119,0.85942
164.41012,0.87254
164.16905,0.88497
163.92798,0.89263
163.68691,0.89722
163.44584,0.90409
163.20477,0.91524
162.96370,0.92754
162.72263,0.93617
162.48156,0.93893
162.24048,0.93933
161.99941,0.94336
161.75834,0.95158
161.51727,0.95909
161.27620,0.96346
161.03513,0.96681
160.79406,0.97085
160.55299,0.97489
160.31192,0.97700
160.07085,0.97518
159.82978,0.96966
159.58871,0.96326
159.34764,0.95750
159.10657,0.95154
158.86550,0.94461
158.62443,0.93678
158.38336,0.92860
158.14229,0.92105
157.90121,0.91549
157.66014,0.91226
157.41907,0.90929
157.17800,0.90295
156.93693,0.89202
156.69586,0.88092
156.45479,0.87555
156.21372,0.87633
155.97265,0.87783
155.73158,0.87536
155.49051,0.86945
155.24944,0.86363
155.00837,0.85918
154.76730,0.85318
154.52623,0.84269
154.28516,0.82897
154.04409,0.81513
153.80302,0.80186
153.56194,0.78737
153.32087,0.77032
153.07980,0.75126
152.83873,0.73205
152.59766,0.71412
152.35659,0.69739
152.11552,0.68101
151.87445,0.66523
151.63338,0.65070
151.39231,0.63669
151.15124,0.62190
150.91017,0.60645
150.66910,0.59164
150.42803,0.57817
150.18696,0.56566
149.94589,0.55347
149.70482,0.54152
149.46375,0.53063
149.22267,0.52186
148.98160,0.51532
148.74053,0.50979
148.49946,0.50387
148.25839,0.49730
148.01732,0.49089
147.77625,0.48596
147.53518,0.48337
147.29411,0.48225
147.05304,0.48064
146.81197,0.47879
146.57090,0.47968
146.32983,0.48465
146.08876,0.49083
145.84769,0.49492
145.60662,0.49706
145.36555,0.49931
145.12448,0.50256
144.88340,0.50648
144.64233,0.51088
144.40126,0.51613
144.16019,0.52241
143.91912,0.52879
143.67805,0.53310
143.43698,0.53336
143.19591,0.52960
142.95484,0.52337
142.71377,0.51576
142.47270,0.50659
142.23163,0.49585
141.99056,0.48482
141.74949,0.47487
141.50842,0.46584
141.26735,0.45710
141.02628,0.44940
140.78521,0.44431
140.54413,0.44224
140.30306,0.44249
140.06199,0.44431
139.82092,0.44700
139.57985,0.44987
139.33878,0.45299
139.09771,0.45690
138.85664,0.46158
138.61557,0.46691
138.37450,0.47365
138.13343,0.48247
137.89236,0.49301
137.65129,0.50532
137.41022,0.52054
137.16915,0.53868
136.92808,0.55759
136.68701,0.57544
136.44594,0.59300
136.20486,0.61247
135.96379,0.63512
135.72272,0.66031
135.48165,0.68638
135.24058,0.71240
134.99951,0.73854
134.75844,0.76456
134.51737,0.78945
134.27630,0.81374
134.03523,0.83950
133.79416,0.86593
133.55309,0.88695
133.31202,0.89850
133.07095,0.90607
132.82988,0.91887
132.58881,0.93829
132.34774,0.95640
132.10667,0.96517
131.86559,0.96296
131.62452,0.95236
131.38345,0.93690
131.14238,0.91981
130.90131,0.90339
130.66024,0.88893
130.41917,0.87479
130.17810,0.85695
129.93703,0.83390
129.69596,0.80783
129.45489,0.78018
129.21382,0.75010
128.97275,0.71815
128.73168,0.68713
128.49061,0.65849
128.24954,0.63120
128.00847,0.60403
127.76740,0.57717
127.52632,0.55197
127.28525,0.52930
127.04418,0.50884
126.80311,0.49030
126.56204,0.47414
126.32097,0.46047
126.07990,0.44834
125.83883,0.43675
125.59776,0.42538
125.35669,0.41390
125.11562,0.40178
124.87455,0.38942
124.63348,0.37844
124.39241,0.37013
124.15134,0.36409
123.91027,0.35883
123.66920,0.35380
123.42812,0.35005
123.18705,0.34834
122.94598,0.34786
122.70491,0.34758
122.46384,0.34779
122.22277,0.34892
121.98170,0.35007
121.74063,0.35060
121.49956,0.35196
121.25849,0.35610
121.01742,0.36300
120.77635,0.37127
120.53528,0.38027
120.29421,0.39047
120.05314,0.40226
119.81207,0.41570
119.57100,0.43071
119.32993,0.44729
119.08885,0.46602
118.84778,0.48801
118.60671,0.51355
118.36564,0.54122
118.12457,0.56867
117.88350,0.59434
117.64243,0.61814
117.40136,0.63961
117.16029,0.65598
116.91922,0.66445
116.67815,0.66628
116.43708,0.66469
116.19601,0.65862
115.95494,0.64335
115.71387,0.61933
115.47280,0.59472
115.23173,0.57693
114.99066,0.56612
114.74958,0.55812
114.50851,0.55068
114.26744,0.54466
114.02637,0.54092
113.78530,0.53914
113.54423,0.53970
113.30316,0.54360
113.06209,0.54973
112.82102,0.55491
112.57995,0.55818
112.33888,0.56210
112.09781,0.56844
111.85674,0.57548
111.61567,0.58099
111.37460,0.58464
111.13353,0.58681
110.89246,0.58775
110.65139,0.58825
110.41031,0.58877
110.16924,0.58805
109.92817,0.58377
109.68710,0.57380
109.44603,0.55680
109.20496,0.53436
108.96389,0.51145
108.72282,0.49177
108.48175,0.47427
108.24068,0.45687
107.99961,0.44015
107.75854,0.42523
107.51747,0.41158
107.27640,0.39868
107.03533,0.38670
106.79426,0.37477
106.55319,0.36173
106.31212,0.34865
106.07104,0.33727
105.82997,0.32700
105.58890,0.31643
105.34783,0.30632
105.10676,0.29825
104.86569,0.29209
104.62462,0.28690
104.38355,0.28227
104.14248,0.27734
103.90141,0.27091
103.66034,0.26329
103.41927,0.25629
103.17820,0.25099
102.93713,0.24667
102.69606,0.24229
102.45499,0.23795
102.21392,0.23446
101.97285,0.23189
101.73177,0.22921
101.49070,0.22545
101.24963,0.22089
101.00856,0.21658
100.76749,0.21285
100.52642,0.20909
100.28535,0.20524
100.04428,0.20263
99.80321,0.20213
99.56214,0.20262
99.32107,0.20211
99.08000,0.20002
98.83893,0.19735
98.59786,0.19532
98.35679,0.19468
98.11572,0.19568
97.87465,0.19793
97.63358,0.20045
97.39250,0.20254
97.15143,0.20442
96.91036,0.20681
96.66929,0.21027
96.42822,0.21515
96.18715,0.22169
95.94608,0.22992
95.70501,0.23948
95.46394,0.24960
95.22287,0.25879
94.98180,0.26499
94.74073,0.26703
94.49966,0.26611
94.25859,0.26509
94.01752,0.26562
93.77645,0.26677
93.53538,0.26724
93.29431,0.26784
93.05323,0.27012
92.81216,0.27342
92.57109,0.27550
92.33002,0.27590
92.08895,0.27641
91.84788,0.27889
91.60681,0.28466
91.36574,0.29475
91.12467,0.30918
90.88360,0.32666
90.64253,0.34618
90.40146,0.36867
90.16039,0.39630
89.91932,0.43037
89.67825,0.47032
89.43718,0.51373
89.19611,0.55548
88.95504,0.58733
88.71396,0.60184
88.47289,0.59793
88.23182,0.57991
87.99075,0.55167
87.74968,0.51575
87.50861,0.47578
87.26754,0.43604
87.02647,0.39908
86.78540,0.36548
86.54433,0.33499
86.30326,0.30766
86.06219,0.28419
85.82112,0.26503
85.58005,0.24936
85.33898,0.23564
85.09791,0.22264
84.85684,0.21006
84.61577,0.19839
84.37469,0.18854
84.13362,0.18076
83.89255,0.17450
83.65148,0.16950
83.41041,0.16567
83.16934,0.16199
82.92827,0.15717
82.68720,0.15171
82.44613,0.14748
82.20506,0.14514
81.96399,0.14366
81.72292,0.14204
81.48185,0.14030
81.24078,0.13845
80.99971,0.13578
80.75864,0.13193
80.51757,0.12797
80.27650,0.12548
80.03542,0.12462
79.79435,0.12419
79.55328,0.12329
79.31221,0.12227
79.07114,0.12185
78.83007,0.12175
78.58900,0.12107
78.34793,0.11979
78.10686,0.11882
77.86579,0.11837
77.62472,0.11739
77.38365,0.11521
77.14258,0.11249
76.90151,0.11043
76.66044,0.10947
76.41937,0.10891
76.17830,0.10761
75.93723,0.10530
75.69615,0.10301
75.45508,0.10198
75.21401,0.10242
74.97294,0.10350
74.73187,0.10456
74.49080,0.10582
74.24973,0.10763
74.00866,0.10935
73.76759,0.11007
73.52652,0.10994
73.28545,0.10972
73.04438,0.10945
72.80331,0.10890
72.56224,0.10837
72.32117,0.10804
72.08010,0.10749
71.83903,0.10679
71.59796,0.10708
71.35688,0.10950
71.11581,0.11439
70.87474,0.12161
70.63367,0.13053
70.39260,0.13993
70.15153,0.14910
69.91046,0.15891
69.66939,0.17014
69.42832,0.18106
69.18725,0.18786
68.94618,0.18809
68.70511,0.18253
68.46404,0.17318
68.22297,0.16093
67.98190,0.14657
67.74083,0.13272
67.49976,0.12240
67.25869,0.11598
67.01761,0.11124
66.77654,0.10661
66.53547,0.10273
66.29440,0.10065
66.05333,0.10002
65.81226,0.09991
65.57119,0.10016
65.33012,0.10107
65.08905,0.10267
64.84798,0.10516
64.60691,0.10937
64.36584,0.11568
64.12477,0.12262
63.88370,0.12750
63.64263,0.12849
63.40156,0.12568
63.16049,0.12055
62.91942,0.11511
62.67834,0.11057
62.43727,0.10605
62.19620,0.09980
61.95513,0.09230
61.71406,0.08632
61.47299,0.08357
61.23192,0.08347
60.99085,0.08469
60.74978,0.08611
60.50871,0.08682
60.26764,0.08649
60.02657,0.08538
59.78550,0.08383
59.54443,0.08218
59.30336,0.08080
59.06229,0.07963
58.82122,0.07895
58.58015,0.07982
58.33907,0.08245
58.09800,0.08563
57.85693,0.08788
57.61586,0.08804
57.37479,0.08545
57.13372,0.08089
56.89265,0.07617
56.65158,0.07271
56.41051,0.07116
56.16944,0.07087
55.92837,0.07026
55.68730,0.06933
55.44623,0.07057
55.20516,0.07505
54.96409,0.07987
54.72302,0.08151
54.48195,0.07957
54.24088,0.07630
53.99980,0.07436
53.75873,0.07490
53.51766,0.07645
53.27659,0.07679
53.03552,0.07621
52.79445,0.07728
52.55338,0.08112
52.31231,0.08525
52.07124,0.08635
51.83017,0.08406
51.58910,0.08021
51.34803,0.07561
51.10696,0.07032
50.86589,0.06641
50.62482,0.06661
50.38375,0.07035
50.14268,0.07407
49.90161,0.07560
49.66053,0.07535
49.41946,0.07324
49.17839,0.06855
48.93732,0.06263
48.69625,0.05819
48.45518,0.05610
48.21411,0.05541
47.97304,0.05637
47.73197,0.06002
47.49090,0.06474
47.24983,0.06652
47.00876,0.06393
46.76769,0.06011
46.52662,0.05817
46.28555,0.05684
46.04448,0.05390
45.80341,0.05126
45.56234,0.05249
45.32126,0.05676
45.08019,0.05981
44.83912,0.06057
44.59805,0.06184
44.35698,0.06398
44.11591,0.06382
43.87484,0.06031
43.63377,0.05560
43.39270,0.05101
43.15163,0.04705
42.91056,0.04622
42.66949,0.05050
42.42842,0.05682
42.18735,0.06061
41.94628,0.06304
41.70521,0.06876
41.46414,0.07766
41.22307,0.08407
40.98199,0.08264
40.74092,0.07305
40.49985,0.06006
40.25878,0.05008
40.01771,0.04699
39.77664,0.04940
39.53557,0.05316
39.29450,0.05636
39.05343,0.05900
38.81236,0.06005
38.57129,0.05953
38.33022,0.06046
38.08915,0.06561
37.84808,0.07304
37.60701,0.07656
37.36594,0.07262
37.12487,0.06527
36.88380,0.06260
36.64272,0.06843
36.40165,0.07857
36.16058,0.08651
35.91951,0.08975
35.67844,0.08891
35.43737,0.08379
35.19630,0.07627
34.95523,0.07509
34.71416,0.08692
34.47309,0.10486
34.23202,0.11464
33.99095,0.11191
33.74988,0.10830
33.50881,0.11627
33.26774,0.13216
33.02667,0.14307
32.78560,0.14682
32.54453,0.15056
32.30345,0.15713
32.06238,0.16412
31.82131,0.16331
31.58024,0.14398
31.33917,0.11024
31.09810,0.08176
30.85703,0.07082
30.61596,0.06921
30.37489,0.06580
30.13382,0.06536
29.89275,0.07363
29.65168,0.08639
29.41061,0.09785
29.16954,0.10148
28.92847,0.09653
28.68740,0.09312
28.44633,0.09743
28.20526,0.10520
27.96418,0.11310
27.72311,0.12256
27.48204,0.12560
27.24097,0.11209
26.99990,0.10150
26.75883,0.12795
26.51776,0.18926
26.27669,0.24189
26.03562,0.24329
25.79455,0.20833
25.55348,0.18591
25.31241,0.20103
25.07134,0.24346
24.83027,0.28240
24.58920,0.28705
24.34813,0.25543
24.10706,0.21289
23.86599,0.18399
23.62491,0.17265
23.38384,0.15869
23.14277,0.15281
22.90170,0.20764
22.66063,0.32153
22.41956,0.40174
22.17849,0.39769
21.93742,0.35738
21.69635,0.34008
21.45528,0.37571
21.21421,0.44203
20.97314,0.48323
20.73207,0.45016
20.49100,0.34905
20.24993,0.25795
20.00886,0.22764
19.76779,0.25371
19.52672,0.28627
19.28564,0.27129
19.04457,0.24839
18.80350,0.27037
18.56243,0.33938
18.32136,0.43434
18.08029,0.46968
17.83922,0.42909
17.59815,0.38852
17.35708,0.38759
17.11601,0.40557
16.87494,0.41678
16.63387,0.42722
16.39280,0.43195
16.15173,0.44099
15.91066,0.51625
15.66959,0.58192
15.42852,0.54706
15.18745,0.53256
14.94637,0.56761
14.70530,0.59988
14.46423,0.68312
14.22316,0.95956
13.98209,0.96047
13.74102,0.69653
13.49995,0.63673
13.25888,0.74008
13.01781,0.81487
12.77674,0.72217
12.53567,0.84128
12.29460,0.97041
12.05353,0.73650
11.81246,0.57410
11.57139,0.51082
11.33032,0.42282
11.08925,0.31027
10.84818,0.25107
10.60710,0.28483
10.36603,0.45325
10.12496,0.76810
9.88389,0.81446
9.64282,0.70906
9.40175,0.65119
9.16068,0.51114
8.91961,0.43535
8.67854,0.45188
8.43747,0.48285
8.19640,0.61978
7.95533,0.74132
7.71426,0.79824
7.47319,1.01563
7.23212,1.18722
6.99105,1.04221
6.74998,0.87729
6.50891,0.75731
6.26783,0.70949
6.02676,0.64051
5.78569,0.64844
5.54462,0.74435
5.30355,0.74453
5.06248,0.72086
4.82141,0.85947
4.58034,1.07830
4.33927,0.74979
4.09820,0.43064
3.85713,0.29516
3.61606,0.29719
3.37499,0.39680
3.13392,0.48118
2.89285,0.47977
2.65178,0.55364
2.41071,0.75786
2.16964,0.86227
1.92856,0.66965
1.68749,0.47284
1.44642,0.41474
1.20535,0.48833
0.96428,0.62753
0.72321,0.60969
0.48214,0.50560
0.24107,0.58137
-0.00000,0.70144
