399.69498,1.44163
399.45391,1.45352
399.21284,1.46105
398.97177,1.45774
398.73070,1.44776
398.48963,1.44260
398.24856,1.44673
398.00749,1.45486
397.76642,1.46253
397.52535,1.46832
397.28428,1.46677
397.04321,1.45288
396.80214,1.43247
396.56107,1.41872
396.32000,1.41887
396.07892,1.42824
395.83785,1.43517
395.59678,1.43279
395.35571,1.42752
395.11464,1.43104
394.87357,1.44366
394.63250,1.45341
394.39143,1.45332
394.15036,1.45056
393.90929,1.45515
393.66822,1.46786
393.42715,1.48037
393.18608,1.48335
392.94501,1.47997
392.70394,1.48179
392.46287,1.48910
392.22180,1.49318
391.98073,1.49157
391.73965,1.48888
391.49858,1.48520
391.25751,1.47571
391.01644,1.46142
390.77537,1.45201
390.53430,1.45644
390.29323,1.47039
390.05216,1.47545
389.81109,1.45976
389.57002,1.43432
389.32895,1.41956
389.08788,1.42608
388.84681,1.44743
388.60574,1.46577
388.36467,1.47059
388.12360,1.46865
387.88253,1.46828
387.64146,1.46519
387.40038,1.45282
387.15931,1.43522
386.91824,1.42004
386.67717,1.40651
386.43610,1.38965
386.19503,1.37361
385.95396,1.36804
385.71289,1.37038
385.47182,1.37078
385.23075,1.36614
384.98968,1.35936
384.74861,1.35924
384.50754,1.36889
384.26647,1.37521
384.02540,1.36600
383.78433,1.34713
383.54326,1.33244
383.30219,1.32790
383.06111,1.32570
382.82004,1.31344
382.57897,1.29157
382.33790,1.27179
382.09683,1.26010
381.85576,1.25419
381.61469,1.24993
381.37362,1.24484
381.13255,1.24093
380.89148,1.24254
380.65041,1.24833
380.40934,1.25252
380.16827,1.25632
379.92720,1.26455
379.68613,1.27147
379.44506,1.26991
379.20399,1.26709
378.96292,1.26772
378.72184,1.26204
378.48077,1.24973
378.23970,1.24591
377.99863,1.25710
377.75756,1.27335
377.51649,1.28421
377.27542,1.29398
377.03435,1.31108
376.79328,1.33087
376.55221,1.34140
376.31114,1.34077
376.07007,1.33914
375.82900,1.34501
375.58793,1.35616
375.34686,1.36340
375.10579,1.36102
374.86472,1.35220
374.62365,1.34471
374.38257,1.34436
374.14150,1.34991
373.90043,1.35503
373.65936,1.35392
373.41829,1.34711
373.17722,1.34088
372.93615,1.33645
372.69508,1.32921
372.45401,1.31854
372.21294,1.31054
371.97187,1.30940
371.73080,1.31147
371.48973,1.31041
371.24866,1.30523
371.00759,1.29803
370.76652,1.28848
370.52545,1.27534
370.28437,1.26022
370.04330,1.24758
369.80223,1.23984
369.56116,1.23417
369.32009,1.22697
369.07902,1.21872
368.83795,1.21224
368.59688,1.20923
368.35581,1.20856
368.11474,1.20592
367.87367,1.19752
367.63260,1.18634
367.39153,1.17998
367.15046,1.18009
366.90939,1.17979
366.66832,1.17396
366.42725,1.16569
366.18618,1.15973
365.94510,1.15593
365.70403,1.15256
365.46296,1.15048
365.22189,1.14960
364.98082,1.14594
364.73975,1.13771
364.49868,1.12979
364.25761,1.12718
364.01654,1.12847
363.77547,1.12972
363.53440,1.12962
363.29333,1.12820
363.05226,1.12490
362.81119,1.12049
362.57012,1.11821
362.32905,1.12058
362.08798,1.12569
361.84691,1.12830
361.60583,1.12516
361.36476,1.11815
361.12369,1.11127
360.88262,1.10799
360.64155,1.11156
360.40048,1.12243
360.15941,1.13377
359.91834,1.13582
359.67727,1.12702
359.43620,1.11485
359.19513,1.10606
358.95406,1.10232
358.71299,1.10273
358.47192,1.10528
358.23085,1.10767
357.98978,1.10959
357.74871,1.11270
357.50764,1.11612
357.26656,1.11610
357.02549,1.11166
356.78442,1.10581
356.54335,1.10091
356.30228,1.09792
356.06121,1.09842
355.82014,1.10258
355.57907,1.10694
355.33800,1.10759
355.09693,1.10473
354.85586,1.10149
354.61479,1.10002
354.37372,1.10082
354.13265,1.10356
353.89158,1.10584
353.65051,1.10355
353.40944,1.09659
353.16837,1.09163
352.92729,1.09475
352.68622,1.10347
352.44515,1.11034
352.20408,1.11262
351.96301,1.11378
351.72194,1.11740
351.48087,1.12335
351.23980,1.12839
350.99873,1.12938
350.75766,1.12599
350.51659,1.12025
350.27552,1.11526
350.03445,1.11445
349.79338,1.11817
349.55231,1.12145
349.31124,1.11940
349.07017,1.11381
348.82910,1.11085
348.58802,1.11513
348.34695,1.12623
348.10588,1.13785
347.86481,1.14205
347.62374,1.13876
347.38267,1.13678
347.14160,1.14217
346.90053,1.15157
346.65946,1.15858
346.41839,1.16162
346.17732,1.16257
345.93625,1.16242
345.69518,1.16241
345.45411,1.16561
345.21304,1.17314
344.97197,1.18093
344.73090,1.18421
344.48983,1.18358
344.24875,1.18384
344.00768,1.18871
343.76661,1.19763
343.52554,1.20694
343.28447,1.21371
343.04340,1.21804
342.80233,1.22277
342.56126,1.23147
342.32019,1.24472
342.07912,1.25750
341.83805,1.26355
341.59698,1.26368
341.35591,1.26478
341.11484,1.26960
340.87377,1.27390
340.63270,1.27476
340.39163,1.27574
340.15056,1.28044
339.90948,1.28652
339.66841,1.29127
339.42734,1.29806
339.18627,1.31069
338.94520,1.32536
338.70413,1.33431
338.46306,1.33531
338.22199,1.33242
337.98092,1.33166
337.73985,1.33797
337.49878,1.34975
337.25771,1.35807
337.01664,1.35685
336.77557,1.34948
336.53450,1.34297
336.29343,1.33968
336.05236,1.33862
335.81129,1.33979
335.57021,1.34262
335.32914,1.34495
335.08807,1.34609
334.84700,1.34799
334.60593,1.35188
334.36486,1.35647
334.12379,1.36046
333.88272,1.36391
333.64165,1.36578
333.40058,1.36289
333.15951,1.35390
332.91844,1.34259
332.67737,1.33371
332.43630,1.32584
332.19523,1.31351
331.95416,1.29707
331.71309,1.28350
331.47202,1.27650
331.23094,1.27059
330.98987,1.25982
330.74880,1.24747
330.50773,1.24013
330.26666,1.23972
330.02559,1.24243
329.78452,1.24375
329.54345,1.24384
329.30238,1.24491
329.06131,1.24551
328.82024,1.24292
328.57917,1.23949
328.33810,1.23997
328.09703,1.24304
327.85596,1.24232
327.61489,1.23542
327.37382,1.22473
327.13275,1.21219
326.89167,1.19978
326.65060,1.19261
326.40953,1.19543
326.16846,1.20706
325.92739,1.22125
325.68632,1.23418
325.44525,1.24804
325.20418,1.26201
324.96311,1.26725
324.72204,1.25734
324.48097,1.24006
324.23990,1.22989
323.99883,1.23246
323.75776,1.24192
323.51669,1.24812
323.27562,1.24665
323.03455,1.24387
322.79348,1.24594
322.55240,1.24799
322.31133,1.24364
322.07026,1.23989
321.82919,1.24809
321.58812,1.26277
321.34705,1.26581
321.10598,1.25237
320.86491,1.23583
320.62384,1.22931
320.38277,1.23564
320.14170,1.25088
319.90063,1.26907
319.65956,1.28269
319.41849,1.28725
319.17742,1.28444
318.93635,1.27699
318.69528,1.26615
318.45421,1.25308
318.21313,1.24206
317.97206,1.23644
317.73099,1.23238
317.48992,1.22563
317.24885,1.22042
317.00778,1.22446
316.76671,1.23921
316.52564,1.25758
316.28457,1.27045
316.04350,1.27593
315.80243,1.28072
315.56136,1.29161
315.32029,1.30799
315.07922,1.32210
314.83815,1.32773
314.59708,1.32578
314.35601,1.31809
314.11494,1.30378
313.87386,1.28543
313.63279,1.27230
313.39172,1.27484
313.15065,1.29547
312.90958,1.32473
312.66851,1.34758
312.42744,1.35505
312.18637,1.34845
311.94530,1.33281
311.70423,1.31376
311.46316,1.30074
311.22209,1.30211
310.98102,1.31462
310.73995,1.32724
310.49888,1.33560
310.25781,1.34335
310.01674,1.35304
309.77567,1.36266
309.53459,1.36965
309.29352,1.37121
309.05245,1.36343
308.81138,1.34977
308.57031,1.34193
308.32924,1.34643
308.08817,1.35756
307.84710,1.36671
307.60603,1.37338
307.36496,1.37857
307.12389,1.37478
306.88282,1.35659
306.64175,1.33478
306.40068,1.32490
306.15961,1.33080
305.91854,1.34451
305.67747,1.35456
305.43640,1.35527
305.19532,1.35062
304.95425,1.34620
304.71318,1.34002
304.47211,1.32788
304.23104,1.31510
303.98997,1.30987
303.74890,1.31054
303.50783,1.30957
303.26676,1.30381
303.02569,1.29653
302.78462,1.29163
302.54355,1.28958
302.30248,1.28921
302.06141,1.29002
301.82034,1.29006
301.57927,1.28499
301.33820,1.27401
301.09713,1.26192
300.85605,1.25180
300.61498,1.24213
300.37391,1.23122
300.13284,1.21979
299.89177,1.20916
299.65070,1.20063
299.40963,1.19601
299.16856,1.19686
298.92749,1.20226
298.68642,1.20659
298.44535,1.20260
298.20428,1.18935
297.96321,1.17397
297.72214,1.16489
297.48107,1.16481
297.24000,1.16881
296.99893,1.16844
296.75786,1.15929
296.51678,1.14465
296.27571,1.13179
296.03464,1.12585
295.79357,1.12623
295.55250,1.12820
295.31143,1.12793
295.07036,1.12490
294.82929,1.11998
294.58822,1.11356
294.34715,1.10609
294.10608,1.09915
293.86501,1.09436
293.62394,1.09078
293.38287,1.08565
293.14180,1.07842
292.90073,1.07195
292.65966,1.06946
292.41859,1.07212
292.17751,1.07836
291.93644,1.08372
291.69537,1.08347
291.45430,1.07712
291.21323,1.06862
290.97216,1.06234
290.73109,1.05989
290.49002,1.05957
290.24895,1.05850
290.00788,1.05552
289.76681,1.05150
289.52574,1.04707
289.28467,1.04201
289.04360,1.03706
288.80253,1.03435
288.56146,1.03531
288.32039,1.03860
288.07932,1.04074
287.83824,1.03934
287.59717,1.03550
287.35610,1.03260
287.11503,1.03278
286.87396,1.03487
286.63289,1.03574
286.39182,1.03338
286.15075,1.02853
285.90968,1.02385
285.66861,1.02218
285.42754,1.02422
285.18647,1.02737
284.94540,1.02845
284.70433,1.02759
284.46326,1.02664
284.22219,1.02569
283.98112,1.02382
283.74005,1.02135
283.49897,1.01951
283.25790,1.01881
283.01683,1.01837
282.77576,1.01702
282.53469,1.01522
282.29362,1.01474
282.05255,1.01607
281.81148,1.01782
281.57041,1.01837
281.32934,1.01695
281.08827,1.01455
280.84720,1.01429
280.60613,1.01792
280.36506,1.02227
280.12399,1.02263
279.88292,1.01908
279.64185,1.01572
279.40078,1.01484
279.15970,1.01554
278.91863,1.01653
278.67756,1.01802
278.43649,1.02060
278.19542,1.02320
277.95435,1.02315
277.71328,1.02001
277.47221,1.01720
277.23114,1.01768
276.99007,1.01970
276.74900,1.01960
276.50793,1.01736
276.26686,1.01597
276.02579,1.01703
275.78472,1.01985
275.54365,1.02339
275.30258,1.02664
275.06151,1.02864
274.82043,1.02951
274.57936,1.03030
274.33829,1.03208
274.09722,1.03566
273.85615,1.04142
273.61508,1.04786
273.37401,1.05181
273.13294,1.05239
272.89187,1.05218
272.65080,1.05294
272.40973,1.05411
272.16866,1.05592
271.92759,1.05981
271.68652,1.06507
271.44545,1.06879
271.20438,1.07000
270.96331,1.07066
270.72224,1.07264
270.48116,1.07622
270.24009,1.08129
269.99902,1.08772
269.75795,1.09423
269.51688,1.09916
269.27581,1.10291
269.03474,1.10775
268.79367,1.11438
268.55260,1.12093
268.31153,1.12530
268.07046,1.12703
267.82939,1.12740
267.58832,1.12906
267.34725,1.13436
267.10618,1.14338
266.86511,1.15433
266.62404,1.16505
266.38297,1.17334
266.14189,1.17846
265.90082,1.18314
265.65975,1.19097
265.41868,1.20168
265.17761,1.21167
264.93654,1.21908
264.69547,1.22637
264.45440,1.23700
264.21333,1.25080
263.97226,1.26383
263.73119,1.27338
263.49012,1.28199
263.24905,1.29332
263.00798,1.30674
262.76691,1.32042
262.52584,1.33625
262.28477,1.35756
262.04370,1.38316
261.80262,1.40743
261.56155,1.42684
261.32048,1.44341
261.07941,1.46026
260.83834,1.47774
260.59727,1.49696
260.35620,1.52233
260.11513,1.55586
259.87406,1.59236
259.63299,1.62343
259.39192,1.64539
259.15085,1.66569
258.90978,1.69958
258.66871,1.75324
258.42764,1.80789
258.18657,1.82980
257.94550,1.82306
257.70443,1.81253
257.46335,1.80076
257.22228,1.78645
256.98121,1.77788
256.74014,1.78049
256.49907,1.78304
256.25800,1.77148
256.01693,1.75141
255.77586,1.73558
255.53479,1.72427
255.29372,1.70357
255.05265,1.66583
254.81158,1.62524
254.57051,1.59724
254.32944,1.58031
254.08837,1.56841
253.84730,1.56254
253.60623,1.56107
253.36516,1.55664
253.12408,1.55000
252.88301,1.54846
252.64194,1.54998
252.40087,1.54615
252.15980,1.54123
251.91873,1.54741
251.67766,1.56104
251.43659,1.56322
251.19552,1.54837
250.95445,1.53035
250.71338,1.51825
250.47231,1.50890
250.23124,1.50053
249.99017,1.49834
249.74910,1.50387
249.50803,1.50853
249.26696,1.50412
249.02589,1.49529
248.78481,1.49173
248.54374,1.49260
248.30267,1.48949
248.06160,1.48286
247.82053,1.48415
247.57946,1.49977
247.33839,1.52213
247.09732,1.53810
246.85625,1.54178
246.61518,1.53755
246.37411,1.53427
246.13304,1.53803
245.89197,1.54894
245.65090,1.56406
245.40983,1.58172
245.16876,1.60180
244.92769,1.62326
244.68661,1.64626
244.44554,1.67330
244.20447,1.70591
243.96340,1.74091
243.72233,1.77692
243.48126,1.81881
243.24019,1.85783
242.99912,1.87405
242.75805,1.88096
242.51698,1.89826
242.27591,1.85443
242.03484,1.73954
241.79377,1.63012
241.55270,1.53653
241.31163,1.45197
241.07056,1.37508
240.82949,1.31187
240.58842,1.26552
240.34734,1.22708
240.10627,1.18445
239.86520,1.13727
239.62413,1.09470
239.38306,1.06180
239.14199,1.03536
238.90092,1.01025
238.65985,0.98533
238.41878,0.96292
238.17771,0.94425
237.93664,0.92760
237.69557,0.91098
237.45450,0.89480
237.21343,0.88068
236.97236,0.86912
236.73129,0.85920
236.49022,0.84949
236.24915,0.83877
236.00807,0.82680
235.76700,0.81467
235.52593,0.80408
235.28486,0.79592
235.04379,0.78978
234.80272,0.78457
234.56165,0.77983
234.32058,0.77601
234.07951,0.77351
233.83844,0.77147
233.59737,0.76844
233.35630,0.76442
233.11523,0.76114
232.87416,0.75973
232.63309,0.75916
232.39202,0.75750
232.15095,0.75402
231.90988,0.74983
231.66880,0.74705
231.42773,0.74714
231.18666,0.74945
230.94559,0.75190
230.70452,0.75321
230.46345,0.75337
230.22238,0.75231
229.98131,0.74962
229.74024,0.74587
229.49917,0.74298
229.25810,0.74261
229.01703,0.74439
228.77596,0.74615
228.53489,0.74633
228.29382,0.74510
228.05275,0.74286
227.81168,0.73914
227.57061,0.73445
227.32953,0.73155
227.08846,0.73262
226.84739,0.73622
226.60632,0.73907
226.36525,0.74000
226.12418,0.74018
225.88311,0.73999
225.64204,0.73886
225.40097,0.73782
225.15990,0.73876
224.91883,0.74143
224.67776,0.74438
224.43669,0.74780
224.19562,0.75287
223.95455,0.75869
223.71348,0.76299
223.47241,0.76496
223.23134,0.76609
222.99026,0.76861
222.74919,0.77398
222.50812,0.78155
222.26705,0.78930
222.02598,0.79649
221.78491,0.80410
221.54384,0.81219
221.30277,0.81943
221.06170,0.82566
220.82063,0.83215
220.57956,0.83939
220.33849,0.84719
220.09742,0.85614
219.85635,0.86643
219.61528,0.87637
219.37421,0.88464
219.13314,0.89301
218.89207,0.90430
218.65099,0.91852
218.40992,0.93374
218.16885,0.94954
217.92778,0.96646
217.68671,0.98328
217.44564,0.99835
217.20457,1.01273
216.96350,1.02829
216.72243,1.04412
216.48136,1.05765
216.24029,1.06821
215.99922,1.07745
215.75815,1.08748
215.51708,1.09951
215.27601,1.11436
215.03494,1.13263
214.79387,1.15325
214.55280,1.17420
214.31172,1.19522
214.07065,1.21657
213.82958,1.23597
213.58851,1.25053
213.34744,1.26056
213.10637,1.26744
212.86530,1.27069
212.62423,1.27150
212.38316,1.27532
212.14209,1.28632
211.90102,1.30212
211.65995,1.31720
211.41888,1.32959
211.17781,1.34036
210.93674,1.34726
210.69567,1.34494
210.45460,1.33294
210.21353,1.31845
209.97245,1.30998
209.73138,1.31083
209.49031,1.31733
209.24924,1.32282
209.00817,1.32492
208.76710,1.32586
208.52603,1.32430
208.28496,1.31374
208.04389,1.29183
207.80282,1.26458
207.56175,1.24101
207.32068,1.22789
207.07961,1.22651
206.83854,1.23104
206.59747,1.23196
206.35640,1.22359
206.11533,1.20738
205.87426,1.18857
205.63318,1.17188
205.39211,1.15863
205.15104,1.14638
204.90997,1.13222
204.66890,1.11586
204.42783,1.09919
204.18676,1.08351
203.94569,1.06825
203.70462,1.05234
203.46355,1.03588
203.22248,1.01978
202.98141,1.00469
202.74034,0.99065
202.49927,0.97703
202.25820,0.96286
202.01713,0.94785
201.77606,0.93259
201.53499,0.91692
201.29391,0.89963
201.05284,0.88082
200.81177,0.86288
200.57070,0.84817
200.32963,0.83664
200.08856,0.82567
199.84749,0.81187
199.60642,0.79423
199.36535,0.77553
199.12428,0.75962
198.88321,0.74827
198.64214,0.74098
198.40107,0.73586
198.16000,0.72995
197.91893,0.72066
197.67786,0.70820
197.43679,0.69555
197.19572,0.68567
196.95464,0.67946
196.71357,0.67564
196.47250,0.67141
196.23143,0.66402
195.99036,0.65281
195.74929,0.64023
195.50822,0.63023
195.26715,0.62494
195.02608,0.62280
194.78501,0.62000
194.54394,0.61423
194.30287,0.60673
194.06180,0.60033
193.82073,0.59607
193.57966,0.59239
193.33859,0.58733
193.09752,0.58101
192.85645,0.57540
192.61537,0.57206
192.37430,0.57051
192.13323,0.56832
191.89216,0.56325
191.65109,0.55621
191.41002,0.55088
191.16895,0.54971
190.92788,0.55091
190.68681,0.55031
190.44574,0.54613
190.20467,0.54069
189.96360,0.53695
189.72253,0.53546
189.48146,0.53484
189.24039,0.53363
188.99932,0.53143
188.75825,0.52921
188.51718,0.52849
188.27610,0.52928
188.03503,0.52932
187.79396,0.52682
187.55289,0.52322
187.31182,0.52118
187.07075,0.52098
186.82968,0.52084
186.58861,0.52007
186.34754,0.51977
186.10647,0.52024
185.86540,0.52020
185.62433,0.51928
185.38326,0.51960
185.14219,0.52292
184.90112,0.52742
184.66005,0.52961
184.41898,0.52922
184.17791,0.52939
183.93683,0.53196
183.69576,0.53530
183.45469,0.53727
183.21362,0.53809
182.97255,0.53927
182.73148,0.54117
182.49041,0.54301
182.24934,0.54407
182.00827,0.54431
181.76720,0.54461
181.52613,0.54639
181.28506,0.54995
181.04399,0.55373
180.80292,0.55647
180.56185,0.55891
180.32078,0.56199
180.07971,0.56516
179.83864,0.56826
179.59756,0.57267
179.35649,0.57870
179.11542,0.58446
178.87435,0.58925
178.63328,0.59498
178.39221,0.60308
178.15114,0.61299
177.91007,0.62401
177.66900,0.63570
177.42793,0.64729
177.18686,0.65907
176.94579,0.67284
176.70472,0.68911
176.46365,0.70641
176.22258,0.72443
175.98151,0.74477
175.74044,0.76801
175.49937,0.79207
175.25829,0.81427
175.01722,0.83412
174.77615,0.85353
174.53508,0.87427
174.29401,0.89638
174.05294,0.91954
173.81187,0.94414
173.57080,0.97033
173.32973,0.99658
173.08866,1.01843
172.84759,1.03034
172.60652,1.03210
172.36545,1.03084
172.12438,1.03253
171.88331,1.03545
171.64224,1.03534
171.40117,1.03284
171.16010,1.03174
170.91902,1.03234
170.67795,1.03000
170.43688,1.02083
170.19581,1.00666
169.95474,0.99279
169.71367,0.98290
169.47260,0.97719
169.23153,0.97331
168.99046,0.96914
168.74939,0.96543
168.50832,0.96411
168.26725,0.96428
168.02618,0.96309
167.78511,0.96009
167.54404,0.95754
167.30297,0.95712
167.06190,0.95819
166.82083,0.95943
166.57975,0.96131
166.33868,0.96621
166.09761,0.97504
165.85654,0.98480
165.61547,0.99096
165.37440,0.99276
165.13333,0.99441
164.89226,0.99996
164.65119,1.00899
164.41012,1.01911
164.16905,1.03090
163.92798,1.04682
163.68691,1.06612
163.44584,1.08480
163.20477,1.10076
162.96370,1.11605
162.72263,1.13296
162.48156,1.14994
162.24048,1.16235
161.99941,1.16667
161.75834,1.16337
161.51727,1.15594
161.27620,1.14864
161.03513,1.14458
160.79406,1.14527
160.55299,1.15065
160.31192,1.15765
160.07085,1.16039
159.82978,1.15586
159.58871,1.14809
159.34764,1.14223
159.10657,1.13708
158.86550,1.12821
158.62443,1.11563
158.38336,1.10361
158.14229,1.09504
157.90121,1.08940
157.66014,1.08508
157.41907,1.08150
157.17800,1.07925
156.93693,1.07850
156.69586,1.07772
156.45479,1.07467
156.21372,1.06824
155.97265,1.05883
155.73158,1.04796
155.49051,1.03783
155.24944,1.02903
155.00837,1.01847
154.76730,1.00226
154.52623,0.98083
154.28516,0.95861
154.04409,0.93916
153.80302,0.92248
153.56194,0.90599
153.32087,0.88728
153.07980,0.86663
152.83873,0.84673
152.59766,0.82930
152.35659,0.81289
152.11552,0.79478
151.87445,0.77417
151.63338,0.75271
151.39231,0.73290
151.15124,0.71649
150.91017,0.70336
150.66910,0.69138
150.42803,0.67787
150.18696,0.66149
149.94589,0.64312
149.70482,0.62496
149.46375,0.60919
149.22267,0.59704
148.98160,0.58848
148.74053,0.58204
148.49946,0.57542
148.25839,0.56707
148.01732,0.55776
147.77625,0.55035
147.53518,0.54747
147.29411,0.54906
147.05304,0.55216
146.81197,0.55363
146.57090,0.55300
146.32983,0.55237
146.08876,0.55408
145.84769,0.55898
145.60662,0.56596
145.36555,0.57276
145.12448,0.57802
144.88340,0.58273
144.64233,0.58859
144.40126,0.59510
144.16019,0.59983
143.91912,0.60176
143.67805,0.60225
143.43698,0.60213
143.19591,0.59986
142.95484,0.59351
142.71377,0.58303
142.47270,0.57003
142.23163,0.55677
141.99056,0.54550
141.74949,0.53723
141.50842,0.53081
141.26735,0.52441
141.02628,0.51815
140.78521,0.51385
140.54413,0.51224
140.30306,0.51199
140.06199,0.51183
139.82092,0.51241
139.57985,0.51519
139.33878,0.52007
139.09771,0.52520
138.85664,0.52975
138.61557,0.53562
138.37450,0.54499
138.13343,0.55763
137.89236,0.57201
137.65129,0.58790
137.41022,0.60583
137.16915,0.62487
136.92808,0.64355
136.68701,0.66257
136.44594,0.68438
136.20486,0.71001
135.96379,0.73855
135.72272,0.76890
135.48165,0.80024
135.24058,0.83214
134.99951,0.86562
134.75844,0.90202
134.51737,0.94067
134.27630,0.98053
134.03523,1.02228
133.79416,1.06439
133.55309,1.10100
133.31202,1.13006
133.07095,1.15767
132.82988,1.18775
132.58881,1.21370
132.34774,1.22529
132.10667,1.22040
131.86559,1.20646
131.62452,1.19243
131.38345,1.18007
131.14238,1.16373
130.90131,1.13964
130.66024,1.11118
130.41917,1.08239
130.17810,1.05138
129.93703,1.01438
129.69596,0.97253
129.45489,0.93028
129.21382,0.88965
128.97275,0.85054
128.73168,0.81348
128.49061,0.77865
128.24954,0.74461
128.00847,0.71031
127.76740,0.67696
127.52632,0.64681
127.28525,0.62086
127.04418,0.59834
126.80311,0.57776
126.56204,0.55838
126.32097,0.54063
126.07990,0.52496
125.83883,0.51067
125.59776,0.49639
125.35669,0.48158
125.11562,0.46777
124.87455,0.45741
124.63348,0.45116
124.39241,0.44684
124.15134,0.44178
123.91027,0.43530
123.66920,0.42841
123.42812,0.42247
123.18705,0.41849
122.94598,0.41663
122.70491,0.41611
122.46384,0.41624
122.22277,0.41712
121.98170,0.41919
121.74063,0.42245
121.49956,0.42671
121.25849,0.43192
121.01742,0.43813
120.77635,0.44555
120.53528,0.45456
120.29421,0.46585
120.05314,0.48008
119.81207,0.49734
119.57100,0.51701
119.32993,0.53863
119.08885,0.56274
118.84778,0.59032
118.60671,0.62156
118.36564,0.65547
118.12457,0.69042
117.88350,0.72495
117.64243,0.75779
117.40136,0.78707
117.16029,0.80973
116.91922,0.82282
116.67815,0.82548
116.43708,0.81960
116.19601,0.80829
115.95494,0.79373
115.71387,0.77664
115.47280,0.75718
115.23173,0.73645
114.99066,0.71689
114.74958,0.70089
114.50851,0.68915
114.26744,0.68032
114.02637,0.67263
113.78530,0.66592
113.54423,0.66188
113.30316,0.66181
113.06209,0.66480
112.82102,0.66898
112.57995,0.67399
112.33888,0.68121
112.09781,0.69191
111.85674,0.70601
111.61567,0.72177
111.37460,0.73622
111.13353,0.74662
110.89246,0.75244
110.65139,0.75614
110.41031,0.75958
110.16924,0.76076
109.92817,0.75641
109.68710,0.74581
109.44603,0.72921
109.20496,0.70539
108.96389,0.67389
108.72282,0.63772
108.48175,0.60172
108.24068,0.56978
107.99961,0.54404
107.75854,0.52468
107.51747,0.50995
107.27640,0.49781
107.03533,0.48745
106.79426,0.47835
106.55319,0.46874
106.31212,0.45638
106.07104,0.44079
105.82997,0.42382
105.58890,0.40788
105.34783,0.39387
105.10676,0.38144
104.86569,0.37056
104.62462,0.36189
104.38355,0.35530
104.14248,0.34912
103.90141,0.34139
103.66034,0.33170
103.41927,0.32170
103.17820,0.31360
102.93713,0.30816
102.69606,0.30421
102.45499,0.30037
102.21392,0.29646
101.97285,0.29274
101.73177,0.28859
101.49070,0.28324
101.24963,0.27740
101.00856,0.27267
100.76749,0.26978
100.52642,0.26825
100.28535,0.26760
100.04428,0.26764
99.80321,0.26747
99.56214,0.26527
99.32107,0.25997
99.08000,0.25310
98.83893,0.24829
98.59786,0.24870
98.35679,0.25416
98.11572,0.26027
97.87465,0.26139
97.63358,0.25689
97.39250,0.25234
97.15143,0.25339
96.91036,0.26079
96.66929,0.27092
96.42822,0.27962
96.18715,0.28593
95.94608,0.29213
95.70501,0.30092
95.46394,0.31228
95.22287,0.32211
94.98180,0.32561
94.74073,0.32418
94.49966,0.32532
94.25859,0.33301
94.01752,0.34172
93.77645,0.34251
93.53538,0.33587
93.29431,0.33160
93.05323,0.33522
92.81216,0.34161
92.57109,0.34319
92.33002,0.34127
92.08895,0.34252
91.84788,0.34783
91.60681,0.35271
91.36574,0.35748
91.12467,0.36866
90.88360,0.38945
90.64253,0.41662
90.40146,0.44776
90.16039,0.48502
89.91932,0.52987
89.67825,0.58165
89.43718,0.63890
89.19611,0.69365
88.95504,0.73280
88.71396,0.75384
88.47289,0.76087
88.23182,0.74720
87.99075,0.70716
87.74968,0.65271
87.50861,0.59769
87.26754,0.54574
87.02647,0.49766
86.78540,0.45586
86.54433,0.42118
86.30326,0.39241
86.06219,0.36795
85.82112,0.34625
85.58005,0.32623
85.33898,0.30762
85.09791,0.29037
84.85684,0.27411
84.61577,0.25881
84.37469,0.24533
84.13362,0.23492
83.89255,0.22773
83.65148,0.22230
83.41041,0.21721
83.16934,0.21223
82.92827,0.20737
82.68720,0.20234
82.44613,0.19737
82.20506,0.19305
81.96399,0.18953
81.72292,0.18668
81.48185,0.18450
81.24078,0.18305
80.99971,0.18224
80.75864,0.18141
80.51757,0.17953
80.27650,0.17631
80.03542,0.17271
79.79435,0.16996
79.55328,0.16859
79.31221,0.16846
79.07114,0.16895
78.83007,0.16948
78.58900,0.16984
78.34793,0.16986
78.10686,0.16906
77.86579,0.16711
77.62472,0.16442
77.38365,0.16196
77.14258,0.16065
76.90151,0.16080
76.66044,0.16209
76.41937,0.16383
76.17830,0.16529
75.93723,0.16594
75.69615,0.16544
75.45508,0.16349
75.21401,0.16016
74.97294,0.15674
74.73187,0.15533
74.49080,0.15704
74.24973,0.16073
74.00866,0.16362
73.76759,0.16368
73.52652,0.16158
73.28545,0.15992
73.04438,0.16037
72.80331,0.16181
72.56224,0.16152
72.32117,0.15859
72.08010,0.15534
71.83903,0.15530
71.59796,0.16045
71.35688,0.16976
71.11581,0.17952
70.87474,0.18542
70.63367,0.18601
70.39260,0.18459
70.15153,0.18713
69.91046,0.19803
69.66939,0.21747
69.42832,0.24184
69.18725,0.26529
68.94618,0.28119
68.70511,0.28413
68.46404,0.27280
68.22297,0.25127
67.98190,0.22647
67.74083,0.20423
67.49976,0.18703
67.25869,0.17440
67.01761,0.16473
66.77654,0.15695
66.53547,0.15077
66.29440,0.14616
66.05333,0.14323
65.81226,0.14242
65.57119,0.14439
65.33012,0.14962
65.08905,0.15812
64.84798,0.16913
64.60691,0.18129
64.36584,0.19329
64.12477,0.20385
63.88370,0.21076
63.64263,0.21149
63.40156,0.20577
63.16049,0.19623
62.91942,0.18598
62.67834,0.17631
62.43727,0.16698
62.19620,0.15768
61.95513,0.14917
61.71406,0.14281
61.47299,0.13899
61.23192,0.13634
60.99085,0.13334
60.74978,0.13034
60.50871,0.12919
60.26764,0.13115
60.02657,0.13572
59.78550,0.14091
59.54443,0.14478
59.30336,0.14700
59.06229,0.14870
58.82122,0.15034
58.58015,0.15127
58.33907,0.15168
58.09800,0.15343
57.85693,0.15812
57.61586,0.16466
57.37479,0.16948
57.13372,0.17015
56.89265,0.16837
56.65158,0.16766
56.41051,0.16941
56.16944,0.17344
55.92837,0.17991
55.68730,0.18788
55.44623,0.19298
55.20516,0.18915
54.96409,0.17404
54.72302,0.15184
54.48195,0.13001
54.24088,0.11421
53.99980,0.10639
53.75873,0.10656
53.51766,0.11452
53.27659,0.12978
53.03552,0.15108
52.79445,0.17612
52.55338,0.19875
52.31231,0.20712
52.07124,0.19449
51.83017,0.17009
51.58910,0.14701
51.34803,0.13120
51.10696,0.12484
50.86589,0.13192
50.62482,0.15681
50.38375,0.19191
50.14268,0.20636
49.90161,0.18058
49.66053,0.14087
49.41946,0.11571
49.17839,0.11690
48.93732,0.14612
48.69625,0.18990
48.45518,0.20615
48.21411,0.17051
47.97304,0.12822
47.73197,0.11770
47.49090,0.14506
47.24983,0.18182
47.00876,0.17677
46.76769,0.14398
46.52662,0.13626
46.28555,0.16135
46.04448,0.17881
45.80341,0.16159
45.56234,0.14699
45.32126,0.15837
45.08019,0.17456
44.83912,0.17185
44.59805,0.16299
44.35698,0.16008
44.11591,0.15742
43.87484,0.15693
43.63377,0.16252
43.39270,0.16649
43.15163,0.16596
42.91056,0.16895
42.66949,0.17510
42.42842,0.17528
42.18735,0.17190
41.94628,0.17292
41.70521,0.17718
41.46414,0.17827
41.22307,0.17566
40.98199,0.17679
40.74092,0.18564
40.49985,0.19519
40.25878,0.19644
40.01771,0.19010
39.77664,0.18156
39.53557,0.17524
39.29450,0.17764
39.05343,0.19255
38.81236,0.21487
38.57129,0.23658
38.33022,0.25273
38.08915,0.26103
37.84808,0.26395
37.60701,0.26612
37.36594,0.26614
37.12487,0.25945
36.88380,0.24681
36.64272,0.23403
36.40165,0.22600
36.16058,0.22284
35.91951,0.22113
35.67844,0.21831
35.43737,0.21376
35.19630,0.20830
34.95523,0.20636
34.71416,0.21166
34.47309,0.21717
34.23202,0.20952
33.99095,0.18815
33.74988,0.16806
33.50881,0.16188
33.26774,0.16946
33.02667,0.18130
32.78560,0.18778
32.54453,0.18621
32.30345,0.17851
32.06238,0.16644
31.82131,0.15203
31.58024,0.13751
31.33917,0.12352
31.09810,0.10876
30.85703,0.09043
30.61596,0.06879
30.37489,0.05257
30.13382,0.05297
29.89275,0.06712
29.65168,0.07468
29.41061,0.05919
29.16954,0.02367
28.92847,-0.01803
28.68740,-0.05249
28.44633,-0.07629
28.20526,-0.10042
27.96418,-0.13121
27.72311,-0.15029
27.48204,-0.13750
27.24097,-0.10531
26.99990,-0.08045
26.75883,-0.07261
26.51776,-0.07685
26.27669,-0.08825
26.03562,-0.10704
25.79455,-0.13771
25.55348,-0.18002
25.31241,-0.21956
25.07134,-0.23805
24.83027,-0.23538
24.58920,-0.23179
24.34813,-0.24498
24.10706,-0.27304
23.86599,-0.29822
23.62491,-0.30982
23.38384,-0.31497
23.14277,-0.31996
22.90170,-0.32617
22.66063,-0.33447
22.41956,-0.33815
22.17849,-0.33794
21.93742,-0.33836
21.69635,-0.33950
21.45528,-0.34513
21.21421,-0.36189
20.97314,-0.38871
20.73207,-0.41476
20.49100,-0.43012
20.24993,-0.43173
20.00886,-0.41897
19.76779,-0.39764
19.52672,-0.38382
19.28564,-0.39056
19.04457,-0.41213
18.80350,-0.42108
18.56243,-0.41426
18.32136,-0.42118
18.08029,-0.43790
17.83922,-0.44249
17.59815,-0.42659
17.35708,-0.41010
17.11601,-0.40974
16.87494,-0.42043
16.63387,-0.43125
16.39280,-0.44209
16.15173,-0.45567
15.91066,-0.46708
15.66959,-0.47379
15.42852,-0.47878
15.18745,-0.48871
14.94637,-0.49884
14.70530,-0.49453
14.46423,-0.47545
14.22316,-0.46145
13.98209,-0.46597
13.74102,-0.47785
13.49995,-0.47435
13.25888,-0.45183
13.01781,-0.43341
12.77674,-0.43890
12.53567,-0.46105
12.29460,-0.47951
12.05353,-0.49143
11.81246,-0.51132
11.57139,-0.53617
11.33032,-0.56055
11.08925,-0.57539
10.84818,-0.54835
10.60710,-0.51025
10.36603,-0.48361
10.12496,-0.46757
9.88389,-0.45513
9.64282,-0.45135
9.40175,-0.44495
9.16068,-0.43887
8.91961,-0.45369
8.67854,-0.46247
8.43747,-0.43626
8.19640,-0.41445
7.95533,-0.40812
7.71426,-0.41168
7.47319,-0.41910
7.23212,-0.43356
6.99105,-0.44462
6.74998,-0.44068
6.50891,-0.43123
6.26783,-0.43034
6.02676,-0.43860
5.78569,-0.44784
5.54462,-0.44788
5.30355,-0.43240
5.06248,-0.41333
4.82141,-0.40824
4.58034,-0.42065
4.33927,-0.43523
4.09820,-0.43513
3.85713,-0.42437
3.61606,-0.41613
3.37499,-0.41718
3.13392,-0.42539
2.89285,-0.43935
2.65178,-0.46021
2.41071,-0.46130
2.16964,-0.43172
1.92856,-0.40565
1.68749,-0.39485
1.44642,-0.40474
1.20535,-0.42870
0.96428,-0.44475
0.72321,-0.44347
0.48214,-0.44969
0.24107,-0.42393
-0.00000,-0.09718
