399.69498,1.76918
399.45391,1.81558
399.21284,1.87712
398.97177,1.91349
398.73070,1.91859
398.48963,1.90612
398.24856,1.86703
398.00749,1.83878
397.76642,1.85910
397.52535,1.90746
397.28428,1.94684
397.04321,1.98295
396.80214,2.01677
396.56107,1.99379
396.32000,1.91716
396.07892,1.84995
395.83785,1.81510
395.59678,1.80892
395.35571,1.81484
395.11464,1.82072
394.87357,1.83363
394.63250,1.86298
394.39143,1.92123
394.15036,1.98851
393.90929,2.00696
393.66822,1.96522
393.42715,1.91125
393.18608,1.87723
392.94501,1.86561
392.70394,1.86945
392.46287,1.88905
392.22180,1.92924
391.98073,1.98678
391.73965,2.05221
391.49858,2.11793
391.25751,2.16336
391.01644,2.17862
390.77537,2.18345
390.53430,2.15106
390.29323,2.10035
390.05216,2.02083
389.81109,1.95538
389.57002,1.95632
389.32895,2.02134
389.08788,2.11905
388.84681,2.23394
388.60574,2.28330
388.36467,2.24283
388.12360,2.32204
387.88253,2.52601
387.64146,2.39957
387.40038,2.22169
387.15931,2.14970
386.91824,2.15009
386.67717,2.15954
386.43610,2.19608
386.19503,2.27397
385.95396,2.22519
385.71289,1.98102
385.47182,1.85114
385.23075,1.85731
384.98968,1.94889
384.74861,2.08766
384.50754,2.24047
384.26647,2.42810
384.02540,2.53090
383.78433,2.42554
383.54326,2.36155
383.30219,2.40209
383.06111,2.48841
382.82004,2.10932
382.57897,1.90423
382.33790,1.90366
382.09683,1.99065
381.85576,2.04534
381.61469,2.04882
381.37362,2.07122
381.13255,2.16992
380.89148,2.32964
380.65041,2.37046
380.40934,2.14756
380.16827,2.00257
379.92720,2.01997
379.68613,2.07612
379.44506,2.00117
379.20399,2.11095
378.96292,2.42338
378.72184,2.74787
378.48077,2.72413
378.23970,2.61223
377.99863,2.28124
377.75756,1.94935
377.51649,1.80421
377.27542,1.79326
377.03435,1.83510
376.79328,1.88234
376.55221,1.93867
376.31114,2.01864
376.07007,2.15398
375.82900,2.29767
375.58793,2.22898
375.34686,2.26738
375.10579,2.46082
374.86472,2.56220
374.62365,2.50181
374.38257,2.33442
374.14150,2.06983
373.90043,1.93950
373.65936,1.95379
373.41829,2.03839
373.17722,2.11886
372.93615,2.10475
372.69508,1.98335
372.45401,1.85549
372.21294,1.76057
371.97187,1.70749
371.73080,1.68498
371.48973,1.66697
371.24866,1.64342
371.00759,1.61956
370.76652,1.59721
370.52545,1.57213
370.28437,1.54806
370.04330,1.53565
369.80223,1.53335
369.56116,1.52837
369.32009,1.51773
369.07902,1.51003
368.83795,1.50394
368.59688,1.48711
368.35581,1.46061
368.11474,1.44218
367.87367,1.44212
367.63260,1.45340
367.39153,1.46136
367.15046,1.46043
366.90939,1.46284
366.66832,1.47995
366.42725,1.49821
366.18618,1.48646
365.94510,1.44165
365.70403,1.39889
365.46296,1.38537
365.22189,1.39766
364.98082,1.41592
364.73975,1.42347
364.49868,1.41717
364.25761,1.40424
364.01654,1.39203
363.77547,1.38500
363.53440,1.38359
363.29333,1.38206
363.05226,1.37486
362.81119,1.36698
362.57012,1.36650
362.32905,1.37360
362.08798,1.38291
361.84691,1.39194
361.60583,1.40190
361.36476,1.40734
361.12369,1.39856
360.88262,1.37797
360.64155,1.35995
360.40048,1.35589
360.15941,1.36812
359.91834,1.39009
359.67727,1.40392
359.43620,1.39269
359.19513,1.36581
358.95406,1.34811
358.71299,1.35015
358.47192,1.36433
358.23085,1.37949
357.98978,1.38902
357.74871,1.38994
357.50764,1.38461
357.26656,1.38200
357.02549,1.39029
356.78442,1.40722
356.54335,1.42144
356.30228,1.42382
356.06121,1.41521
355.82014,1.40111
355.57907,1.38494
355.33800,1.36893
355.09693,1.35849
354.85586,1.35658
354.61479,1.36069
354.37372,1.36935
354.13265,1.38615
353.89158,1.41156
353.65051,1.43616
353.40944,1.44762
353.16837,1.44174
352.92729,1.42622
352.68622,1.41080
352.44515,1.39738
352.20408,1.38305
351.96301,1.36884
351.72194,1.36572
351.48087,1.38090
351.23980,1.40295
350.99873,1.41400
350.75766,1.41070
350.51659,1.40088
350.27552,1.39156
350.03445,1.38654
349.79338,1.38852
349.55231,1.40009
349.31124,1.42083
349.07017,1.44314
348.82910,1.45612
348.58802,1.45777
348.34695,1.45577
348.10588,1.45574
347.86481,1.45545
347.62374,1.45182
347.38267,1.44640
347.14160,1.44362
346.90053,1.44855
346.65946,1.46531
346.41839,1.49357
346.17732,1.52344
345.93625,1.53906
345.69518,1.53345
345.45411,1.51436
345.21304,1.49370
344.97197,1.47909
344.73090,1.47410
344.48983,1.47729
344.24875,1.48362
344.00768,1.48805
343.76661,1.48917
343.52554,1.49403
343.28447,1.51272
343.04340,1.54625
342.80233,1.58169
342.56126,1.60382
342.32019,1.61635
342.07912,1.63675
341.83805,1.66976
341.59698,1.69913
341.35591,1.70566
341.11484,1.68670
340.87377,1.66246
340.63270,1.65561
340.39163,1.65873
340.15056,1.65733
339.90948,1.66746
339.66841,1.71174
339.42734,1.77783
339.18627,1.82192
338.94520,1.81964
338.70413,1.80860
338.46306,1.82199
338.22199,1.85087
337.98092,1.87023
337.73985,1.86404
337.49878,1.84706
337.25771,1.84219
337.01664,1.86134
336.77557,1.91888
336.53450,1.98369
336.29343,2.01473
336.05236,2.04010
335.81129,1.98210
335.57021,1.87254
335.32914,1.80822
335.08807,1.80576
334.84700,1.85043
334.60593,1.89517
334.36486,1.87540
334.12379,1.79977
333.88272,1.74238
333.64165,1.73594
333.40058,1.75802
333.15951,1.78209
332.91844,1.79240
332.67737,1.77024
332.43630,1.72134
332.19523,1.67900
331.95416,1.66468
331.71309,1.67874
331.47202,1.70797
331.23094,1.73871
330.98987,1.75714
330.74880,1.75514
330.50773,1.73634
330.26666,1.70432
330.02559,1.66422
329.78452,1.63023
329.54345,1.62026
329.30238,1.64635
329.06131,1.69801
328.82024,1.73024
328.57917,1.70565
328.33810,1.65399
328.09703,1.63052
327.85596,1.65433
327.61489,1.70439
327.37382,1.74100
327.13275,1.74612
326.89167,1.73263
326.65060,1.71428
326.40953,1.69504
326.16846,1.67558
325.92739,1.66353
325.68632,1.65827
325.44525,1.65151
325.20418,1.65259
324.96311,1.67361
324.72204,1.70769
324.48097,1.73542
324.23990,1.74419
323.99883,1.74661
323.75776,1.76490
323.51669,1.79278
323.27562,1.79909
323.03455,1.76830
322.79348,1.73304
322.55240,1.74844
322.31133,1.84866
322.07026,2.01127
321.82919,2.11053
321.58812,2.04742
321.34705,1.92553
321.10598,1.83115
320.86491,1.78798
320.62384,1.80051
320.38277,1.82652
320.14170,1.82311
319.90063,1.80685
319.65956,1.81780
319.41849,1.88007
319.17742,1.98328
318.93635,2.08532
318.69528,2.19189
318.45421,2.23182
318.21313,2.12114
317.97206,2.01260
317.73099,1.99242
317.48992,2.04756
317.24885,2.10860
317.00778,2.12352
316.76671,2.06385
316.52564,1.93279
316.28457,1.83561
316.04350,1.80248
315.80243,1.82927
315.56136,1.90720
315.32029,2.00720
315.07922,2.09069
314.83815,2.12736
314.59708,2.16146
314.35601,2.23213
314.11494,2.17763
313.87386,2.09543
313.63279,2.07724
313.39172,2.11944
313.15065,2.15275
312.90958,2.17535
312.66851,2.26843
312.42744,2.35428
312.18637,2.39277
311.94530,2.49097
311.70423,2.45123
311.46316,2.59978
311.22209,2.66122
310.98102,2.26479
310.73995,2.16280
310.49888,2.23331
310.25781,2.34546
310.01674,2.35789
309.77567,2.21477
309.53459,2.11391
309.29352,2.09811
309.05245,2.09874
308.81138,2.06292
308.57031,2.02512
308.32924,2.02872
308.08817,2.03334
307.84710,1.99306
307.60603,1.95339
307.36496,1.94221
307.12389,1.93989
306.88282,1.94412
306.64175,1.96685
306.40068,2.00516
306.15961,2.01096
305.91854,1.94007
305.67747,1.83283
305.43640,1.74788
305.19532,1.68503
304.95425,1.62764
304.71318,1.58812
304.47211,1.57844
304.23104,1.58689
303.98997,1.58972
303.74890,1.57421
303.50783,1.54311
303.26676,1.51305
303.02569,1.50530
302.78462,1.52156
302.54355,1.53874
302.30248,1.53170
302.06141,1.49781
301.82034,1.45150
301.57927,1.40926
301.33820,1.38355
301.09713,1.37481
300.85605,1.36915
300.61498,1.35215
300.37391,1.32582
300.13284,1.30354
299.89177,1.29271
299.65070,1.29042
299.40963,1.29250
299.16856,1.29872
298.92749,1.30579
298.68642,1.30310
298.44535,1.28435
298.20428,1.25771
297.96321,1.23798
297.72214,1.23032
297.48107,1.22726
297.24000,1.21984
296.99893,1.20811
296.75786,1.19969
296.51678,1.19989
296.27571,1.20595
296.03464,1.20901
295.79357,1.20263
295.55250,1.19002
295.31143,1.17804
295.07036,1.16741
294.82929,1.15538
294.58822,1.14354
294.34715,1.13719
294.10608,1.13736
293.86501,1.13892
293.62394,1.13807
293.38287,1.13603
293.14180,1.13312
292.90073,1.12671
292.65966,1.11742
292.41859,1.11038
292.17751,1.10848
291.93644,1.10873
291.69537,1.10651
291.45430,1.10139
291.21323,1.09694
290.97216,1.09628
290.73109,1.10000
290.49002,1.10594
290.24895,1.10902
290.00788,1.10466
289.76681,1.09505
289.52574,1.08726
289.28467,1.08296
289.04360,1.07678
288.80253,1.06631
288.56146,1.05714
288.32039,1.05521
288.07932,1.05917
287.83824,1.06251
287.59717,1.06078
287.35610,1.05459
287.11503,1.04732
286.87396,1.04198
286.63289,1.04031
286.39182,1.04266
286.15075,1.04737
285.90968,1.05072
285.66861,1.04956
285.42754,1.04455
285.18647,1.03990
284.94540,1.03843
284.70433,1.03830
284.46326,1.03651
284.22219,1.03300
283.98112,1.02977
283.74005,1.02826
283.49897,1.02891
283.25790,1.03106
283.01683,1.03327
282.77576,1.03514
282.53469,1.03713
282.29362,1.03708
282.05255,1.03163
281.81148,1.02271
281.57041,1.01698
281.32934,1.01733
281.08827,1.01971
280.84720,1.01900
280.60613,1.01497
280.36506,1.01126
280.12399,1.01110
279.88292,1.01424
279.64185,1.01777
279.40078,1.02010
279.15970,1.02281
278.91863,1.02686
278.67756,1.02962
278.43649,1.02856
278.19542,1.02525
277.95435,1.02274
277.71328,1.02180
277.47221,1.02166
277.23114,1.02295
276.99007,1.02662
276.74900,1.03108
276.50793,1.03346
276.26686,1.03311
276.02579,1.03164
275.78472,1.03080
275.54365,1.03166
275.30258,1.03391
275.06151,1.03530
274.82043,1.03400
274.57936,1.03107
274.33829,1.02781
274.09722,1.02314
273.85615,1.01722
273.61508,1.01401
273.37401,1.01652
273.13294,1.02248
272.89187,1.02741
272.65080,1.02975
272.40973,1.03101
272.16866,1.03311
271.92759,1.03645
271.68652,1.03940
271.44545,1.04042
271.20438,1.04162
270.96331,1.04719
270.72224,1.05708
270.48116,1.06486
270.24009,1.06555
269.99902,1.06322
269.75795,1.06554
269.51688,1.07268
269.27581,1.07658
269.03474,1.07212
268.79367,1.06456
268.55260,1.06261
268.31153,1.06886
268.07046,1.07910
267.82939,1.08791
267.58832,1.09280
267.34725,1.09496
267.10618,1.09827
266.86511,1.10441
266.62404,1.10829
266.38297,1.10366
266.14189,1.09369
265.90082,1.08873
265.65975,1.09514
265.41868,1.11120
265.17761,1.13076
264.93654,1.14795
264.69547,1.16186
264.45440,1.17624
264.21333,1.19253
263.97226,1.20520
263.73119,1.20772
263.49012,1.20275
263.24905,1.20142
263.00798,1.21108
262.76691,1.22805
262.52584,1.24368
262.28477,1.25406
262.04370,1.26230
261.80262,1.27209
261.56155,1.28402
261.32048,1.29829
261.07941,1.31459
260.83834,1.33005
260.59727,1.34219
260.35620,1.35238
260.11513,1.36484
259.87406,1.38418
259.63299,1.41194
259.39192,1.44463
259.15085,1.47915
258.90978,1.51765
258.66871,1.55745
258.42764,1.58343
258.18657,1.58720
257.94550,1.58490
257.70443,1.59638
257.46335,1.61945
257.22228,1.63944
256.98121,1.65907
256.74014,1.69685
256.49907,1.75263
256.25800,1.79507
256.01693,1.80436
255.77586,1.80189
255.53479,1.80759
255.29372,1.83198
255.05265,1.88598
254.81158,1.96888
254.57051,2.05976
254.32944,2.13109
254.08837,2.17284
253.84730,2.21651
253.60623,2.29254
253.36516,2.31989
253.12408,2.26179
252.88301,2.27381
252.64194,2.39481
252.40087,2.41253
252.15980,2.30921
251.91873,2.24386
251.67766,2.24544
251.43659,2.29100
251.19552,2.35345
250.95445,2.42033
250.71338,2.41650
250.47231,2.35320
250.23124,2.36532
249.99017,2.36552
249.74910,2.33630
249.50803,2.21806
249.26696,2.21706
249.02589,2.38993
248.78481,2.61169
248.54374,2.52459
248.30267,2.36183
248.06160,2.31873
247.82053,2.38073
247.57946,2.52953
247.33839,2.70628
247.09732,2.72229
246.85625,2.51718
246.61518,2.43701
246.37411,2.52693
246.13304,2.61089
245.89197,2.49605
245.65090,2.33209
245.40983,2.21426
245.16876,2.16131
244.92769,2.14137
244.68661,2.10451
244.44554,2.02165
244.20447,1.90708
243.96340,1.79361
243.72233,1.70478
243.48126,1.64749
243.24019,1.61600
242.99912,1.59273
242.75805,1.55581
242.51698,1.49728
242.27591,1.43029
242.03484,1.37125
241.79377,1.32088
241.55270,1.27005
241.31163,1.21594
241.07056,1.16584
240.82949,1.12725
240.58842,1.09864
240.34734,1.07134
240.10627,1.03941
239.86520,1.00542
239.62413,0.97583
239.38306,0.95341
239.14199,0.93474
238.90092,0.91393
238.65985,0.88901
238.41878,0.86401
238.17771,0.84426
237.93664,0.83129
237.69557,0.82235
237.45450,0.81354
237.21343,0.80302
236.97236,0.79196
236.73129,0.78290
236.49022,0.77705
236.24915,0.77264
236.00807,0.76661
235.76700,0.75781
235.52593,0.74797
235.28486,0.73967
235.04379,0.73410
234.80272,0.73031
234.56165,0.72613
234.32058,0.72064
234.07951,0.71487
233.83844,0.70967
233.59737,0.70468
233.35630,0.70034
233.11523,0.69820
232.87416,0.69808
232.63309,0.69754
232.39202,0.69483
232.15095,0.69088
231.90988,0.68766
231.66880,0.68655
231.42773,0.68811
231.18666,0.69106
230.94559,0.69164
230.70452,0.68720
230.46345,0.68061
230.22238,0.67742
229.98131,0.67900
229.74024,0.68171
229.49917,0.68216
229.25810,0.68050
229.01703,0.67854
228.77596,0.67694
228.53489,0.67496
228.29382,0.67211
228.05275,0.66958
227.81168,0.66962
227.57061,0.67335
227.32953,0.67861
227.08846,0.68083
226.84739,0.67782
226.60632,0.67299
226.36525,0.67132
226.12418,0.67397
225.88311,0.67911
225.64204,0.68503
225.40097,0.68992
225.15990,0.69163
224.91883,0.69028
224.67776,0.68843
224.43669,0.68804
224.19562,0.68962
223.95455,0.69344
223.71348,0.69922
223.47241,0.70547
223.23134,0.71072
222.99026,0.71469
222.74919,0.71800
222.50812,0.72150
222.26705,0.72562
222.02598,0.72995
221.78491,0.73387
221.54384,0.73782
221.30277,0.74329
221.06170,0.75139
220.82063,0.76171
220.57956,0.77220
220.33849,0.78039
220.09742,0.78546
219.85635,0.78984
219.61528,0.79747
219.37421,0.81007
219.13314,0.82545
218.89207,0.84025
218.65099,0.85354
218.40992,0.86593
218.16885,0.87692
217.92778,0.88658
217.68671,0.89742
217.44564,0.91081
217.20457,0.92357
216.96350,0.93181
216.72243,0.93673
216.48136,0.94303
216.24029,0.95372
215.99922,0.96786
215.75815,0.98173
215.51708,0.99242
215.27601,1.00117
215.03494,1.01117
214.79387,1.02161
214.55280,1.02878
214.31172,1.03412
214.07065,1.04513
213.82958,1.06532
213.58851,1.08757
213.34744,1.10072
213.10637,1.10110
212.86530,1.09552
212.62423,1.09416
212.38316,1.10180
212.14209,1.11461
211.90102,1.12495
211.65995,1.12984
211.41888,1.13250
211.17781,1.13641
210.93674,1.14053
210.69567,1.14171
210.45460,1.14018
210.21353,1.13962
209.97245,1.14085
209.73138,1.14024
209.49031,1.13641
209.24924,1.13265
209.00817,1.13060
208.76710,1.12797
208.52603,1.12324
208.28496,1.11713
208.04389,1.10985
207.80282,1.10062
207.56175,1.09061
207.32068,1.08321
207.07961,1.07954
206.83854,1.07517
206.59747,1.06416
206.35640,1.04684
206.11533,1.03030
205.87426,1.02029
205.63318,1.01591
205.39211,1.01150
205.15104,1.00256
204.90997,0.99032
204.66890,0.97927
204.42783,0.97141
204.18676,0.96520
203.94569,0.95842
203.70462,0.94984
203.46355,0.93923
203.22248,0.92708
202.98141,0.91321
202.74034,0.89613
202.49927,0.87627
202.25820,0.85789
202.01713,0.84465
201.77606,0.83506
201.53499,0.82444
201.29391,0.81020
201.05284,0.79359
200.81177,0.77730
200.57070,0.76345
200.32963,0.75314
200.08856,0.74565
199.84749,0.73849
199.60642,0.72956
199.36535,0.71860
199.12428,0.70617
198.88321,0.69278
198.64214,0.67945
198.40107,0.66772
198.16000,0.65833
197.91893,0.65091
197.67786,0.64453
197.43679,0.63817
197.19572,0.63106
196.95464,0.62345
196.71357,0.61637
196.47250,0.61026
196.23143,0.60429
195.99036,0.59727
195.74929,0.58886
195.50822,0.57992
195.26715,0.57199
195.02608,0.56623
194.78501,0.56234
194.54394,0.55849
194.30287,0.55281
194.06180,0.54555
193.82073,0.53903
193.57966,0.53495
193.33859,0.53242
193.09752,0.52927
192.85645,0.52473
192.61537,0.51969
192.37430,0.51521
192.13323,0.51150
191.89216,0.50815
191.65109,0.50461
191.41002,0.50058
191.16895,0.49637
190.92788,0.49273
190.68681,0.49014
190.44574,0.48835
190.20467,0.48636
189.96360,0.48337
189.72253,0.47990
189.48146,0.47751
189.24039,0.47684
188.99932,0.47670
188.75825,0.47596
188.51718,0.47501
188.27610,0.47439
188.03503,0.47328
187.79396,0.47079
187.55289,0.46786
187.31182,0.46650
187.07075,0.46742
186.82968,0.46933
186.58861,0.47051
186.34754,0.47058
186.10647,0.47012
185.86540,0.46937
185.62433,0.46837
185.38326,0.46772
185.14219,0.46789
184.90112,0.46818
184.66005,0.46768
184.41898,0.46684
184.17791,0.46702
183.93683,0.46917
183.69576,0.47313
183.45469,0.47794
183.21362,0.48244
182.97255,0.48590
182.73148,0.48814
182.49041,0.48933
182.24934,0.49003
182.00827,0.49061
181.76720,0.49071
181.52613,0.48999
181.28506,0.48952
181.04399,0.49091
180.80292,0.49442
180.56185,0.49888
180.32078,0.50321
180.07971,0.50683
179.83864,0.50975
179.59756,0.51298
179.35649,0.51789
179.11542,0.52471
178.87435,0.53239
178.63328,0.53957
178.39221,0.54499
178.15114,0.54874
177.91007,0.55364
177.66900,0.56346
177.42793,0.57876
177.18686,0.59622
176.94579,0.61267
176.70472,0.62812
176.46365,0.64380
176.22258,0.65930
175.98151,0.67337
175.74044,0.68635
175.49937,0.70030
175.25829,0.71716
175.01722,0.73748
174.77615,0.75982
174.53508,0.78100
174.29401,0.79922
174.05294,0.81670
173.81187,0.83658
173.57080,0.85754
173.32973,0.87443
173.08866,0.88461
172.84759,0.89092
172.60652,0.89734
172.36545,0.90440
172.12438,0.91029
171.88331,0.91497
171.64224,0.92085
171.40117,0.92823
171.16010,0.93257
170.91902,0.92876
170.67795,0.91665
170.43688,0.90127
170.19581,0.88836
169.95474,0.88038
169.71367,0.87561
169.47260,0.87117
169.23153,0.86608
168.99046,0.86113
168.74939,0.85712
168.50832,0.85389
168.26725,0.85007
168.02618,0.84469
167.78511,0.83902
167.54404,0.83547
167.30297,0.83462
167.06190,0.83509
166.82083,0.83576
166.57975,0.83694
166.33868,0.84010
166.09761,0.84690
165.85654,0.85778
165.61547,0.87112
165.37440,0.88352
165.13333,0.89148
164.89226,0.89476
164.65119,0.89758
164.41012,0.90453
164.16905,0.91604
163.92798,0.92896
163.68691,0.94033
163.44584,0.94904
163.20477,0.95600
162.96370,0.96279
162.72263,0.96978
162.48156,0.97760
162.24048,0.98897
161.99941,1.00430
161.75834,1.01624
161.51727,1.01577
161.27620,1.00473
161.03513,0.99428
160.79406,0.99131
160.55299,0.99289
160.31192,0.99264
160.07085,0.98807
159.82978,0.98079
159.58871,0.97311
159.34764,0.96734
159.10657,0.96597
158.86550,0.96963
158.62443,0.97463
158.38336,0.97451
158.14229,0.96692
157.90121,0.95731
157.66014,0.95194
157.41907,0.95038
157.17800,0.94850
156.93693,0.94516
156.69586,0.94114
156.45479,0.93559
156.21372,0.92790
155.97265,0.91894
155.73158,0.90894
155.49051,0.89709
155.24944,0.88384
155.00837,0.87145
154.76730,0.86190
154.52623,0.85466
154.28516,0.84721
154.04409,0.83679
153.80302,0.82185
153.56194,0.80286
153.32087,0.78175
153.07980,0.76078
152.83873,0.74187
152.59766,0.72562
152.35659,0.71027
152.11552,0.69345
151.87445,0.67585
151.63338,0.66055
151.39231,0.64801
151.15124,0.63519
150.91017,0.61991
150.66910,0.60320
150.42803,0.58697
150.18696,0.57189
149.94589,0.55768
149.70482,0.54436
149.46375,0.53271
149.22267,0.52336
148.98160,0.51566
148.74053,0.50856
148.49946,0.50217
148.25839,0.49718
148.01732,0.49331
147.77625,0.48958
147.53518,0.48580
147.29411,0.48311
147.05304,0.48291
146.81197,0.48505
146.57090,0.48796
146.32983,0.49066
146.08876,0.49353
145.84769,0.49694
145.60662,0.50073
145.36555,0.50500
145.12448,0.51003
144.88340,0.51557
144.64233,0.52129
144.40126,0.52704
144.16019,0.53230
143.91912,0.53588
143.67805,0.53676
143.43698,0.53457
143.19591,0.52914
142.95484,0.52037
142.71377,0.50920
142.47270,0.49775
142.23163,0.48770
141.99056,0.47921
141.74949,0.47165
141.50842,0.46416
141.26735,0.45629
141.02628,0.44926
140.78521,0.44559
140.54413,0.44619
140.30306,0.44889
140.06199,0.45110
139.82092,0.45257
139.57985,0.45457
139.33878,0.45780
139.09771,0.46196
138.85664,0.46654
138.61557,0.47176
138.37450,0.47838
138.13343,0.48705
137.89236,0.49798
137.65129,0.51098
137.41022,0.52557
137.16915,0.54155
136.92808,0.55936
136.68701,0.57965
136.44594,0.60259
136.20486,0.62723
135.96379,0.65135
135.72272,0.67344
135.48165,0.69529
135.24058,0.72061
134.99951,0.75094
134.75844,0.78448
134.51737,0.81816
134.27630,0.84955
134.03523,0.87738
133.79416,0.90139
133.55309,0.92234
133.31202,0.94218
133.07095,0.96269
132.82988,0.98243
132.58881,0.99671
132.34774,1.00214
132.10667,1.00056
131.86559,0.99605
131.62452,0.98988
131.38345,0.98215
131.14238,0.97460
130.90131,0.96665
130.66024,0.95187
130.41917,0.92424
130.17810,0.88746
129.93703,0.85109
129.69596,0.81884
129.45489,0.78704
129.21382,0.75282
128.97275,0.71840
128.73168,0.68702
128.49061,0.65864
128.24954,0.63099
128.00847,0.60291
127.76740,0.57554
127.52632,0.55099
127.28525,0.53038
127.04418,0.51310
126.80311,0.49737
126.56204,0.48163
126.32097,0.46511
126.07990,0.44751
125.83883,0.42926
125.59776,0.41206
125.35669,0.39822
125.11562,0.38855
124.87455,0.38140
124.63348,0.37462
124.39241,0.36809
124.15134,0.36290
123.91027,0.35857
123.66920,0.35346
123.42812,0.34754
123.18705,0.34292
122.94598,0.34121
122.70491,0.34208
122.46384,0.34425
122.22277,0.34617
121.98170,0.34647
121.74063,0.34547
121.49956,0.34575
121.25849,0.34960
121.01742,0.35686
120.77635,0.36613
120.53528,0.37694
120.29421,0.38943
120.05314,0.40330
119.81207,0.41801
119.57100,0.43356
119.32993,0.45096
119.08885,0.47134
118.84778,0.49466
118.60671,0.51980
118.36564,0.54529
118.12457,0.56938
117.88350,0.59111
117.64243,0.61188
117.40136,0.63322
117.16029,0.65306
116.91922,0.66683
116.67815,0.67114
116.43708,0.66546
116.19601,0.65278
115.95494,0.63820
115.71387,0.62476
115.47280,0.61190
115.23173,0.59884
114.99066,0.58687
114.74958,0.57687
114.50851,0.56714
114.26744,0.55612
114.02637,0.54609
113.78530,0.54131
113.54423,0.54246
113.30316,0.54586
113.06209,0.54881
112.82102,0.55227
112.57995,0.55781
112.33888,0.56488
112.09781,0.57147
111.85674,0.57686
111.61567,0.58235
111.37460,0.58854
111.13353,0.59337
110.89246,0.59524
110.65139,0.59645
110.41031,0.59898
110.16924,0.59925
109.92817,0.59166
109.68710,0.57591
109.44603,0.55685
109.20496,0.53862
108.96389,0.52158
108.72282,0.50412
108.48175,0.48554
108.24068,0.46650
107.99961,0.44777
107.75854,0.42964
107.51747,0.41272
107.27640,0.39815
107.03533,0.38599
106.79426,0.37435
106.55319,0.36159
106.31212,0.34841
106.07104,0.33652
105.82997,0.32611
105.58890,0.31610
105.34783,0.30588
105.10676,0.29548
104.86569,0.28496
104.62462,0.27457
104.38355,0.26509
104.14248,0.25756
103.90141,0.25238
103.66034,0.24861
103.41927,0.24470
103.17820,0.23996
102.93713,0.23489
102.69606,0.23012
102.45499,0.22574
102.21392,0.22141
101.97285,0.21705
101.73177,0.21320
101.49070,0.21044
101.24963,0.20866
101.00856,0.20718
100.76749,0.20513
100.52642,0.20160
100.28535,0.19644
100.04428,0.19121
99.80321,0.18807
99.56214,0.18745
99.32107,0.18757
99.08000,0.18680
98.83893,0.18557
98.59786,0.18532
98.35679,0.18638
98.11572,0.18776
97.87465,0.18856
97.63358,0.18886
97.39250,0.18927
97.15143,0.19017
96.91036,0.19187
96.66929,0.19502
96.42822,0.20024
96.18715,0.20735
95.94608,0.21548
95.70501,0.22374
95.46394,0.23165
95.22287,0.23919
94.98180,0.24626
94.74073,0.25187
94.49966,0.25491
94.25859,0.25606
94.01752,0.25724
93.77645,0.25902
93.53538,0.26038
93.29431,0.26098
93.05323,0.26146
92.81216,0.26228
92.57109,0.26383
92.33002,0.26685
92.08895,0.27120
91.84788,0.27545
91.60681,0.27897
91.36574,0.28375
91.12467,0.29307
90.88360,0.30915
90.64253,0.33243
90.40146,0.36257
90.16039,0.39867
89.91932,0.43849
89.67825,0.47895
89.43718,0.51796
89.19611,0.55371
88.95504,0.58215
88.71396,0.59836
88.47289,0.60023
88.23182,0.58715
87.99075,0.55808
87.74968,0.51624
87.50861,0.47097
87.26754,0.43009
87.02647,0.39462
86.78540,0.36202
86.54433,0.33114
86.30326,0.30325
86.06219,0.27982
85.82112,0.26059
85.58005,0.24371
85.33898,0.22755
85.09791,0.21230
84.85684,0.19922
84.61577,0.18838
84.37469,0.17817
84.13362,0.16748
83.89255,0.15722
83.65148,0.14894
83.41041,0.14278
83.16934,0.13774
82.92827,0.13324
82.68720,0.12960
82.44613,0.12693
82.20506,0.12450
81.96399,0.12153
81.72292,0.11809
81.48185,0.11525
81.24078,0.11424
80.99971,0.11521
80.75864,0.11654
80.51757,0.11636
80.27650,0.11482
80.03542,0.11353
79.79435,0.11307
79.55328,0.11261
79.31221,0.11147
79.07114,0.10965
78.83007,0.10728
78.58900,0.10470
78.34793,0.10212
78.10686,0.09922
77.86579,0.09579
77.62472,0.09261
77.38365,0.09053
77.14258,0.08952
76.90151,0.08929
76.66044,0.08997
76.41937,0.09124
76.17830,0.09168
75.93723,0.09023
75.69615,0.08770
75.45508,0.08583
75.21401,0.08517
74.97294,0.08479
74.73187,0.08368
74.49080,0.08198
74.24973,0.08062
74.00866,0.08014
73.76759,0.08036
73.52652,0.08116
73.28545,0.08266
73.04438,0.08438
72.80331,0.08524
72.56224,0.08458
72.32117,0.08311
72.08010,0.08274
71.83903,0.08542
71.59796,0.09130
71.35688,0.09826
71.11581,0.10386
70.87474,0.10770
70.63367,0.11163
70.39260,0.11796
70.15153,0.12771
69.91046,0.14004
69.66939,0.15285
69.42832,0.16381
69.18725,0.17084
68.94618,0.17225
68.70511,0.16752
68.46404,0.15801
68.22297,0.14592
67.98190,0.13277
67.74083,0.11971
67.49976,0.10839
67.25869,0.09993
67.01761,0.09382
66.77654,0.08930
66.53547,0.08644
66.29440,0.08514
66.05333,0.08433
65.81226,0.08327
65.57119,0.08246
65.33012,0.08307
65.08905,0.08593
64.84798,0.09088
64.60691,0.09689
64.36584,0.10289
64.12477,0.10781
63.88370,0.11041
63.64263,0.11016
63.40156,0.10773
63.16049,0.10355
62.91942,0.09730
62.67834,0.08937
62.43727,0.08170
62.19620,0.07632
61.95513,0.07387
61.71406,0.07344
61.47299,0.07346
61.23192,0.07270
60.99085,0.07066
60.74978,0.06808
60.50871,0.06682
60.26764,0.06831
60.02657,0.07176
59.78550,0.07488
59.54443,0.07643
59.30336,0.07689
59.06229,0.07683
58.82122,0.07608
58.58015,0.07443
58.33907,0.07194
58.09800,0.06897
57.85693,0.06614
57.61586,0.06411
57.37479,0.06336
57.13372,0.06399
56.89265,0.06495
56.65158,0.06411
56.41051,0.06037
56.16944,0.05542
55.92837,0.05221
55.68730,0.05222
55.44623,0.05440
55.20516,0.05648
54.96409,0.05716
54.72302,0.05694
54.48195,0.05704
54.24088,0.05791
53.99980,0.05903
53.75873,0.05989
53.51766,0.06096
53.27659,0.06293
53.03552,0.06518
52.79445,0.06581
52.55338,0.06383
52.31231,0.06016
52.07124,0.05616
51.83017,0.05242
51.58910,0.04948
51.34803,0.04774
51.10696,0.04695
50.86589,0.04683
50.62482,0.04807
50.38375,0.05115
50.14268,0.05456
49.90161,0.05579
49.66053,0.05427
49.41946,0.05165
49.17839,0.04934
48.93732,0.04746
48.69625,0.04566
48.45518,0.04346
48.21411,0.04124
47.97304,0.04080
47.73197,0.04313
47.49090,0.04577
47.24983,0.04456
47.00876,0.03836
46.76769,0.03045
46.52662,0.02495
46.28555,0.02322
46.04448,0.02473
45.80341,0.02954
45.56234,0.03741
45.32126,0.04541
45.08019,0.04991
44.83912,0.05080
44.59805,0.05060
44.35698,0.05049
44.11591,0.05005
43.87484,0.04919
43.63377,0.04814
43.39270,0.04687
43.15163,0.04519
42.91056,0.04297
42.66949,0.04070
42.42842,0.03989
42.18735,0.04182
41.94628,0.04516
41.70521,0.04618
41.46414,0.04223
41.22307,0.03585
40.98199,0.03327
40.74092,0.03707
40.49985,0.04342
40.25878,0.04762
40.01771,0.04927
39.77664,0.05044
39.53557,0.05293
39.29450,0.05849
39.05343,0.06781
38.81236,0.07857
38.57129,0.08633
38.33022,0.08865
38.08915,0.08901
37.84808,0.09331
37.60701,0.10079
37.36594,0.10410
37.12487,0.09966
36.88380,0.09171
36.64272,0.08429
36.40165,0.07650
36.16058,0.06836
35.91951,0.06433
35.67844,0.06679
35.43737,0.07360
35.19630,0.08345
34.95523,0.09426
34.71416,0.09787
34.47309,0.08799
34.23202,0.07362
33.99095,0.07324
33.74988,0.09188
33.50881,0.11230
33.26774,0.11952
33.02667,0.12167
32.78560,0.13528
32.54453,0.15989
32.30345,0.17634
32.06238,0.17036
31.82131,0.14748
31.58024,0.12621
31.33917,0.11929
31.09810,0.11982
30.85703,0.11172
30.61596,0.09047
30.37489,0.06704
30.13382,0.05299
29.89275,0.04899
29.65168,0.05224
29.41061,0.06452
29.16954,0.09084
28.92847,0.13661
28.68740,0.19285
28.44633,0.22797
28.20526,0.21902
27.96418,0.18110
27.72311,0.14913
27.48204,0.14279
27.24097,0.15706
26.99990,0.17822
26.75883,0.19527
26.51776,0.20611
26.27669,0.21262
26.03562,0.21490
25.79455,0.22886
25.55348,0.26263
25.31241,0.30935
25.07134,0.35021
24.83027,0.34680
24.58920,0.29672
24.34813,0.24391
24.10706,0.23384
23.86599,0.28509
23.62491,0.37888
23.38384,0.46649
23.14277,0.49564
22.90170,0.45950
22.66063,0.41152
22.41956,0.40074
22.17849,0.40981
21.93742,0.39925
21.69635,0.35922
21.45528,0.31619
21.21421,0.30283
20.97314,0.32439
20.73207,0.35848
20.49100,0.38509
20.24993,0.39648
20.00886,0.40135
19.76779,0.41605
19.52672,0.43811
19.28564,0.45295
19.04457,0.48106
18.80350,0.56310
18.56243,0.68227
18.32136,0.73175
18.08029,0.66569
17.83922,0.58595
17.59815,0.56564
17.35708,0.59646
17.11601,0.60820
16.87494,0.60390
16.63387,0.63769
16.39280,0.69218
16.15173,0.76124
15.91066,0.86395
15.66959,0.87698
15.42852,0.72605
15.18745,0.62328
14.94637,0.66386
14.70530,0.75001
14.46423,0.82044
14.22316,0.85076
13.98209,0.83944
13.74102,0.77481
13.49995,0.69959
13.25888,0.67616
13.01781,0.67442
12.77674,0.63007
12.53567,0.57056
12.29460,0.51722
12.05353,0.50890
11.81246,0.59174
11.57139,0.88320
11.33032,1.27721
11.08925,0.86147
10.84818,0.74145
10.60710,0.93085
10.36603,1.16250
10.12496,0.86324
9.88389,0.65641
9.64282,0.54121
9.40175,0.47180
9.16068,0.48350
8.91961,0.57778
8.67854,0.62596
8.43747,0.59816
8.19640,0.56933
7.95533,0.62203
7.71426,0.80516
7.47319,0.94562
7.23212,0.80426
6.99105,0.75783
6.74998,0.71111
6.50891,0.66888
6.26783,0.51889
6.02676,0.40344
5.78569,0.38980
5.54462,0.43210
5.30355,0.49305
5.06248,0.53991
4.82141,0.49126
4.58034,0.60242
4.33927,0.91478
4.09820,0.84346
3.85713,0.67274
3.61606,0.69050
3.37499,0.76150
3.13392,0.82863
2.89285,0.94078
2.65178,0.88519
2.41071,0.83026
2.16964,0.84008
1.92856,0.90250
1.68749,1.02189
1.44642,0.99231
1.20535,0.87147
0.96428,0.76377
0.72321,0.64671
0.48214,0.52702
0.24107,0.37619
-0.00000,0.37150
