399.69498,1.44110
399.45391,1.45080
399.21284,1.46565
398.97177,1.47597
398.73070,1.47445
398.48963,1.46647
398.24856,1.46145
398.00749,1.45954
397.76642,1.45470
397.52535,1.44770
397.28428,1.44635
397.04321,1.45238
396.80214,1.45639
396.56107,1.45026
396.32000,1.43820
396.07892,1.42968
395.83785,1.42822
395.59678,1.43113
395.35571,1.43448
395.11464,1.43759
394.87357,1.44338
394.63250,1.45322
394.39143,1.46153
394.15036,1.46001
393.90929,1.44974
393.66822,1.44032
393.42715,1.43739
393.18608,1.43884
392.94501,1.44018
392.70394,1.43888
392.46287,1.43567
392.22180,1.43369
391.98073,1.43557
391.73965,1.43970
391.49858,1.44037
391.25751,1.43365
391.01644,1.42327
390.77537,1.41713
390.53430,1.41676
390.29323,1.41496
390.05216,1.40677
389.81109,1.39706
389.57002,1.39270
389.32895,1.39433
389.08788,1.39801
388.84681,1.40114
388.60574,1.40379
388.36467,1.40570
388.12360,1.40547
387.88253,1.40154
387.64146,1.39306
387.40038,1.38071
387.15931,1.36614
386.91824,1.35206
386.67717,1.34186
386.43610,1.33522
386.19503,1.32707
385.95396,1.31300
385.71289,1.29387
385.47182,1.27745
385.23075,1.27027
384.98968,1.26977
384.74861,1.27027
384.50754,1.26984
384.26647,1.26861
384.02540,1.26622
383.78433,1.26175
383.54326,1.25503
383.30219,1.24662
383.06111,1.23670
382.82004,1.22621
382.57897,1.21779
382.33790,1.21184
382.09683,1.20403
381.85576,1.19155
381.61469,1.17843
381.37362,1.16918
381.13255,1.16381
380.89148,1.16392
380.65041,1.17444
380.40934,1.19453
380.16827,1.21304
379.92720,1.21868
379.68613,1.21291
379.44506,1.20422
379.20399,1.19515
378.96292,1.18527
378.72184,1.18222
378.48077,1.19687
378.23970,1.22652
377.99863,1.25252
377.75756,1.26155
377.51649,1.25795
377.27542,1.25316
377.03435,1.25523
376.79328,1.26472
376.55221,1.27791
376.31114,1.29100
376.07007,1.30110
375.82900,1.30647
375.58793,1.30736
375.34686,1.30683
375.10579,1.30977
374.86472,1.31685
374.62365,1.32008
374.38257,1.31208
374.14150,1.29838
373.90043,1.29224
373.65936,1.29952
373.41829,1.31336
373.17722,1.32245
372.93615,1.32376
372.69508,1.32395
372.45401,1.32675
372.21294,1.32883
371.97187,1.32858
371.73080,1.32913
371.48973,1.33178
371.24866,1.33309
371.00759,1.33036
370.76652,1.32519
370.52545,1.32122
370.28437,1.32148
370.04330,1.32551
369.80223,1.32853
369.56116,1.32750
369.32009,1.32428
369.07902,1.32043
368.83795,1.31628
368.59688,1.31432
368.35581,1.31682
368.11474,1.32136
367.87367,1.32204
367.63260,1.31543
367.39153,1.30409
367.15046,1.29453
366.90939,1.29116
366.66832,1.29227
366.42725,1.29302
366.18618,1.29190
365.94510,1.29140
365.70403,1.29262
365.46296,1.29235
365.22189,1.28700
364.98082,1.27878
364.73975,1.27427
364.49868,1.27578
364.25761,1.27761
364.01654,1.27347
363.77547,1.26433
363.53440,1.25565
363.29333,1.25088
363.05226,1.24945
362.81119,1.24864
362.57012,1.24705
362.32905,1.24574
362.08798,1.24445
361.84691,1.24034
361.60583,1.23342
361.36476,1.22749
361.12369,1.22351
360.88262,1.21893
360.64155,1.21451
360.40048,1.21425
360.15941,1.21855
359.91834,1.22287
359.67727,1.22304
359.43620,1.21952
359.19513,1.21670
358.95406,1.21785
358.71299,1.22028
358.47192,1.21816
358.23085,1.21186
357.98978,1.20858
357.74871,1.21193
357.50764,1.21715
357.26656,1.21737
357.02549,1.21100
356.78442,1.20066
356.54335,1.18949
356.30228,1.18171
356.06121,1.18237
355.82014,1.19231
355.57907,1.20457
355.33800,1.20971
355.09693,1.20622
354.85586,1.20150
354.61479,1.20199
354.37372,1.20698
354.13265,1.21093
353.89158,1.20889
353.65051,1.20091
353.40944,1.19220
353.16837,1.18841
352.92729,1.19032
352.68622,1.19499
352.44515,1.20038
352.20408,1.20538
351.96301,1.20755
351.72194,1.20612
351.48087,1.20429
351.23980,1.20325
350.99873,1.19902
350.75766,1.18978
350.51659,1.18010
350.27552,1.17445
350.03445,1.17250
349.79338,1.17259
349.55231,1.17450
349.31124,1.17747
349.07017,1.17969
348.82910,1.18137
348.58802,1.18611
348.34695,1.19609
348.10588,1.20628
347.86481,1.20884
347.62374,1.20408
347.38267,1.20035
347.14160,1.20256
346.90053,1.20706
346.65946,1.20854
346.41839,1.20719
346.17732,1.20587
345.93625,1.20478
345.69518,1.20276
345.45411,1.20191
345.21304,1.20706
344.97197,1.21920
344.73090,1.23259
344.48983,1.24115
344.24875,1.24414
344.00768,1.24318
343.76661,1.23874
343.52554,1.23093
343.28447,1.22156
343.04340,1.21543
342.80233,1.21795
342.56126,1.22976
342.32019,1.24478
342.07912,1.25554
341.83805,1.25933
341.59698,1.25869
341.35591,1.25819
341.11484,1.26030
340.87377,1.26337
340.63270,1.26542
340.39163,1.26816
340.15056,1.27333
339.90948,1.27829
339.66841,1.27987
339.42734,1.27966
339.18627,1.28097
338.94520,1.28388
338.70413,1.28750
338.46306,1.29334
338.22199,1.30192
337.98092,1.30972
337.73985,1.31499
337.49878,1.32234
337.25771,1.33353
337.01664,1.34193
336.77557,1.34104
336.53450,1.33109
336.29343,1.31562
336.05236,1.29921
335.81129,1.28793
335.57021,1.28581
335.32914,1.29044
335.08807,1.29516
334.84700,1.29487
334.60593,1.28970
334.36486,1.28316
334.12379,1.27618
333.88272,1.26730
333.64165,1.25806
333.40058,1.25311
333.15951,1.25451
332.91844,1.25857
332.67737,1.25848
332.43630,1.25145
332.19523,1.24283
331.95416,1.24079
331.71309,1.24716
331.47202,1.25427
331.23094,1.25354
330.98987,1.24573
330.74880,1.23850
330.50773,1.23663
330.26666,1.23652
330.02559,1.23112
329.78452,1.21957
329.54345,1.20899
329.30238,1.20469
329.06131,1.20175
328.82024,1.19425
328.57917,1.18491
328.33810,1.17771
328.09703,1.17244
327.85596,1.17004
327.61489,1.17445
327.37382,1.18628
327.13275,1.20033
326.89167,1.21114
326.65060,1.21715
326.40953,1.21789
326.16846,1.21267
325.92739,1.20430
325.68632,1.19812
325.44525,1.19536
325.20418,1.19278
324.96311,1.18890
324.72204,1.18683
324.48097,1.18984
324.23990,1.19549
323.99883,1.19664
323.75776,1.19027
323.51669,1.18243
323.27562,1.18097
323.03455,1.18675
322.79348,1.19446
322.55240,1.19935
322.31133,1.19987
322.07026,1.19672
321.82919,1.19304
321.58812,1.19322
321.34705,1.19955
321.10598,1.21003
320.86491,1.22023
320.62384,1.22622
320.38277,1.22491
320.14170,1.21525
319.90063,1.20015
319.65956,1.18668
319.41849,1.18244
319.17742,1.18938
318.93635,1.20161
318.69528,1.20959
318.45421,1.20771
318.21313,1.19861
317.97206,1.19052
317.73099,1.19048
317.48992,1.19718
317.24885,1.20177
317.00778,1.19937
316.76671,1.19529
316.52564,1.19649
316.28457,1.20402
316.04350,1.21443
315.80243,1.22153
315.56136,1.21861
315.32029,1.20670
315.07922,1.19683
314.83815,1.19815
314.59708,1.20850
314.35601,1.21910
314.11494,1.22337
313.87386,1.22066
313.63279,1.21686
313.39172,1.22070
313.15065,1.23587
312.90958,1.25636
312.66851,1.27183
312.42744,1.27794
312.18637,1.27682
311.94530,1.27181
311.70423,1.26647
311.46316,1.26320
311.22209,1.26110
310.98102,1.25769
310.73995,1.25311
310.49888,1.25119
310.25781,1.25538
310.01674,1.26465
309.77567,1.27316
309.53459,1.27478
309.29352,1.26997
309.05245,1.26555
308.81138,1.26685
308.57031,1.27278
308.32924,1.27757
308.08817,1.27709
307.84710,1.27372
307.60603,1.27373
307.36496,1.28080
307.12389,1.29181
306.88282,1.29847
306.64175,1.29510
306.40068,1.28463
306.15961,1.27653
305.91854,1.27655
305.67747,1.27993
305.43640,1.28026
305.19532,1.27941
304.95425,1.28167
304.71318,1.28552
304.47211,1.28710
304.23104,1.28585
303.98997,1.28259
303.74890,1.27767
303.50783,1.27239
303.26676,1.26780
303.02569,1.26336
302.78462,1.26016
302.54355,1.26200
302.30248,1.26999
302.06141,1.27880
301.82034,1.28083
301.57927,1.27438
301.33820,1.26590
301.09713,1.26136
300.85605,1.26069
300.61498,1.26055
300.37391,1.25909
300.13284,1.25707
299.89177,1.25501
299.65070,1.25178
299.40963,1.24637
299.16856,1.23929
298.92749,1.23209
298.68642,1.22589
298.44535,1.22135
298.20428,1.22012
297.96321,1.22399
297.72214,1.23041
297.48107,1.23184
297.24000,1.22461
296.99893,1.21448
296.75786,1.20883
296.51678,1.20883
296.27571,1.21090
296.03464,1.21118
295.79357,1.20814
295.55250,1.20394
295.31143,1.20147
295.07036,1.19993
294.82929,1.19664
294.58822,1.19195
294.34715,1.18890
294.10608,1.18945
293.86501,1.19258
293.62394,1.19398
293.38287,1.18962
293.14180,1.18099
292.90073,1.17392
292.65966,1.17172
292.41859,1.17296
292.17751,1.17480
291.93644,1.17511
291.69537,1.17295
291.45430,1.16980
291.21323,1.16888
290.97216,1.17123
290.73109,1.17422
290.49002,1.17373
290.24895,1.16757
290.00788,1.15845
289.76681,1.15180
289.52574,1.14993
289.28467,1.15014
289.04360,1.14901
288.80253,1.14590
288.56146,1.14131
288.32039,1.13602
288.07932,1.13255
287.83824,1.13347
287.59717,1.13831
287.35610,1.14425
287.11503,1.14917
286.87396,1.15190
286.63289,1.15080
286.39182,1.14537
286.15075,1.13860
285.90968,1.13408
285.66861,1.13132
285.42754,1.12748
285.18647,1.12340
284.94540,1.12277
284.70433,1.12549
284.46326,1.12766
284.22219,1.12763
283.98112,1.12661
283.74005,1.12473
283.49897,1.12188
283.25790,1.11993
283.01683,1.11991
282.77576,1.12047
282.53469,1.12091
282.29362,1.12221
282.05255,1.12351
281.81148,1.12179
281.57041,1.11665
281.32934,1.11167
281.08827,1.10990
280.84720,1.11071
280.60613,1.11178
280.36506,1.11239
280.12399,1.11313
279.88292,1.11374
279.64185,1.11370
279.40078,1.11318
279.15970,1.11203
278.91863,1.10969
278.67756,1.10689
278.43649,1.10590
278.19542,1.10793
277.95435,1.11167
277.71328,1.11458
277.47221,1.11462
277.23114,1.11148
276.99007,1.10743
276.74900,1.10587
276.50793,1.10769
276.26686,1.11052
276.02579,1.11264
275.78472,1.11490
275.54365,1.11787
275.30258,1.11992
275.06151,1.11972
274.82043,1.11820
274.57936,1.11698
274.33829,1.11626
274.09722,1.11519
273.85615,1.11385
273.61508,1.11314
273.37401,1.11279
273.13294,1.11198
272.89187,1.11198
272.65080,1.11511
272.40973,1.12082
272.16866,1.12542
271.92759,1.12671
271.68652,1.12629
271.44545,1.12680
271.20438,1.12878
270.96331,1.13045
270.72224,1.13054
270.48116,1.13075
270.24009,1.13360
269.99902,1.13885
269.75795,1.14383
269.51688,1.14635
269.27581,1.14668
269.03474,1.14729
268.79367,1.15049
268.55260,1.15648
268.31153,1.16363
268.07046,1.16986
267.82939,1.17399
267.58832,1.17664
267.34725,1.17928
267.10618,1.18251
266.86511,1.18677
266.62404,1.19330
266.38297,1.20115
266.14189,1.20545
265.90082,1.20363
265.65975,1.20066
265.41868,1.20325
265.17761,1.21230
264.93654,1.22335
264.69547,1.23170
264.45440,1.23651
264.21333,1.24191
263.97226,1.25282
263.73119,1.26794
263.49012,1.27955
263.24905,1.28290
263.00798,1.28288
262.76691,1.28777
262.52584,1.29958
262.28477,1.31363
262.04370,1.32622
261.80262,1.33913
261.56155,1.35520
261.32048,1.37270
261.07941,1.38689
260.83834,1.39554
260.59727,1.40174
260.35620,1.41165
260.11513,1.43003
259.87406,1.45574
259.63299,1.48169
259.39192,1.50343
259.15085,1.52586
258.90978,1.55492
258.66871,1.58606
258.42764,1.60812
258.18657,1.61814
257.94550,1.62322
257.70443,1.63060
257.46335,1.64433
257.22228,1.66581
256.98121,1.69141
256.74014,1.71435
256.49907,1.72926
256.25800,1.72927
256.01693,1.71440
255.77586,1.69741
255.53479,1.68777
255.29372,1.68573
255.05265,1.68761
254.81158,1.68745
254.57051,1.67744
254.32944,1.65373
254.08837,1.62313
253.84730,1.59999
253.60623,1.59267
253.36516,1.59476
253.12408,1.59282
252.88301,1.58115
252.64194,1.56445
252.40087,1.54925
252.15980,1.53954
251.91873,1.53576
251.67766,1.53296
251.43659,1.52452
251.19552,1.51066
250.95445,1.49858
250.71338,1.49429
250.47231,1.49805
250.23124,1.50575
249.99017,1.51332
249.74910,1.52030
249.50803,1.52594
249.26696,1.52666
249.02589,1.52278
248.78481,1.51889
248.54374,1.51571
248.30267,1.50863
248.06160,1.49789
247.82053,1.49274
247.57946,1.50075
247.33839,1.51741
247.09732,1.52941
246.85625,1.53049
246.61518,1.53001
246.37411,1.54197
246.13304,1.56978
245.89197,1.60514
245.65090,1.63655
245.40983,1.65423
245.16876,1.65831
244.92769,1.66167
244.68661,1.68026
244.44554,1.72146
244.20447,1.77594
243.96340,1.82475
243.72233,1.86033
243.48126,1.88873
243.24019,1.91401
242.99912,1.93163
242.75805,1.92198
242.51698,1.86643
242.27591,1.78224
242.03484,1.69633
241.79377,1.62039
241.55270,1.55830
241.31163,1.51174
241.07056,1.48025
240.82949,1.45837
240.58842,1.43578
240.34734,1.40702
240.10627,1.37711
239.86520,1.35071
239.62413,1.32424
239.38306,1.29408
239.14199,1.26405
238.90092,1.23861
238.65985,1.21600
238.41878,1.19262
238.17771,1.16886
237.93664,1.14675
237.69557,1.12667
237.45450,1.10927
237.21343,1.09650
236.97236,1.08848
236.73129,1.08202
236.49022,1.07381
236.24915,1.06343
236.00807,1.05211
235.76700,1.04073
235.52593,1.03039
235.28486,1.02255
235.04379,1.01671
234.80272,1.01003
234.56165,1.00081
234.32058,0.99068
234.07951,0.98255
233.83844,0.97738
233.59737,0.97345
233.35630,0.96823
233.11523,0.96061
232.87416,0.95154
232.63309,0.94294
232.39202,0.93649
232.15095,0.93265
231.90988,0.93000
231.66880,0.92591
231.42773,0.91931
231.18666,0.91239
230.94559,0.90825
230.70452,0.90749
230.46345,0.90807
230.22238,0.90748
229.98131,0.90405
229.74024,0.89793
229.49917,0.89186
229.25810,0.88838
229.01703,0.88610
228.77596,0.88202
228.53489,0.87750
228.29382,0.87713
228.05275,0.88180
227.81168,0.88679
227.57061,0.88662
227.32953,0.87977
227.08846,0.86926
226.84739,0.86008
226.60632,0.85562
226.36525,0.85573
226.12418,0.85783
225.88311,0.85902
225.64204,0.85745
225.40097,0.85333
225.15990,0.84862
224.91883,0.84507
224.67776,0.84301
224.43669,0.84195
224.19562,0.84124
223.95455,0.84073
223.71348,0.84082
223.47241,0.84180
223.23134,0.84344
222.99026,0.84553
222.74919,0.84831
222.50812,0.85185
222.26705,0.85561
222.02598,0.85885
221.78491,0.86122
221.54384,0.86297
221.30277,0.86483
221.06170,0.86770
220.82063,0.87239
220.57956,0.87934
220.33849,0.88842
220.09742,0.89836
219.85635,0.90656
219.61528,0.91074
219.37421,0.91198
219.13314,0.91504
218.89207,0.92377
218.65099,0.93700
218.40992,0.95020
218.16885,0.96043
217.92778,0.96793
217.68671,0.97404
217.44564,0.98016
217.20457,0.98814
216.96350,0.99907
216.72243,1.01166
216.48136,1.02371
216.24029,1.03494
215.99922,1.04645
215.75815,1.05813
215.51708,1.06882
215.27601,1.07872
215.03494,1.08962
214.79387,1.10227
214.55280,1.11417
214.31172,1.12199
214.07065,1.12640
213.82958,1.13135
213.58851,1.13851
213.34744,1.14645
213.10637,1.15414
212.86530,1.16071
212.62423,1.16422
212.38316,1.16515
212.14209,1.16877
211.90102,1.17872
211.65995,1.19039
211.41888,1.19563
211.17781,1.19289
210.93674,1.18859
210.69567,1.18952
210.45460,1.19680
210.21353,1.20553
209.97245,1.20910
209.73138,1.20626
209.49031,1.20312
209.24924,1.20623
209.00817,1.21518
208.76710,1.22238
208.52603,1.22018
208.28496,1.20862
208.04389,1.19449
207.80282,1.18371
207.56175,1.17775
207.32068,1.17534
207.07961,1.17342
206.83854,1.16800
206.59747,1.15801
206.35640,1.14743
206.11533,1.14053
205.87426,1.13614
205.63318,1.12912
205.39211,1.11672
205.15104,1.10171
204.90997,1.08937
204.66890,1.08180
204.42783,1.07572
204.18676,1.06621
203.94569,1.05300
203.70462,1.04113
203.46355,1.03433
203.22248,1.03124
202.98141,1.02732
202.74034,1.01808
202.49927,1.00296
202.25820,0.98624
202.01713,0.97184
201.77606,0.95949
201.53499,0.94745
201.29391,0.93601
201.05284,0.92604
200.81177,0.91629
200.57070,0.90486
200.32963,0.89206
200.08856,0.87969
199.84749,0.86825
199.60642,0.85700
199.36535,0.84593
199.12428,0.83594
198.88321,0.82702
198.64214,0.81798
198.40107,0.80864
198.16000,0.80019
197.91893,0.79261
197.67786,0.78422
197.43679,0.77470
197.19572,0.76636
196.95464,0.76056
196.71357,0.75533
196.47250,0.74814
196.23143,0.73918
195.99036,0.73092
195.74929,0.72469
195.50822,0.71895
195.26715,0.71143
195.02608,0.70231
194.78501,0.69396
194.54394,0.68784
194.30287,0.68278
194.06180,0.67664
193.82073,0.66915
193.57966,0.66223
193.33859,0.65711
193.09752,0.65262
192.85645,0.64726
192.61537,0.64164
192.37430,0.63701
192.13323,0.63304
191.89216,0.62912
191.65109,0.62594
191.41002,0.62388
191.16895,0.62150
190.92788,0.61792
190.68681,0.61457
190.44574,0.61252
190.20467,0.61023
189.96360,0.60598
189.72253,0.60080
189.48146,0.59659
189.24039,0.59332
188.99932,0.58984
188.75825,0.58620
188.51718,0.58300
188.27610,0.57997
188.03503,0.57646
187.79396,0.57286
187.55289,0.57011
187.31182,0.56859
187.07075,0.56824
186.82968,0.56886
186.58861,0.56975
186.34754,0.57016
186.10647,0.57021
185.86540,0.57042
185.62433,0.57049
185.38326,0.56968
185.14219,0.56828
184.90112,0.56721
184.66005,0.56620
184.41898,0.56400
184.17791,0.56072
183.93683,0.55856
183.69576,0.55924
183.45469,0.56175
183.21362,0.56405
182.97255,0.56595
182.73148,0.56837
182.49041,0.57109
182.24934,0.57288
182.00827,0.57276
181.76720,0.57046
181.52613,0.56696
181.28506,0.56422
181.04399,0.56321
180.80292,0.56347
180.56185,0.56497
180.32078,0.56817
180.07971,0.57241
179.83864,0.57634
179.59756,0.57963
179.35649,0.58269
179.11542,0.58568
178.87435,0.58867
178.63328,0.59195
178.39221,0.59601
178.15114,0.60154
177.91007,0.60914
177.66900,0.61876
177.42793,0.62964
177.18686,0.64082
176.94579,0.65190
176.70472,0.66330
176.46365,0.67555
176.22258,0.68853
175.98151,0.70202
175.74044,0.71636
175.49937,0.73171
175.25829,0.74724
175.01722,0.76218
174.77615,0.77660
174.53508,0.79087
174.29401,0.80537
174.05294,0.82095
173.81187,0.83787
173.57080,0.85429
173.32973,0.86756
173.08866,0.87744
172.84759,0.88620
172.60652,0.89568
172.36545,0.90565
172.12438,0.91402
171.88331,0.91783
171.64224,0.91547
171.40117,0.90878
171.16010,0.90275
170.91902,0.90150
170.67795,0.90433
170.43688,0.90643
170.19581,0.90400
169.95474,0.89775
169.71367,0.89000
169.47260,0.88104
169.23153,0.87112
168.99046,0.86276
168.74939,0.85789
168.50832,0.85531
168.26725,0.85271
168.02618,0.84951
167.78511,0.84664
167.54404,0.84478
167.30297,0.84392
167.06190,0.84410
166.82083,0.84547
166.57975,0.84787
166.33868,0.85090
166.09761,0.85420
165.85654,0.85710
165.61547,0.85927
165.37440,0.86172
165.13333,0.86608
164.89226,0.87307
164.65119,0.88260
164.41012,0.89409
164.16905,0.90568
163.92798,0.91523
163.68691,0.92320
163.44584,0.93216
163.20477,0.94257
162.96370,0.95237
162.72263,0.96048
162.48156,0.96767
162.24048,0.97366
161.99941,0.97680
161.75834,0.97729
161.51727,0.97825
161.27620,0.98215
161.03513,0.98774
160.79406,0.99102
160.55299,0.98984
160.31192,0.98620
160.07085,0.98328
159.82978,0.98218
159.58871,0.98167
159.34764,0.97953
159.10657,0.97398
158.86550,0.96507
158.62443,0.95577
158.38336,0.95037
158.14229,0.95032
157.90121,0.95233
157.66014,0.95140
157.41907,0.94591
157.17800,0.93906
156.93693,0.93483
156.69586,0.93432
156.45479,0.93516
156.21372,0.93362
155.97265,0.92817
155.73158,0.92074
155.49051,0.91422
155.24944,0.90970
155.00837,0.90567
154.76730,0.89939
154.52623,0.88938
154.28516,0.87712
154.04409,0.86593
153.80302,0.85763
153.56194,0.85023
153.32087,0.84010
153.07980,0.82645
152.83873,0.81184
152.59766,0.79827
152.35659,0.78537
152.11552,0.77216
151.87445,0.75850
151.63338,0.74463
151.39231,0.73073
151.15124,0.71734
150.91017,0.70504
150.66910,0.69323
150.42803,0.68042
150.18696,0.66649
149.94589,0.65349
149.70482,0.64300
149.46375,0.63409
149.22267,0.62476
148.98160,0.61503
148.74053,0.60673
148.49946,0.60042
148.25839,0.59464
148.01732,0.58864
147.77625,0.58370
147.53518,0.58069
147.29411,0.57830
147.05304,0.57463
146.81197,0.56970
146.57090,0.56557
146.32983,0.56433
146.08876,0.56578
145.84769,0.56725
145.60662,0.56700
145.36555,0.56686
145.12448,0.56961
144.88340,0.57476
144.64233,0.57931
144.40126,0.58227
144.16019,0.58526
143.91912,0.58892
143.67805,0.59178
143.43698,0.59242
143.19591,0.59054
142.95484,0.58604
142.71377,0.57905
142.47270,0.57040
142.23163,0.56069
141.99056,0.54998
141.74949,0.53914
141.50842,0.52991
141.26735,0.52312
141.02628,0.51802
140.78521,0.51347
140.54413,0.50924
140.30306,0.50585
140.06199,0.50379
139.82092,0.50310
139.57985,0.50383
139.33878,0.50599
139.09771,0.50912
138.85664,0.51264
138.61557,0.51681
138.37450,0.52252
138.13343,0.53016
137.89236,0.53959
137.65129,0.55057
137.41022,0.56244
137.16915,0.57423
136.92808,0.58614
136.68701,0.59977
136.44594,0.61642
136.20486,0.63586
135.96379,0.65685
135.72272,0.67827
135.48165,0.70003
135.24058,0.72305
134.99951,0.74783
134.75844,0.77351
134.51737,0.79924
134.27630,0.82519
134.03523,0.85088
133.79416,0.87448
133.55309,0.89538
133.31202,0.91518
133.07095,0.93533
132.82988,0.95510
132.58881,0.97197
132.34774,0.98308
132.10667,0.98779
131.86559,0.98883
131.62452,0.98860
131.38345,0.98550
131.14238,0.97656
130.90131,0.96230
130.66024,0.94567
130.41917,0.92801
130.17810,0.90900
129.93703,0.88903
129.69596,0.86900
129.45489,0.84866
129.21382,0.82718
128.97275,0.80462
128.73168,0.78142
128.49061,0.75762
128.24954,0.73374
128.00847,0.71126
127.76740,0.69141
127.52632,0.67378
127.28525,0.65676
127.04418,0.63936
126.80311,0.62211
126.56204,0.60610
126.32097,0.59126
126.07990,0.57646
125.83883,0.56118
125.59776,0.54663
125.35669,0.53467
125.11562,0.52573
124.87455,0.51849
124.63348,0.51130
124.39241,0.50354
124.15134,0.49558
123.91027,0.48786
123.66920,0.48029
123.42812,0.47266
123.18705,0.46558
122.94598,0.46010
122.70491,0.45645
122.46384,0.45396
122.22277,0.45201
121.98170,0.45042
121.74063,0.44935
121.49956,0.44942
121.25849,0.45141
121.01742,0.45537
120.77635,0.46067
120.53528,0.46674
120.29421,0.47346
120.05314,0.48120
119.81207,0.49067
119.57100,0.50256
119.32993,0.51733
119.08885,0.53542
118.84778,0.55703
118.60671,0.58186
118.36564,0.60968
118.12457,0.64035
117.88350,0.67181
117.64243,0.69930
117.40136,0.71862
117.16029,0.72962
116.91922,0.73533
116.67815,0.73915
116.43708,0.74348
116.19601,0.74849
115.95494,0.75102
115.71387,0.74690
115.47280,0.73546
115.23173,0.72006
114.99066,0.70429
114.74958,0.68990
114.50851,0.67839
114.26744,0.67214
114.02637,0.67244
113.78530,0.67679
113.54423,0.67961
113.30316,0.67660
113.06209,0.66852
112.82102,0.66051
112.57995,0.65832
112.33888,0.66510
112.09781,0.67974
111.85674,0.69715
111.61567,0.71130
111.37460,0.71963
111.13353,0.72457
110.89246,0.73018
110.65139,0.73769
110.41031,0.74427
110.16924,0.74583
109.92817,0.74064
109.68710,0.72943
109.44603,0.71278
109.20496,0.69189
108.96389,0.67126
108.72282,0.65601
108.48175,0.64617
108.24068,0.63632
107.99961,0.62113
107.75854,0.60021
107.51747,0.57731
107.27640,0.55639
107.03533,0.53929
106.79426,0.52593
106.55319,0.51516
106.31212,0.50427
106.07104,0.48975
105.82997,0.47138
105.58890,0.45392
105.34783,0.44261
105.10676,0.43798
104.86569,0.43494
104.62462,0.42711
104.38355,0.41354
104.14248,0.39941
103.90141,0.38967
103.66034,0.38420
103.41927,0.37926
103.17820,0.37246
102.93713,0.36490
102.69606,0.35889
102.45499,0.35512
102.21392,0.35221
101.97285,0.34762
101.73177,0.33974
101.49070,0.32994
101.24963,0.32174
101.00856,0.31733
100.76749,0.31539
100.52642,0.31255
100.28535,0.30705
100.04428,0.30059
99.80321,0.29609
99.56214,0.29402
99.32107,0.29181
99.08000,0.28711
98.83893,0.28131
98.59786,0.27785
98.35679,0.27744
98.11572,0.27677
97.87465,0.27345
97.63358,0.27041
97.39250,0.27174
97.15143,0.27613
96.91036,0.27841
96.66929,0.27767
96.42822,0.27912
96.18715,0.28614
95.94608,0.29557
95.70501,0.30270
95.46394,0.30783
95.22287,0.31407
94.98180,0.32151
94.74073,0.32791
94.49966,0.33264
94.25859,0.33619
94.01752,0.33757
93.77645,0.33586
93.53538,0.33295
93.29431,0.33144
93.05323,0.33106
92.81216,0.33028
92.57109,0.32996
92.33002,0.33104
92.08895,0.33129
91.84788,0.32993
91.60681,0.33120
91.36574,0.33806
91.12467,0.34829
90.88360,0.36062
90.64253,0.37827
90.40146,0.40346
90.16039,0.43486
89.91932,0.47117
89.67825,0.51094
89.43718,0.55094
89.19611,0.58913
88.95504,0.62452
88.71396,0.65262
88.47289,0.66755
88.23182,0.66630
87.99075,0.64749
87.74968,0.61403
87.50861,0.57584
87.26754,0.54222
87.02647,0.51453
86.78540,0.48918
86.54433,0.46418
86.30326,0.44048
86.06219,0.41924
85.82112,0.40030
85.58005,0.38296
85.33898,0.36641
85.09791,0.34982
84.85684,0.33345
84.61577,0.31895
84.37469,0.30734
84.13362,0.29787
83.89255,0.28935
83.65148,0.28133
83.41041,0.27375
83.16934,0.26669
82.92827,0.26031
82.68720,0.25462
82.44613,0.24975
82.20506,0.24615
81.96399,0.24391
81.72292,0.24219
81.48185,0.23986
81.24078,0.23671
80.99971,0.23366
80.75864,0.23149
80.51757,0.22986
80.27650,0.22787
80.03542,0.22511
79.79435,0.22201
79.55328,0.21948
79.31221,0.21834
79.07114,0.21838
78.83007,0.21840
78.58900,0.21741
78.34793,0.21486
78.10686,0.21023
77.86579,0.20400
77.62472,0.19819
77.38365,0.19441
77.14258,0.19233
76.90151,0.19075
76.66044,0.18909
76.41937,0.18748
76.17830,0.18619
75.93723,0.18525
75.69615,0.18418
75.45508,0.18222
75.21401,0.17895
74.97294,0.17505
74.73187,0.17235
74.49080,0.17262
74.24973,0.17580
74.00866,0.17985
73.76759,0.18270
73.52652,0.18387
73.28545,0.18406
73.04438,0.18391
72.80331,0.18337
72.56224,0.18200
72.32117,0.17976
72.08010,0.17749
71.83903,0.17629
71.59796,0.17634
71.35688,0.17705
71.11581,0.17845
70.87474,0.18173
70.63367,0.18809
70.39260,0.19797
70.15153,0.21170
69.91046,0.22999
69.66939,0.25262
69.42832,0.27600
69.18725,0.29319
68.94618,0.29800
68.70511,0.28991
68.46404,0.27363
68.22297,0.25451
67.98190,0.23534
67.74083,0.21695
67.49976,0.20035
67.25869,0.18732
67.01761,0.17856
66.77654,0.17222
66.53547,0.16572
66.29440,0.15860
66.05333,0.15247
65.81226,0.14886
65.57119,0.14843
65.33012,0.15141
65.08905,0.15809
64.84798,0.16859
64.60691,0.18246
64.36584,0.19794
64.12477,0.21131
63.88370,0.21802
63.64263,0.21584
63.40156,0.20704
63.16049,0.19622
62.91942,0.18664
62.67834,0.17940
62.43727,0.17494
62.19620,0.17349
61.95513,0.17438
61.71406,0.17634
61.47299,0.17820
61.23192,0.17869
60.99085,0.17673
60.74978,0.17247
60.50871,0.16720
60.26764,0.16155
60.02657,0.15505
59.78550,0.14790
59.54443,0.14217
59.30336,0.14083
59.06229,0.14614
58.82122,0.15822
58.58015,0.17393
58.33907,0.18685
58.09800,0.19042
57.85693,0.18286
57.61586,0.16865
57.37479,0.15485
57.13372,0.14715
56.89265,0.14789
56.65158,0.15548
56.41051,0.16467
56.16944,0.16869
55.92837,0.16394
55.68730,0.15287
55.44623,0.14135
55.20516,0.13501
54.96409,0.13820
54.72302,0.15261
54.48195,0.17299
54.24088,0.18499
53.99980,0.17800
53.75873,0.16128
53.51766,0.15199
53.27659,0.15877
53.03552,0.17951
52.79445,0.20139
52.55338,0.20609
52.31231,0.19003
52.07124,0.17048
51.83017,0.16510
51.58910,0.17810
51.34803,0.19669
51.10696,0.19778
50.86589,0.17625
50.62482,0.15455
50.38375,0.15333
50.14268,0.17412
49.90161,0.19510
49.66053,0.18997
49.41946,0.17079
49.17839,0.16769
48.93732,0.18483
48.69625,0.19624
48.45518,0.18386
48.21411,0.17049
47.97304,0.17870
47.73197,0.19962
47.49090,0.20416
47.24983,0.19184
47.00876,0.18811
46.76769,0.19410
46.52662,0.19009
46.28555,0.17714
46.04448,0.17132
45.80341,0.17010
45.56234,0.16613
45.32126,0.16615
45.08019,0.17164
44.83912,0.16965
44.59805,0.16050
44.35698,0.15977
44.11591,0.16919
43.87484,0.17764
43.63377,0.18154
43.39270,0.18309
43.15163,0.18310
42.91056,0.18445
42.66949,0.18838
42.42842,0.19023
42.18735,0.18788
41.94628,0.18503
41.70521,0.18232
41.46414,0.17644
41.22307,0.16966
40.98199,0.17013
40.74092,0.18135
40.49985,0.19701
40.25878,0.21046
40.01771,0.22342
39.77664,0.23715
39.53557,0.24709
39.29450,0.25165
39.05343,0.25441
38.81236,0.25818
38.57129,0.26495
38.33022,0.27392
38.08915,0.27794
37.84808,0.27311
37.60701,0.26682
37.36594,0.26499
37.12487,0.26324
36.88380,0.25508
36.64272,0.24191
36.40165,0.23275
36.16058,0.23330
35.91951,0.23899
35.67844,0.24007
35.43737,0.23031
35.19630,0.21091
34.95523,0.18930
34.71416,0.17175
34.47309,0.15825
34.23202,0.14746
33.99095,0.14019
33.74988,0.13484
33.50881,0.12762
33.26774,0.11954
33.02667,0.11639
32.78560,0.12198
32.54453,0.13442
32.30345,0.14405
32.06238,0.13847
31.82131,0.11617
31.58024,0.08815
31.33917,0.06437
31.09810,0.04668
30.85703,0.03385
30.61596,0.02581
30.37489,0.02082
30.13382,0.01390
29.89275,0.00280
29.65168,-0.00871
29.41061,-0.01714
29.16954,-0.02498
28.92847,-0.03797
28.68740,-0.05863
28.44633,-0.08307
28.20526,-0.10583
27.96418,-0.12614
27.72311,-0.14113
27.48204,-0.14304
27.24097,-0.13469
26.99990,-0.13227
26.75883,-0.14565
26.51776,-0.16846
26.27669,-0.18889
26.03562,-0.20070
25.79455,-0.20475
25.55348,-0.20630
25.31241,-0.20965
25.07134,-0.21739
24.83027,-0.23121
24.58920,-0.24707
24.34813,-0.25675
24.10706,-0.25756
23.86599,-0.25470
23.62491,-0.25470
23.38384,-0.26058
23.14277,-0.27062
22.90170,-0.28068
22.66063,-0.28966
22.41956,-0.29876
22.17849,-0.30552
21.93742,-0.30813
21.69635,-0.31138
21.45528,-0.31998
21.21421,-0.33263
20.97314,-0.34545
20.73207,-0.35393
20.49100,-0.35652
20.24993,-0.36189
20.00886,-0.37776
19.76779,-0.39609
19.52672,-0.40685
19.28564,-0.41373
19.04457,-0.41842
18.80350,-0.41308
18.56243,-0.39931
18.32136,-0.38852
18.08029,-0.38372
17.83922,-0.38105
17.59815,-0.38027
17.35708,-0.38692
17.11601,-0.40234
16.87494,-0.41739
16.63387,-0.42074
16.39280,-0.41297
16.15173,-0.40553
15.91066,-0.40690
15.66959,-0.41586
15.42852,-0.42528
15.18745,-0.43033
14.94637,-0.42979
14.70530,-0.42242
14.46423,-0.41008
14.22316,-0.39765
13.98209,-0.39075
13.74102,-0.39535
13.49995,-0.41140
13.25888,-0.42774
13.01781,-0.43351
12.77674,-0.43277
12.53567,-0.43496
12.29460,-0.44201
12.05353,-0.45369
11.81246,-0.46790
11.57139,-0.47477
11.33032,-0.46607
11.08925,-0.44735
10.84818,-0.42625
10.60710,-0.40456
10.36603,-0.38291
10.12496,-0.36510
9.88389,-0.35671
9.64282,-0.35685
9.40175,-0.35869
9.16068,-0.36068
8.91961,-0.36751
8.67854,-0.38003
8.43747,-0.39143
8.19640,-0.39213
7.95533,-0.38095
7.71426,-0.36627
7.47319,-0.35515
7.23212,-0.34911
6.99105,-0.35114
6.74998,-0.36560
6.50891,-0.38459
6.26783,-0.39284
6.02676,-0.38829
5.78569,-0.37820
5.54462,-0.37187
5.30355,-0.37749
5.06248,-0.39211
4.82141,-0.40303
4.58034,-0.40226
4.33927,-0.39128
4.09820,-0.37784
3.85713,-0.37431
3.61606,-0.38543
3.37499,-0.40186
3.13392,-0.41321
2.89285,-0.41923
2.65178,-0.41753
2.41071,-0.40805
2.16964,-0.39736
1.92856,-0.38291
1.68749,-0.36317
1.44642,-0.35109
1.20535,-0.35031
0.96428,-0.35461
0.72321,-0.38220
0.48214,-0.48321
0.24107,-0.54132
-0.00000,-0.11840
