399.69498,1.41845
399.45391,1.43503
399.21284,1.44756
398.97177,1.44982
398.73070,1.44761
398.48963,1.44938
398.24856,1.45361
398.00749,1.45475
397.76642,1.45390
397.52535,1.45688
397.28428,1.46299
397.04321,1.46397
396.80214,1.45506
396.56107,1.44120
396.32000,1.43137
396.07892,1.42805
395.83785,1.42680
395.59678,1.42514
395.35571,1.42654
395.11464,1.43424
394.87357,1.44336
394.63250,1.44505
394.39143,1.44017
394.15036,1.43932
393.90929,1.45034
393.66822,1.47051
393.42715,1.48789
393.18608,1.49239
392.94501,1.48548
392.70394,1.47640
392.46287,1.47189
392.22180,1.47137
391.98073,1.47030
391.73965,1.46534
391.49858,1.45838
391.25751,1.45203
391.01644,1.44147
390.77537,1.42562
390.53430,1.41447
390.29323,1.41586
390.05216,1.42901
389.81109,1.44601
389.57002,1.45665
389.32895,1.45522
389.08788,1.44279
388.84681,1.42794
388.60574,1.42330
388.36467,1.43216
388.12360,1.44619
387.88253,1.45695
387.64146,1.45823
387.40038,1.44483
387.15931,1.42009
386.91824,1.39717
386.67717,1.38783
386.43610,1.39298
386.19503,1.40214
385.95396,1.39781
385.71289,1.37053
385.47182,1.33590
385.23075,1.31548
384.98968,1.31354
384.74861,1.31983
384.50754,1.32383
384.26647,1.32503
384.02540,1.32531
383.78433,1.31889
383.54326,1.30098
383.30219,1.28173
383.06111,1.27773
382.82004,1.28988
382.57897,1.29873
382.33790,1.28716
382.09683,1.26084
381.85576,1.23575
381.61469,1.22338
381.37362,1.23021
381.13255,1.25558
380.89148,1.28495
380.65041,1.29504
380.40934,1.27737
380.16827,1.24592
379.92720,1.21626
379.68613,1.19558
379.44506,1.19012
379.20399,1.20584
378.96292,1.23995
378.72184,1.27558
378.48077,1.29150
378.23970,1.28403
377.99863,1.27102
377.75756,1.26966
377.51649,1.28139
377.27542,1.29655
377.03435,1.30753
376.79328,1.31594
376.55221,1.32458
376.31114,1.32966
376.07007,1.32727
375.82900,1.32102
375.58793,1.31822
375.34686,1.32379
375.10579,1.33843
374.86472,1.35494
374.62365,1.36260
374.38257,1.36036
374.14150,1.35526
373.90043,1.34986
373.65936,1.34436
373.41829,1.34274
373.17722,1.34728
372.93615,1.35249
372.69508,1.34930
372.45401,1.33552
372.21294,1.31880
371.97187,1.30780
371.73080,1.30343
371.48973,1.29894
371.24866,1.28759
371.00759,1.26991
370.76652,1.25172
370.52545,1.23721
370.28437,1.22751
370.04330,1.22352
369.80223,1.22528
369.56116,1.22819
369.32009,1.22499
369.07902,1.21422
368.83795,1.20179
368.59688,1.19296
368.35581,1.18697
368.11474,1.18000
367.87367,1.17130
367.63260,1.16442
367.39153,1.16262
367.15046,1.16400
366.90939,1.16327
366.66832,1.15864
366.42725,1.15248
366.18618,1.14608
365.94510,1.13931
365.70403,1.13409
365.46296,1.13273
365.22189,1.13348
364.98082,1.13266
364.73975,1.13061
364.49868,1.13027
364.25761,1.13094
364.01654,1.12862
363.77547,1.12211
363.53440,1.11520
363.29333,1.11182
363.05226,1.11150
362.81119,1.11075
362.57012,1.10772
362.32905,1.10443
362.08798,1.10390
361.84691,1.10682
361.60583,1.11093
361.36476,1.11251
361.12369,1.10945
360.88262,1.10429
360.64155,1.10110
360.40048,1.09994
360.15941,1.09826
359.91834,1.09559
359.67727,1.09341
359.43620,1.09291
359.19513,1.09491
358.95406,1.09949
358.71299,1.10465
358.47192,1.10706
358.23085,1.10512
357.98978,1.10100
357.74871,1.09823
357.50764,1.09820
357.26656,1.10058
357.02549,1.10430
356.78442,1.10649
356.54335,1.10442
356.30228,1.10080
356.06121,1.10150
355.82014,1.10595
355.57907,1.10666
355.33800,1.10076
355.09693,1.09440
354.85586,1.09327
354.61479,1.09642
354.37372,1.09966
354.13265,1.10118
353.89158,1.10283
353.65051,1.10644
353.40944,1.10944
353.16837,1.10688
352.92729,1.09874
352.68622,1.09156
352.44515,1.09111
352.20408,1.09748
351.96301,1.10715
351.72194,1.11547
351.48087,1.11783
351.23980,1.11353
350.99873,1.10827
350.75766,1.10831
350.51659,1.11315
350.27552,1.11764
350.03445,1.11979
349.79338,1.12180
349.55231,1.12427
349.31124,1.12448
349.07017,1.12105
348.82910,1.11629
348.58802,1.11308
348.34695,1.11230
348.10588,1.11411
347.86481,1.11937
347.62374,1.12755
347.38267,1.13507
347.14160,1.13903
346.90053,1.14089
346.65946,1.14391
346.41839,1.14929
346.17732,1.15612
345.93625,1.16271
345.69518,1.16697
345.45411,1.16798
345.21304,1.16777
344.97197,1.16911
344.73090,1.17216
344.48983,1.17583
344.24875,1.18091
344.00768,1.18818
343.76661,1.19504
343.52554,1.19817
343.28447,1.19855
343.04340,1.20039
342.80233,1.20522
342.56126,1.21070
342.32019,1.21438
342.07912,1.21692
341.83805,1.22078
341.59698,1.22557
341.35591,1.22918
341.11484,1.23356
340.87377,1.24401
340.63270,1.26212
340.39163,1.28178
340.15056,1.29506
339.90948,1.30155
339.66841,1.30776
339.42734,1.31780
339.18627,1.32764
338.94520,1.33116
338.70413,1.32848
338.46306,1.32416
338.22199,1.32230
337.98092,1.32453
337.73985,1.32987
337.49878,1.33589
337.25771,1.34018
337.01664,1.34083
336.77557,1.33633
336.53450,1.32758
336.29343,1.31839
336.05236,1.31396
335.81129,1.32008
335.57021,1.33844
335.32914,1.36005
335.08807,1.37067
334.84700,1.36567
334.60593,1.35189
334.36486,1.33743
334.12379,1.32768
333.88272,1.32537
333.64165,1.32790
333.40058,1.32847
333.15951,1.32323
332.91844,1.31382
332.67737,1.30169
332.43630,1.28693
332.19523,1.27341
331.95416,1.26623
331.71309,1.26576
331.47202,1.26946
331.23094,1.27415
330.98987,1.27474
330.74880,1.26847
330.50773,1.25894
330.26666,1.24999
330.02559,1.23960
329.78452,1.22650
329.54345,1.21673
329.30238,1.21583
329.06131,1.22024
328.82024,1.22346
328.57917,1.22578
328.33810,1.23025
328.09703,1.23386
327.85596,1.23035
327.61489,1.22032
327.37382,1.21190
327.13275,1.21242
326.89167,1.22195
326.65060,1.23307
326.40953,1.23697
326.16846,1.23291
325.92739,1.22786
325.68632,1.22589
325.44525,1.22505
325.20418,1.22433
324.96311,1.22551
324.72204,1.22703
324.48097,1.22327
324.23990,1.21166
323.99883,1.19675
323.75776,1.18812
323.51669,1.19466
323.27562,1.21831
323.03455,1.25139
322.79348,1.28015
322.55240,1.29475
322.31133,1.29657
322.07026,1.29205
321.82919,1.28432
321.58812,1.27566
321.34705,1.26877
321.10598,1.26435
320.86491,1.26275
320.62384,1.26539
320.38277,1.27139
320.14170,1.27701
319.90063,1.27998
319.65956,1.27953
319.41849,1.27502
319.17742,1.26983
318.93635,1.26945
318.69528,1.27099
318.45421,1.26532
318.21313,1.25404
317.97206,1.24996
317.73099,1.25858
317.48992,1.26987
317.24885,1.27077
317.00778,1.26016
316.76671,1.24492
316.52564,1.23085
316.28457,1.22395
316.04350,1.22877
315.80243,1.24308
315.56136,1.26073
315.32029,1.27770
315.07922,1.28925
314.83815,1.28883
314.59708,1.27919
314.35601,1.27431
314.11494,1.28244
313.87386,1.29610
313.63279,1.30342
313.39172,1.30236
313.15065,1.29838
312.90958,1.29494
312.66851,1.29176
312.42744,1.28797
312.18637,1.28448
311.94530,1.28491
311.70423,1.29253
311.46316,1.30419
311.22209,1.31046
310.98102,1.30709
310.73995,1.30155
310.49888,1.30172
310.25781,1.30716
310.01674,1.31379
309.77567,1.31918
309.53459,1.32204
309.29352,1.32226
309.05245,1.32232
308.81138,1.32580
308.57031,1.33485
308.32924,1.34934
308.08817,1.36520
307.84710,1.37383
307.60603,1.36961
307.36496,1.35749
307.12389,1.34620
306.88282,1.33771
306.64175,1.32994
306.40068,1.32580
306.15961,1.33258
305.91854,1.35208
305.67747,1.37332
305.43640,1.38149
305.19532,1.37418
304.95425,1.36059
304.71318,1.34877
304.47211,1.34070
304.23104,1.33538
303.98997,1.33066
303.74890,1.32251
303.50783,1.30781
303.26676,1.29032
303.02569,1.27780
302.78462,1.27154
302.54355,1.26601
302.30248,1.25956
302.06141,1.25565
301.82034,1.25515
301.57927,1.25485
301.33820,1.25205
301.09713,1.24714
300.85605,1.24275
300.61498,1.24082
300.37391,1.24030
300.13284,1.23824
299.89177,1.23265
299.65070,1.22415
299.40963,1.21579
299.16856,1.21035
298.92749,1.20686
298.68642,1.20165
298.44535,1.19275
298.20428,1.18168
297.96321,1.17155
297.72214,1.16443
297.48107,1.15885
297.24000,1.15087
296.99893,1.13964
296.75786,1.13013
296.51678,1.12795
296.27571,1.13208
296.03464,1.13508
295.79357,1.13136
295.55250,1.12242
295.31143,1.11315
295.07036,1.10629
294.82929,1.10083
294.58822,1.09527
294.34715,1.09085
294.10608,1.08942
293.86501,1.08986
293.62394,1.08982
293.38287,1.08896
293.14180,1.08770
292.90073,1.08504
292.65966,1.08089
292.41859,1.07709
292.17751,1.07460
291.93644,1.07244
291.69537,1.06982
291.45430,1.06720
291.21323,1.06476
290.97216,1.06192
290.73109,1.05919
290.49002,1.05804
290.24895,1.05813
290.00788,1.05708
289.76681,1.05347
289.52574,1.04761
289.28467,1.04006
289.04360,1.03234
288.80253,1.02738
288.56146,1.02658
288.32039,1.02823
288.07932,1.03001
287.83824,1.03068
287.59717,1.02944
287.35610,1.02618
287.11503,1.02225
286.87396,1.01960
286.63289,1.01932
286.39182,1.02025
286.15075,1.01921
285.90968,1.01463
285.66861,1.00962
285.42754,1.00876
285.18647,1.01257
284.94540,1.01732
284.70433,1.01902
284.46326,1.01666
284.22219,1.01300
283.98112,1.01234
283.74005,1.01621
283.49897,1.02069
283.25790,1.02050
283.01683,1.01604
282.77576,1.01214
282.53469,1.01137
282.29362,1.01258
282.05255,1.01441
281.81148,1.01620
281.57041,1.01644
281.32934,1.01426
281.08827,1.01116
280.84720,1.00940
280.60613,1.00974
280.36506,1.01165
280.12399,1.01402
279.88292,1.01529
279.64185,1.01416
279.40078,1.01121
279.15970,1.00894
278.91863,1.00905
278.67756,1.01046
278.43649,1.01133
278.19542,1.01206
277.95435,1.01400
277.71328,1.01631
277.47221,1.01730
277.23114,1.01706
276.99007,1.01662
276.74900,1.01614
276.50793,1.01582
276.26686,1.01662
276.02579,1.01832
275.78472,1.01974
275.54365,1.02174
275.30258,1.02609
275.06151,1.03109
274.82043,1.03246
274.57936,1.02969
274.33829,1.02717
274.09722,1.02802
273.85615,1.03051
273.61508,1.03156
273.37401,1.03057
273.13294,1.02867
272.89187,1.02720
272.65080,1.02766
272.40973,1.03130
272.16866,1.03740
271.92759,1.04380
271.68652,1.04962
271.44545,1.05572
271.20438,1.06225
270.96331,1.06773
270.72224,1.07094
270.48116,1.07278
270.24009,1.07495
269.99902,1.07776
269.75795,1.08033
269.51688,1.08214
269.27581,1.08389
269.03474,1.08759
268.79367,1.09500
268.55260,1.10439
268.31153,1.11121
268.07046,1.11424
267.82939,1.11742
267.58832,1.12355
267.34725,1.13042
267.10618,1.13538
266.86511,1.13987
266.62404,1.14665
266.38297,1.15563
266.14189,1.16528
265.90082,1.17566
265.65975,1.18698
265.41868,1.19734
265.17761,1.20523
264.93654,1.21176
264.69547,1.21831
264.45440,1.22571
264.21333,1.23612
263.97226,1.25136
263.73119,1.26907
263.49012,1.28412
263.24905,1.29403
263.00798,1.30114
262.76691,1.30987
262.52584,1.32317
262.28477,1.34136
262.04370,1.36377
261.80262,1.38941
261.56155,1.41483
261.32048,1.43619
261.07941,1.45562
260.83834,1.47896
260.59727,1.50728
260.35620,1.53604
260.11513,1.56216
259.87406,1.58631
259.63299,1.60830
259.39192,1.62840
259.15085,1.65168
258.90978,1.68176
258.66871,1.71459
258.42764,1.74231
258.18657,1.76227
257.94550,1.77896
257.70443,1.79240
257.46335,1.79633
257.22228,1.79408
256.98121,1.79390
256.74014,1.78864
256.49907,1.76631
256.25800,1.73401
256.01693,1.70635
255.77586,1.68409
255.53479,1.66211
255.29372,1.64005
255.05265,1.61845
254.81158,1.60117
254.57051,1.59145
254.32944,1.58294
254.08837,1.56702
253.84730,1.54510
253.60623,1.52653
253.36516,1.51825
253.12408,1.52044
252.88301,1.52831
252.64194,1.53459
252.40087,1.53402
252.15980,1.52567
251.91873,1.51362
251.67766,1.50438
251.43659,1.50104
251.19552,1.50327
250.95445,1.51200
250.71338,1.52636
250.47231,1.53834
250.23124,1.53980
249.99017,1.53051
249.74910,1.51595
249.50803,1.50235
249.26696,1.49501
249.02589,1.49589
248.78481,1.50012
248.54374,1.49978
248.30267,1.49314
248.06160,1.48695
247.82053,1.48857
247.57946,1.49815
247.33839,1.50854
247.09732,1.51192
246.85625,1.50731
246.61518,1.50248
246.37411,1.50743
246.13304,1.52420
245.89197,1.54334
245.65090,1.55417
245.40983,1.55895
245.16876,1.56990
244.92769,1.59243
244.68661,1.61928
244.44554,1.64369
244.20447,1.67136
243.96340,1.71149
243.72233,1.76419
243.48126,1.82281
243.24019,1.88134
242.99912,1.93685
242.75805,1.97538
242.51698,1.94610
242.27591,1.83160
242.03484,1.72697
241.79377,1.62913
241.55270,1.53007
241.31163,1.43801
241.07056,1.35930
240.82949,1.29302
240.58842,1.23799
240.34734,1.19390
240.10627,1.15699
239.86520,1.12212
239.62413,1.08781
239.38306,1.05532
239.14199,1.02504
238.90092,0.99692
238.65985,0.97176
238.41878,0.94939
238.17771,0.92839
237.93664,0.90959
237.69557,0.89558
237.45450,0.88581
237.21343,0.87608
236.97236,0.86368
236.73129,0.84947
236.49022,0.83514
236.24915,0.82166
236.00807,0.81013
235.76700,0.80144
235.52593,0.79538
235.28486,0.79069
235.04379,0.78576
234.80272,0.77954
234.56165,0.77268
234.32058,0.76741
234.07951,0.76526
233.83844,0.76519
233.59737,0.76467
233.35630,0.76259
233.11523,0.76016
232.87416,0.75830
232.63309,0.75593
232.39202,0.75234
232.15095,0.74937
231.90988,0.74900
231.66880,0.75027
231.42773,0.75054
231.18666,0.74855
230.94559,0.74531
230.70452,0.74251
230.46345,0.74077
230.22238,0.73937
229.98131,0.73767
229.74024,0.73597
229.49917,0.73467
229.25810,0.73424
229.01703,0.73528
228.77596,0.73732
228.53489,0.73854
228.29382,0.73840
228.05275,0.73856
227.81168,0.73971
227.57061,0.73939
227.32953,0.73548
227.08846,0.72995
226.84739,0.72677
226.60632,0.72748
226.36525,0.73044
226.12418,0.73338
225.88311,0.73502
225.64204,0.73501
225.40097,0.73439
225.15990,0.73517
224.91883,0.73796
224.67776,0.74141
224.43669,0.74475
224.19562,0.74860
223.95455,0.75296
223.71348,0.75699
223.47241,0.76048
223.23134,0.76359
222.99026,0.76592
222.74919,0.76786
222.50812,0.77136
222.26705,0.77836
222.02598,0.78861
221.78491,0.79975
221.54384,0.80947
221.30277,0.81699
221.06170,0.82241
220.82063,0.82636
220.57956,0.83080
220.33849,0.83781
220.09742,0.84711
219.85635,0.85664
219.61528,0.86583
219.37421,0.87593
219.13314,0.88782
218.89207,0.90147
218.65099,0.91646
218.40992,0.93220
218.16885,0.94841
217.92778,0.96509
217.68671,0.98165
217.44564,0.99721
217.20457,1.01190
216.96350,1.02565
216.72243,1.03672
216.48136,1.04462
216.24029,1.05322
215.99922,1.06739
215.75815,1.08762
215.51708,1.11027
215.27601,1.13144
215.03494,1.14881
214.79387,1.16155
214.55280,1.17009
214.31172,1.17594
214.07065,1.18220
213.82958,1.19363
213.58851,1.21267
213.34744,1.23592
213.10637,1.25737
212.86530,1.27434
212.62423,1.28774
212.38316,1.29733
212.14209,1.30032
211.90102,1.29643
211.65995,1.29073
211.41888,1.28821
211.17781,1.28845
210.93674,1.28943
210.69567,1.29351
210.45460,1.30275
210.21353,1.30987
209.97245,1.30448
209.73138,1.28915
209.49031,1.27802
209.24924,1.27982
209.00817,1.29018
208.76710,1.29855
208.52603,1.29856
208.28496,1.29240
208.04389,1.28499
207.80282,1.27741
207.56175,1.26911
207.32068,1.26095
207.07961,1.25339
206.83854,1.24550
206.59747,1.23660
206.35640,1.22683
206.11533,1.21510
205.87426,1.19911
205.63318,1.17901
205.39211,1.15774
205.15104,1.13749
204.90997,1.11904
204.66890,1.10339
204.42783,1.09029
204.18676,1.07620
203.94569,1.05798
203.70462,1.03817
203.46355,1.02212
203.22248,1.01098
202.98141,1.00100
202.74034,0.98847
202.49927,0.97250
202.25820,0.95383
202.01713,0.93427
201.77606,0.91678
201.53499,0.90292
201.29391,0.89120
201.05284,0.87941
200.81177,0.86649
200.57070,0.85149
200.32963,0.83411
200.08856,0.81626
199.84749,0.80085
199.60642,0.78936
199.36535,0.78102
199.12428,0.77334
198.88321,0.76350
198.64214,0.75055
198.40107,0.73633
198.16000,0.72369
197.91893,0.71390
197.67786,0.70557
197.43679,0.69636
197.19572,0.68561
196.95464,0.67493
196.71357,0.66610
196.47250,0.65913
196.23143,0.65224
195.99036,0.64372
195.74929,0.63424
195.50822,0.62625
195.26715,0.62096
195.02608,0.61715
194.78501,0.61273
194.54394,0.60670
194.30287,0.59964
194.06180,0.59301
193.82073,0.58796
193.57966,0.58438
193.33859,0.58109
193.09752,0.57681
192.85645,0.57117
192.61537,0.56511
192.37430,0.56023
192.13323,0.55722
191.89216,0.55488
191.65109,0.55166
191.41002,0.54787
191.16895,0.54518
190.92788,0.54392
190.68681,0.54230
190.44574,0.53874
190.20467,0.53427
189.96360,0.53140
189.72253,0.53112
189.48146,0.53174
189.24039,0.53103
188.99932,0.52906
188.75825,0.52768
188.51718,0.52750
188.27610,0.52710
188.03503,0.52519
187.79396,0.52265
187.55289,0.52108
187.31182,0.52039
187.07075,0.51914
186.82968,0.51709
186.58861,0.51582
186.34754,0.51660
186.10647,0.51902
185.86540,0.52144
185.62433,0.52243
185.38326,0.52184
185.14219,0.52081
184.90112,0.52049
184.66005,0.52107
184.41898,0.52210
184.17791,0.52278
183.93683,0.52254
183.69576,0.52270
183.45469,0.52556
183.21362,0.53091
182.97255,0.53554
182.73148,0.53784
182.49041,0.53963
182.24934,0.54216
182.00827,0.54396
181.76720,0.54428
181.52613,0.54476
181.28506,0.54602
181.04399,0.54646
180.80292,0.54606
180.56185,0.54759
180.32078,0.55206
180.07971,0.55706
179.83864,0.56077
179.59756,0.56410
179.35649,0.56826
179.11542,0.57352
178.87435,0.58030
178.63328,0.58887
178.39221,0.59883
178.15114,0.60974
177.91007,0.62146
177.66900,0.63356
177.42793,0.64575
177.18686,0.65864
176.94579,0.67321
176.70472,0.68997
176.46365,0.70852
176.22258,0.72771
175.98151,0.74643
175.74044,0.76468
175.49937,0.78305
175.25829,0.80190
175.01722,0.82170
174.77615,0.84320
174.53508,0.86650
174.29401,0.89110
174.05294,0.91654
173.81187,0.94175
173.57080,0.96478
173.32973,0.98488
173.08866,1.00286
172.84759,1.01846
172.60652,1.02987
172.36545,1.03632
172.12438,1.03871
171.88331,1.03785
171.64224,1.03417
171.40117,1.02857
171.16010,1.02285
170.91902,1.01901
170.67795,1.01717
170.43688,1.01412
170.19581,1.00642
169.95474,0.99521
169.71367,0.98532
169.47260,0.97988
169.23153,0.97805
168.99046,0.97723
168.74939,0.97565
168.50832,0.97219
168.26725,0.96627
168.02618,0.95898
167.78511,0.95247
167.54404,0.94789
167.30297,0.94575
167.06190,0.94678
166.82083,0.95025
166.57975,0.95376
166.33868,0.95699
166.09761,0.96297
165.85654,0.97372
165.61547,0.98697
165.37440,0.99836
165.13333,1.00573
164.89226,1.01079
164.65119,1.01697
164.41012,1.02660
164.16905,1.03987
163.92798,1.05526
163.68691,1.07092
163.44584,1.08668
163.20477,1.10453
162.96370,1.12497
162.72263,1.14411
162.48156,1.15685
162.24048,1.16260
161.99941,1.16507
161.75834,1.16669
161.51727,1.16668
161.27620,1.16433
161.03513,1.16155
160.79406,1.16045
160.55299,1.16085
160.31192,1.16153
160.07085,1.16103
159.82978,1.15750
159.58871,1.15038
159.34764,1.14108
159.10657,1.13109
158.86550,1.12140
158.62443,1.11310
158.38336,1.10677
158.14229,1.10235
157.90121,1.09961
157.66014,1.09706
157.41907,1.09230
157.17800,1.08520
156.93693,1.07750
156.69586,1.06930
156.45479,1.06013
156.21372,1.05262
155.97265,1.05011
155.73158,1.05092
155.49051,1.04812
155.24944,1.03546
155.00837,1.01339
154.76730,0.98852
154.52623,0.96704
154.28516,0.95043
154.04409,0.93696
153.80302,0.92421
153.56194,0.90990
153.32087,0.89239
153.07980,0.87119
152.83873,0.84678
152.59766,0.82081
152.35659,0.79627
152.11552,0.77583
151.87445,0.75911
151.63338,0.74281
151.39231,0.72457
151.15124,0.70561
150.91017,0.68869
150.66910,0.67469
150.42803,0.66208
150.18696,0.64869
149.94589,0.63365
149.70482,0.61812
149.46375,0.60440
149.22267,0.59390
148.98160,0.58610
148.74053,0.57927
148.49946,0.57207
148.25839,0.56441
148.01732,0.55735
147.77625,0.55212
147.53518,0.54907
147.29411,0.54734
147.05304,0.54577
146.81197,0.54432
146.57090,0.54411
146.32983,0.54620
146.08876,0.55069
145.84769,0.55655
145.60662,0.56231
145.36555,0.56726
145.12448,0.57225
144.88340,0.57867
144.64233,0.58670
144.40126,0.59473
144.16019,0.60046
143.91912,0.60288
143.67805,0.60302
143.43698,0.60191
143.19591,0.59840
142.95484,0.59043
142.71377,0.57827
142.47270,0.56502
142.23163,0.55374
141.99056,0.54502
141.74949,0.53736
141.50842,0.52943
141.26735,0.52156
141.02628,0.51461
140.78521,0.50888
140.54413,0.50460
140.30306,0.50241
140.06199,0.50273
139.82092,0.50530
139.57985,0.50963
139.33878,0.51551
139.09771,0.52280
138.85664,0.53105
138.61557,0.53962
138.37450,0.54859
138.13343,0.55899
137.89236,0.57147
137.65129,0.58547
137.41022,0.60035
137.16915,0.61676
136.92808,0.63591
136.68701,0.65740
136.44594,0.67948
136.20486,0.70167
135.96379,0.72546
135.72272,0.75244
135.48165,0.78383
135.24058,0.82114
134.99951,0.86428
134.75844,0.90964
134.51737,0.95236
134.27630,0.99000
134.03523,1.02312
133.79416,1.05396
133.55309,1.08388
133.31202,1.11156
133.07095,1.13658
132.82988,1.16267
132.58881,1.19115
132.34774,1.21520
132.10667,1.22677
131.86559,1.22401
131.62452,1.20971
131.38345,1.18834
131.14238,1.16392
130.90131,1.13872
130.66024,1.11414
130.41917,1.08884
130.17810,1.05734
129.93703,1.01684
129.69596,0.97162
129.45489,0.92650
129.21382,0.88258
128.97275,0.84127
128.73168,0.80477
128.49061,0.77169
128.24954,0.73804
128.00847,0.70298
127.76740,0.66983
127.52632,0.64165
127.28525,0.61814
127.04418,0.59641
126.80311,0.57413
126.56204,0.55191
126.32097,0.53209
126.07990,0.51583
125.83883,0.50236
125.59776,0.49023
125.35669,0.47853
125.11562,0.46703
124.87455,0.45612
124.63348,0.44653
124.39241,0.43881
124.15134,0.43299
123.91027,0.42857
123.66920,0.42477
123.42812,0.42089
123.18705,0.41666
122.94598,0.41265
122.70491,0.41017
122.46384,0.41012
122.22277,0.41203
121.98170,0.41461
121.74063,0.41728
121.49956,0.42049
121.25849,0.42477
121.01742,0.43040
120.77635,0.43783
120.53528,0.44752
120.29421,0.45983
120.05314,0.47502
119.81207,0.49280
119.57100,0.51239
119.32993,0.53364
119.08885,0.55729
118.84778,0.58377
118.60671,0.61272
118.36564,0.64404
118.12457,0.67767
117.88350,0.71174
117.64243,0.74209
117.40136,0.76573
117.16029,0.78386
116.91922,0.79890
116.67815,0.80876
116.43708,0.80821
116.19601,0.79663
115.95494,0.77978
115.71387,0.76327
115.47280,0.74806
115.23173,0.73213
114.99066,0.71417
114.74958,0.69522
114.50851,0.67790
114.26744,0.66449
114.02637,0.65544
113.78530,0.64999
113.54423,0.64785
113.30316,0.64974
113.06209,0.65624
112.82102,0.66669
112.57995,0.67924
112.33888,0.69219
112.09781,0.70513
111.85674,0.71782
111.61567,0.72891
111.37460,0.73756
111.13353,0.74516
110.89246,0.75206
110.65139,0.75415
110.41031,0.74705
110.16924,0.73227
109.92817,0.71505
109.68710,0.69802
109.44603,0.68076
109.20496,0.66403
108.96389,0.65058
108.72282,0.64032
108.48175,0.62767
108.24068,0.60670
107.99961,0.57769
107.75854,0.54583
107.51747,0.51633
107.27640,0.49243
107.03533,0.47513
106.79426,0.46278
106.55319,0.45255
106.31212,0.44278
106.07104,0.43323
105.82997,0.42296
105.58890,0.40979
105.34783,0.39334
105.10676,0.37672
104.86569,0.36358
104.62462,0.35493
104.38355,0.34961
104.14248,0.34595
103.90141,0.34184
103.66034,0.33519
103.41927,0.32593
103.17820,0.31624
102.93713,0.30799
102.69606,0.30146
102.45499,0.29669
102.21392,0.29404
101.97285,0.29271
101.73177,0.29025
101.49070,0.28491
101.24963,0.27790
101.00856,0.27270
100.76749,0.27184
100.52642,0.27388
100.28535,0.27397
100.04428,0.26857
99.80321,0.25944
99.56214,0.25142
99.32107,0.24788
99.08000,0.24897
98.83893,0.25226
98.59786,0.25436
98.35679,0.25314
98.11572,0.24923
97.87465,0.24594
97.63358,0.24703
97.39250,0.25286
97.15143,0.25924
96.91036,0.26212
96.66929,0.26300
96.42822,0.26711
96.18715,0.27721
95.94608,0.29005
95.70501,0.29945
95.46394,0.30388
95.22287,0.30836
94.98180,0.31700
94.74073,0.32772
94.49966,0.33492
94.25859,0.33637
94.01752,0.33541
93.77645,0.33601
93.53538,0.33801
93.29431,0.33831
93.05323,0.33730
92.81216,0.33953
92.57109,0.34587
92.33002,0.35027
92.08895,0.34881
91.84788,0.34679
91.60681,0.35055
91.36574,0.35957
91.12467,0.37141
90.88360,0.38880
90.64253,0.41492
90.40146,0.44735
90.16039,0.48451
89.91932,0.53036
89.67825,0.58411
89.43718,0.63537
89.19611,0.67764
88.95504,0.71378
88.71396,0.74192
88.47289,0.75155
88.23182,0.73552
87.99075,0.69664
87.74968,0.64513
87.50861,0.59166
87.26754,0.54128
87.02647,0.49479
86.78540,0.45340
86.54433,0.41838
86.30326,0.38893
86.06219,0.36320
85.82112,0.33998
85.58005,0.31855
85.33898,0.29848
85.09791,0.28027
84.85684,0.26497
84.61577,0.25291
84.37469,0.24316
84.13362,0.23421
83.89255,0.22519
83.65148,0.21682
83.41041,0.21049
83.16934,0.20618
82.92827,0.20237
82.68720,0.19828
82.44613,0.19469
82.20506,0.19220
81.96399,0.19016
81.72292,0.18775
81.48185,0.18519
81.24078,0.18345
80.99971,0.18281
80.75864,0.18223
80.51757,0.18057
80.27650,0.17821
80.03542,0.17653
79.79435,0.17591
79.55328,0.17524
79.31221,0.17362
79.07114,0.17167
78.83007,0.17078
78.58900,0.17133
78.34793,0.17225
78.10686,0.17220
77.86579,0.17044
77.62472,0.16693
77.38365,0.16255
77.14258,0.15870
76.90151,0.15596
76.66044,0.15396
76.41937,0.15250
76.17830,0.15155
75.93723,0.15051
75.69615,0.14913
75.45508,0.14850
75.21401,0.14968
74.97294,0.15188
74.73187,0.15349
74.49080,0.15431
74.24973,0.15562
74.00866,0.15790
73.76759,0.15961
73.52652,0.15891
73.28545,0.15583
73.04438,0.15223
72.80331,0.14991
72.56224,0.15015
72.32117,0.15417
72.08010,0.16223
71.83903,0.17210
71.59796,0.17984
71.35688,0.18287
71.11581,0.18196
70.87474,0.18002
70.63367,0.18003
70.39260,0.18447
70.15153,0.19495
69.91046,0.21150
69.66939,0.23259
69.42832,0.25508
69.18725,0.27361
68.94618,0.28191
68.70511,0.27696
68.46404,0.26110
68.22297,0.23932
67.98190,0.21605
67.74083,0.19461
67.49976,0.17744
67.25869,0.16550
67.01761,0.15783
66.77654,0.15249
66.53547,0.14811
66.29440,0.14432
66.05333,0.14117
65.81226,0.13902
65.57119,0.13891
65.33012,0.14211
65.08905,0.14902
64.84798,0.15920
64.60691,0.17210
64.36584,0.18672
64.12477,0.20016
63.88370,0.20773
63.64263,0.20652
63.40156,0.19826
63.16049,0.18747
62.91942,0.17772
62.67834,0.17004
62.43727,0.16408
62.19620,0.15970
61.95513,0.15694
61.71406,0.15485
61.47299,0.15200
61.23192,0.14820
60.99085,0.14439
60.74978,0.14111
60.50871,0.13861
60.26764,0.13777
60.02657,0.13930
59.78550,0.14236
59.54443,0.14483
59.30336,0.14493
59.06229,0.14251
58.82122,0.13937
58.58015,0.13801
58.33907,0.13976
58.09800,0.14412
57.85693,0.15002
57.61586,0.15712
57.37479,0.16553
57.13372,0.17462
56.89265,0.18246
56.65158,0.18639
56.41051,0.18447
56.16944,0.17720
55.92837,0.16712
55.68730,0.15603
55.44623,0.14422
55.20516,0.13229
54.96409,0.12219
54.72302,0.11704
54.48195,0.12000
54.24088,0.13256
53.99980,0.15311
53.75873,0.17670
53.51766,0.19569
53.27659,0.20195
53.03552,0.19178
52.79445,0.16971
52.55338,0.14595
52.31231,0.13095
52.07124,0.13160
51.83017,0.14941
51.58910,0.17831
51.34803,0.20063
51.10696,0.19519
50.86589,0.16541
50.62482,0.13569
50.38375,0.12365
50.14268,0.13646
49.90161,0.17195
49.66053,0.20725
49.41946,0.20311
49.17839,0.16229
48.93732,0.12778
48.69625,0.12503
48.45518,0.15476
48.21411,0.19000
47.97304,0.18656
47.73197,0.15367
47.49090,0.13682
47.24983,0.15275
47.00876,0.17846
46.76769,0.17161
46.52662,0.14402
46.28555,0.13822
46.04448,0.15665
45.80341,0.16396
45.56234,0.14844
45.32126,0.14089
45.08019,0.15044
44.83912,0.15537
44.59805,0.14958
44.35698,0.15054
44.11591,0.15962
43.87484,0.16571
43.63377,0.16993
43.39270,0.17683
43.15163,0.18252
42.91056,0.18420
42.66949,0.18584
42.42842,0.19141
42.18735,0.20069
41.94628,0.20752
41.70521,0.20545
41.46414,0.19842
41.22307,0.19502
40.98199,0.19648
40.74092,0.19848
40.49985,0.19886
40.25878,0.19877
40.01771,0.20030
39.77664,0.20334
39.53557,0.20445
39.29450,0.20273
39.05343,0.20327
38.81236,0.21088
38.57129,0.22570
38.33022,0.24459
38.08915,0.26182
37.84808,0.26923
37.60701,0.26197
37.36594,0.24726
37.12487,0.23886
36.88380,0.24162
36.64272,0.24930
36.40165,0.25658
36.16058,0.26467
35.91951,0.27364
35.67844,0.27948
35.43737,0.27948
35.19630,0.27300
34.95523,0.25962
34.71416,0.24329
34.47309,0.23126
34.23202,0.22714
33.99095,0.22952
33.74988,0.23550
33.50881,0.24149
33.26774,0.24040
33.02667,0.22588
32.78560,0.20512
32.54453,0.19376
32.30345,0.19646
32.06238,0.20377
31.82131,0.20432
31.58024,0.19443
31.33917,0.17747
31.09810,0.15602
30.85703,0.13090
30.61596,0.10727
30.37489,0.09434
30.13382,0.09341
29.89275,0.09782
29.65168,0.10237
29.41061,0.10239
29.16954,0.09169
28.92847,0.07018
28.68740,0.04727
28.44633,0.02900
28.20526,0.01107
27.96418,-0.00780
27.72311,-0.01686
27.48204,-0.00943
27.24097,0.00224
26.99990,0.00195
26.75883,-0.01355
26.51776,-0.03896
26.27669,-0.06503
26.03562,-0.07893
25.79455,-0.07433
25.55348,-0.06050
25.31241,-0.05425
25.07134,-0.06369
24.83027,-0.08230
24.58920,-0.09732
24.34813,-0.10302
24.10706,-0.10320
23.86599,-0.10126
23.62491,-0.09617
23.38384,-0.09173
23.14277,-0.09908
22.90170,-0.12391
22.66063,-0.15768
22.41956,-0.18835
22.17849,-0.21360
21.93742,-0.23326
21.69635,-0.23973
21.45528,-0.22681
21.21421,-0.20241
20.97314,-0.18518
20.73207,-0.18385
20.49100,-0.19160
20.24993,-0.19907
20.00886,-0.20404
19.76779,-0.21385
19.52672,-0.23819
19.28564,-0.27235
19.04457,-0.29605
18.80350,-0.30048
18.56243,-0.29748
18.32136,-0.29534
18.08029,-0.29024
17.83922,-0.27611
17.59815,-0.26286
17.35708,-0.27078
17.11601,-0.30274
16.87494,-0.33561
16.63387,-0.34186
16.39280,-0.31836
16.15173,-0.28886
15.91066,-0.27779
15.66959,-0.29207
15.42852,-0.31911
15.18745,-0.33510
14.94637,-0.32999
14.70530,-0.31816
14.46423,-0.31707
14.22316,-0.32864
13.98209,-0.34560
13.74102,-0.36321
13.49995,-0.37232
13.25888,-0.36078
13.01781,-0.33183
12.77674,-0.30356
12.53567,-0.29297
12.29460,-0.30738
12.05353,-0.34417
11.81246,-0.39014
11.57139,-0.42530
11.33032,-0.43647
11.08925,-0.42710
10.84818,-0.40784
10.60710,-0.39530
10.36603,-0.40158
10.12496,-0.41499
9.88389,-0.42528
9.64282,-0.43654
9.40175,-0.43951
9.16068,-0.42694
8.91961,-0.40308
8.67854,-0.38112
8.43747,-0.37611
8.19640,-0.38560
7.95533,-0.38843
7.71426,-0.37856
7.47319,-0.36553
7.23212,-0.34460
6.99105,-0.33056
6.74998,-0.34291
6.50891,-0.36649
6.26783,-0.37809
6.02676,-0.37849
5.78569,-0.38048
5.54462,-0.38983
5.30355,-0.40563
5.06248,-0.41520
4.82141,-0.40184
4.58034,-0.38671
4.33927,-0.38061
4.09820,-0.36816
3.85713,-0.35119
3.61606,-0.33659
3.37499,-0.32087
3.13392,-0.31374
2.89285,-0.33057
2.65178,-0.35776
2.41071,-0.37014
2.16964,-0.36254
1.92856,-0.34254
1.68749,-0.32790
1.44642,-0.33874
1.20535,-0.36685
0.96428,-0.38963
0.72321,-0.42365
0.48214,-0.45356
0.24107,-0.41424
-0.00000,-0.32862
