399.69498,1.40238
399.45391,1.39473
399.21284,1.38585
398.97177,1.37884
398.73070,1.37667
398.48963,1.38020
398.24856,1.38666
398.00749,1.39205
397.76642,1.39523
397.52535,1.39818
397.28428,1.40344
397.04321,1.41173
396.80214,1.42048
396.56107,1.42554
396.32000,1.42447
396.07892,1.41759
395.83785,1.40796
395.59678,1.40095
395.35571,1.40010
395.11464,1.40379
394.87357,1.40763
394.63250,1.40787
394.39143,1.40234
394.15036,1.39236
393.90929,1.38318
393.66822,1.38004
393.42715,1.38303
393.18608,1.38711
392.94501,1.38826
392.70394,1.38750
392.46287,1.38823
392.22180,1.39298
391.98073,1.40317
391.73965,1.41710
391.49858,1.42786
391.25751,1.42940
391.01644,1.42468
390.77537,1.42118
390.53430,1.42179
390.29323,1.42536
390.05216,1.43051
389.81109,1.43419
389.57002,1.43078
389.32895,1.41713
389.08788,1.39703
388.84681,1.37818
388.60574,1.36729
388.36467,1.36774
388.12360,1.37723
387.88253,1.38725
387.64146,1.38967
387.40038,1.38564
387.15931,1.38119
386.91824,1.37646
386.67717,1.36862
386.43610,1.35864
386.19503,1.34775
385.95396,1.33441
385.71289,1.31876
385.47182,1.30309
385.23075,1.29038
384.98968,1.28504
384.74861,1.28728
384.50754,1.28957
384.26647,1.28481
384.02540,1.27442
383.78433,1.26281
383.54326,1.25195
383.30219,1.24591
383.06111,1.24600
382.82004,1.24387
382.57897,1.23139
382.33790,1.21348
382.09683,1.20266
381.85576,1.20350
381.61469,1.20904
381.37362,1.21083
381.13255,1.20677
380.89148,1.20015
380.65041,1.19594
380.40934,1.19627
380.16827,1.19874
379.92720,1.20050
379.68613,1.20239
379.44506,1.20673
379.20399,1.21358
378.96292,1.22059
378.72184,1.22665
378.48077,1.23551
378.23970,1.24854
377.99863,1.25890
377.75756,1.26098
377.51649,1.25970
377.27542,1.26567
377.03435,1.28172
376.79328,1.29935
376.55221,1.30976
376.31114,1.31304
376.07007,1.31194
375.82900,1.30626
375.58793,1.29848
375.34686,1.29451
375.10579,1.29714
374.86472,1.30576
374.62365,1.31514
374.38257,1.31437
374.14150,1.30026
373.90043,1.28419
373.65936,1.27755
373.41829,1.28135
373.17722,1.28979
372.93615,1.29485
372.69508,1.29032
372.45401,1.27798
372.21294,1.26588
371.97187,1.25702
371.73080,1.24734
371.48973,1.23502
371.24866,1.22403
371.00759,1.21784
370.76652,1.21479
370.52545,1.21068
370.28437,1.20403
370.04330,1.19724
369.80223,1.19297
369.56116,1.19041
369.32009,1.18524
369.07902,1.17475
368.83795,1.16226
368.59688,1.15350
368.35581,1.15043
368.11474,1.15045
367.87367,1.14973
367.63260,1.14670
367.39153,1.14318
367.15046,1.14076
366.90939,1.13632
366.66832,1.12610
366.42725,1.11361
366.18618,1.10671
365.94510,1.10805
365.70403,1.11347
365.46296,1.11819
365.22189,1.12095
364.98082,1.12226
364.73975,1.12131
364.49868,1.11628
364.25761,1.10668
364.01654,1.09431
363.77547,1.08275
363.53440,1.07592
363.29333,1.07500
363.05226,1.07696
362.81119,1.07817
362.57012,1.07834
362.32905,1.07851
362.08798,1.07789
361.84691,1.07594
361.60583,1.07457
361.36476,1.07566
361.12369,1.07844
360.88262,1.08018
360.64155,1.07831
360.40048,1.07245
360.15941,1.06512
359.91834,1.06000
359.67727,1.05937
359.43620,1.06267
359.19513,1.06722
358.95406,1.07059
358.71299,1.07183
358.47192,1.07106
358.23085,1.06896
357.98978,1.06630
357.74871,1.06362
357.50764,1.06189
357.26656,1.06156
357.02549,1.06068
356.78442,1.05724
356.54335,1.05322
356.30228,1.05247
356.06121,1.05531
355.82014,1.05854
355.57907,1.06049
355.33800,1.06289
355.09693,1.06707
354.85586,1.07051
354.61479,1.06954
354.37372,1.06533
354.13265,1.06343
353.89158,1.06634
353.65051,1.07078
353.40944,1.07301
353.16837,1.07320
352.92729,1.07287
352.68622,1.07155
352.44515,1.06813
352.20408,1.06406
351.96301,1.06254
351.72194,1.06471
351.48087,1.06827
351.23980,1.07017
350.99873,1.06915
350.75766,1.06629
350.51659,1.06460
350.27552,1.06665
350.03445,1.07121
349.79338,1.07462
349.55231,1.07647
349.31124,1.08009
349.07017,1.08660
348.82910,1.09189
348.58802,1.09279
348.34695,1.09276
348.10588,1.09697
347.86481,1.10418
347.62374,1.10802
347.38267,1.10585
347.14160,1.10178
346.90053,1.10128
346.65946,1.10688
346.41839,1.11752
346.17732,1.12823
345.93625,1.13308
345.69518,1.13108
345.45411,1.12666
345.21304,1.12497
344.97197,1.12869
344.73090,1.13601
344.48983,1.14194
344.24875,1.14513
344.00768,1.15004
343.76661,1.15895
343.52554,1.16767
343.28447,1.17231
343.04340,1.17474
342.80233,1.17860
342.56126,1.18490
342.32019,1.19181
342.07912,1.19631
341.83805,1.19765
341.59698,1.19850
341.35591,1.20169
341.11484,1.20857
340.87377,1.21920
340.63270,1.23070
340.39163,1.23803
340.15056,1.23892
339.90948,1.23491
339.66841,1.22968
339.42734,1.23005
339.18627,1.24287
338.94520,1.26588
338.70413,1.28613
338.46306,1.29190
338.22199,1.28427
337.98092,1.27436
337.73985,1.27297
337.49878,1.28251
337.25771,1.29507
337.01664,1.29972
336.77557,1.29434
336.53450,1.28650
336.29343,1.28386
336.05236,1.28792
335.81129,1.29476
335.57021,1.29970
335.32914,1.30116
335.08807,1.29934
334.84700,1.29428
334.60593,1.28664
334.36486,1.27717
334.12379,1.26623
333.88272,1.25633
333.64165,1.25136
333.40058,1.25036
333.15951,1.24739
332.91844,1.24101
332.67737,1.23657
332.43630,1.23583
332.19523,1.23378
331.95416,1.22891
331.71309,1.22551
331.47202,1.22380
331.23094,1.21833
330.98987,1.20656
330.74880,1.19321
330.50773,1.18627
330.26666,1.18829
330.02559,1.19318
329.78452,1.19414
329.54345,1.19153
329.30238,1.18850
329.06131,1.18480
328.82024,1.18026
328.57917,1.17684
328.33810,1.17390
328.09703,1.17027
327.85596,1.16965
327.61489,1.17630
327.37382,1.18804
327.13275,1.19736
326.89167,1.19848
326.65060,1.19229
326.40953,1.18555
326.16846,1.18475
325.92739,1.18967
325.68632,1.19368
325.44525,1.19133
325.20418,1.18527
324.96311,1.18277
324.72204,1.18660
324.48097,1.19116
324.23990,1.18939
323.99883,1.18401
323.75776,1.18420
323.51669,1.19137
323.27562,1.19693
323.03455,1.19642
322.79348,1.19641
322.55240,1.20240
322.31133,1.21028
322.07026,1.21512
321.82919,1.21952
321.58812,1.22570
321.34705,1.22789
321.10598,1.22236
320.86491,1.21710
320.62384,1.22176
320.38277,1.23435
320.14170,1.24424
319.90063,1.24581
319.65956,1.24232
319.41849,1.23620
319.17742,1.22649
318.93635,1.21603
318.69528,1.21183
318.45421,1.21711
318.21313,1.22641
317.97206,1.23044
317.73099,1.22730
317.48992,1.22368
317.24885,1.22254
317.00778,1.21820
316.76671,1.20689
316.52564,1.19411
316.28457,1.18812
316.04350,1.19241
315.80243,1.20415
315.56136,1.21679
315.32029,1.22640
315.07922,1.23604
314.83815,1.24954
314.59708,1.26426
314.35601,1.27367
314.11494,1.27409
313.87386,1.26826
313.63279,1.26423
313.39172,1.26844
313.15065,1.28020
312.90958,1.29224
312.66851,1.29540
312.42744,1.28647
312.18637,1.27355
311.94530,1.26918
311.70423,1.27633
311.46316,1.28622
311.22209,1.29054
310.98102,1.28910
310.73995,1.28485
310.49888,1.27880
310.25781,1.27441
310.01674,1.27944
309.77567,1.29614
309.53459,1.31483
309.29352,1.32343
309.05245,1.32153
308.81138,1.31623
308.57031,1.30936
308.32924,1.30080
308.08817,1.29777
307.84710,1.30833
307.60603,1.32770
307.36496,1.33928
307.12389,1.33447
306.88282,1.32483
306.64175,1.32370
306.40068,1.32787
306.15961,1.32630
305.91854,1.31677
305.67747,1.30641
305.43640,1.29990
305.19532,1.29511
304.95425,1.28902
304.71318,1.28211
304.47211,1.27654
304.23104,1.27283
303.98997,1.27077
303.74890,1.27042
303.50783,1.26973
303.26676,1.26672
303.02569,1.26467
302.78462,1.26744
302.54355,1.27116
302.30248,1.26874
302.06141,1.25870
301.82034,1.24544
301.57927,1.23275
301.33820,1.22156
301.09713,1.21221
300.85605,1.20415
300.61498,1.19630
300.37391,1.18863
300.13284,1.18135
299.89177,1.17353
299.65070,1.16401
299.40963,1.15380
299.16856,1.14625
298.92749,1.14343
298.68642,1.14349
298.44535,1.14295
298.20428,1.14044
297.96321,1.13634
297.72214,1.13095
297.48107,1.12528
297.24000,1.12155
296.99893,1.12071
296.75786,1.12121
296.51678,1.12038
296.27571,1.11539
296.03464,1.10468
295.79357,1.09072
295.55250,1.07909
295.31143,1.07337
295.07036,1.07204
294.82929,1.07113
294.58822,1.06893
294.34715,1.06625
294.10608,1.06319
293.86501,1.05889
293.62394,1.05343
293.38287,1.04762
293.14180,1.04255
292.90073,1.04027
292.65966,1.04208
292.41859,1.04504
292.17751,1.04392
291.93644,1.03829
291.69537,1.03326
291.45430,1.03242
291.21323,1.03430
290.97216,1.03481
290.73109,1.03131
290.49002,1.02562
290.24895,1.02246
290.00788,1.02342
289.76681,1.02443
289.52574,1.02142
289.28467,1.01586
289.04360,1.01171
288.80253,1.00978
288.56146,1.00815
288.32039,1.00618
288.07932,1.00505
287.83824,1.00510
287.59717,1.00571
287.35610,1.00674
287.11503,1.00769
286.87396,1.00653
286.63289,1.00150
286.39182,0.99372
286.15075,0.98661
285.90968,0.98311
285.66861,0.98400
285.42754,0.98765
285.18647,0.99080
284.94540,0.99053
284.70433,0.98621
284.46326,0.97970
284.22219,0.97415
283.98112,0.97145
283.74005,0.97087
283.49897,0.97104
283.25790,0.97226
283.01683,0.97550
282.77576,0.97992
282.53469,0.98309
282.29362,0.98322
282.05255,0.98070
281.81148,0.97818
281.57041,0.97814
281.32934,0.98028
281.08827,0.98227
280.84720,0.98280
280.60613,0.98252
280.36506,0.98268
280.12399,0.98351
279.88292,0.98392
279.64185,0.98328
279.40078,0.98353
279.15970,0.98724
278.91863,0.99370
278.67756,0.99896
278.43649,0.99951
278.19542,0.99535
277.95435,0.98985
277.71328,0.98654
277.47221,0.98650
277.23114,0.98844
276.99007,0.99036
276.74900,0.99098
276.50793,0.99112
276.26686,0.99359
276.02579,0.99974
275.78472,1.00655
275.54365,1.00955
275.30258,1.00825
275.06151,1.00631
274.82043,1.00682
274.57936,1.00925
274.33829,1.01144
274.09722,1.01276
273.85615,1.01386
273.61508,1.01496
273.37401,1.01604
273.13294,1.01726
272.89187,1.01827
272.65080,1.01870
272.40973,1.01981
272.16866,1.02322
271.92759,1.02819
271.68652,1.03282
271.44545,1.03671
271.20438,1.03982
270.96331,1.04112
270.72224,1.04106
270.48116,1.04219
270.24009,1.04580
269.99902,1.05098
269.75795,1.05754
269.51688,1.06604
269.27581,1.07473
269.03474,1.08023
268.79367,1.08208
268.55260,1.08320
268.31153,1.08580
268.07046,1.08960
267.82939,1.09377
267.58832,1.09775
267.34725,1.10082
267.10618,1.10358
266.86511,1.10893
266.62404,1.11866
266.38297,1.13097
266.14189,1.14391
265.90082,1.15776
265.65975,1.17139
265.41868,1.18126
265.17761,1.18651
264.93654,1.19154
264.69547,1.20186
264.45440,1.21870
264.21333,1.23757
263.97226,1.25298
263.73119,1.26428
263.49012,1.27342
263.24905,1.28087
263.00798,1.28738
262.76691,1.29504
262.52584,1.30424
262.28477,1.31406
262.04370,1.32551
261.80262,1.34119
261.56155,1.36235
261.32048,1.38847
261.07941,1.41801
260.83834,1.44990
260.59727,1.48584
260.35620,1.52571
260.11513,1.56152
259.87406,1.58534
259.63299,1.60203
259.39192,1.62571
259.15085,1.66596
258.90978,1.71399
258.66871,1.74769
258.42764,1.76200
258.18657,1.76453
257.94550,1.76355
257.70443,1.77192
257.46335,1.79621
257.22228,1.82048
256.98121,1.81364
256.74014,1.76843
256.49907,1.71048
256.25800,1.66407
256.01693,1.64026
255.77586,1.64119
255.53479,1.65501
255.29372,1.65779
255.05265,1.63982
254.81158,1.60900
254.57051,1.57190
254.32944,1.53581
254.08837,1.50982
253.84730,1.50071
253.60623,1.50646
253.36516,1.51708
253.12408,1.52483
252.88301,1.52702
252.64194,1.52044
252.40087,1.50375
252.15980,1.48427
251.91873,1.47341
251.67766,1.47410
251.43659,1.47571
251.19552,1.46730
250.95445,1.45408
250.71338,1.44979
250.47231,1.45629
250.23124,1.46053
249.99017,1.45396
249.74910,1.44479
249.50803,1.44392
249.26696,1.45121
249.02589,1.45963
248.78481,1.46346
248.54374,1.45838
248.30267,1.44250
248.06160,1.42240
247.82053,1.41033
247.57946,1.41155
247.33839,1.42012
247.09732,1.42821
246.85625,1.43446
246.61518,1.44273
246.37411,1.45604
246.13304,1.47263
245.89197,1.48744
245.65090,1.49877
245.40983,1.51060
245.16876,1.52622
244.92769,1.54491
244.68661,1.56510
244.44554,1.58648
244.20447,1.61084
243.96340,1.64283
243.72233,1.68940
243.48126,1.75290
243.24019,1.82030
242.99912,1.87214
242.75805,1.90141
242.51698,1.88387
242.27591,1.79309
242.03484,1.69066
241.79377,1.58926
241.55270,1.49389
241.31163,1.41188
241.07056,1.34710
240.82949,1.29751
240.58842,1.25484
240.34734,1.21029
240.10627,1.16290
239.86520,1.11874
239.62413,1.08244
239.38306,1.05333
239.14199,1.02792
238.90092,1.00329
238.65985,0.97857
238.41878,0.95458
238.17771,0.93262
237.93664,0.91324
237.69557,0.89580
237.45450,0.87875
237.21343,0.86082
236.97236,0.84285
236.73129,0.82758
236.49022,0.81678
236.24915,0.80968
236.00807,0.80441
235.76700,0.79930
235.52593,0.79309
235.28486,0.78581
235.04379,0.77891
234.80272,0.77331
234.56165,0.76850
234.32058,0.76387
234.07951,0.75927
233.83844,0.75459
233.59737,0.75005
233.35630,0.74635
233.11523,0.74351
232.87416,0.74099
232.63309,0.73886
232.39202,0.73758
232.15095,0.73664
231.90988,0.73496
231.66880,0.73262
231.42773,0.73106
231.18666,0.73124
230.94559,0.73169
230.70452,0.72988
230.46345,0.72610
230.22238,0.72355
229.98131,0.72391
229.74024,0.72523
229.49917,0.72531
229.25810,0.72442
229.01703,0.72354
228.77596,0.72271
228.53489,0.72223
228.29382,0.72350
228.05275,0.72686
227.81168,0.72997
227.57061,0.72997
227.32953,0.72700
227.08846,0.72350
226.84739,0.72096
226.60632,0.71913
226.36525,0.71757
226.12418,0.71653
225.88311,0.71680
225.64204,0.71909
225.40097,0.72298
225.15990,0.72691
224.91883,0.73011
224.67776,0.73339
224.43669,0.73710
224.19562,0.74052
223.95455,0.74376
223.71348,0.74750
223.47241,0.75105
223.23134,0.75342
222.99026,0.75564
222.74919,0.75959
222.50812,0.76529
222.26705,0.77107
222.02598,0.77591
221.78491,0.78046
221.54384,0.78563
221.30277,0.79121
221.06170,0.79693
220.82063,0.80404
220.57956,0.81444
220.33849,0.82773
220.09742,0.84074
219.85635,0.85085
219.61528,0.85908
219.37421,0.86846
219.13314,0.88016
218.89207,0.89292
218.65099,0.90608
218.40992,0.92035
218.16885,0.93563
217.92778,0.95044
217.68671,0.96417
217.44564,0.97810
217.20457,0.99352
216.96350,1.00979
216.72243,1.02498
216.48136,1.03866
216.24029,1.05263
215.99922,1.06854
215.75815,1.08617
215.51708,1.10398
215.27601,1.12103
215.03494,1.13812
214.79387,1.15597
214.55280,1.17257
214.31172,1.18505
214.07065,1.19577
213.82958,1.21175
213.58851,1.23534
213.34744,1.25909
213.10637,1.27383
212.86530,1.27943
212.62423,1.28285
212.38316,1.28833
212.14209,1.29437
211.90102,1.30045
211.65995,1.30853
211.41888,1.31710
211.17781,1.32064
210.93674,1.31694
210.69567,1.31198
210.45460,1.31310
210.21353,1.32055
209.97245,1.32849
209.73138,1.33301
209.49031,1.33580
209.24924,1.33860
209.00817,1.33891
208.76710,1.33510
208.52603,1.32923
208.28496,1.32053
208.04389,1.30406
207.80282,1.28077
207.56175,1.26035
207.32068,1.24997
207.07961,1.24670
206.83854,1.24357
206.59747,1.23785
206.35640,1.22890
206.11533,1.21387
205.87426,1.19266
205.63318,1.17176
205.39211,1.15655
205.15104,1.14428
204.90997,1.12870
204.66890,1.10875
204.42783,1.08852
204.18676,1.07078
203.94569,1.05475
203.70462,1.03933
203.46355,1.02524
203.22248,1.01336
202.98141,1.00244
202.74034,0.98963
202.49927,0.97330
202.25820,0.95477
202.01713,0.93652
201.77606,0.91955
201.53499,0.90313
201.29391,0.88597
201.05284,0.86792
200.81177,0.85105
200.57070,0.83787
200.32963,0.82798
200.08856,0.81798
199.84749,0.80573
199.60642,0.79253
199.36535,0.77995
199.12428,0.76718
198.88321,0.75321
198.64214,0.73912
198.40107,0.72647
198.16000,0.71532
197.91893,0.70495
197.67786,0.69527
197.43679,0.68623
197.19572,0.67709
196.95464,0.66733
196.71357,0.65763
196.47250,0.64903
196.23143,0.64165
195.99036,0.63475
195.74929,0.62768
195.50822,0.62049
195.26715,0.61386
195.02608,0.60857
194.78501,0.60465
194.54394,0.60118
194.30287,0.59696
194.06180,0.59149
193.82073,0.58477
193.57966,0.57716
193.33859,0.56959
193.09752,0.56302
192.85645,0.55768
192.61537,0.55373
192.37430,0.55160
192.13323,0.55075
191.89216,0.54917
191.65109,0.54551
191.41002,0.54044
191.16895,0.53547
190.92788,0.53165
190.68681,0.52918
190.44574,0.52722
190.20467,0.52458
189.96360,0.52125
189.72253,0.51838
189.48146,0.51670
189.24039,0.51574
188.99932,0.51466
188.75825,0.51310
188.51718,0.51142
188.27610,0.51016
188.03503,0.50930
187.79396,0.50846
187.55289,0.50771
187.31182,0.50722
187.07075,0.50686
186.82968,0.50659
186.58861,0.50678
186.34754,0.50761
186.10647,0.50868
185.86540,0.50940
185.62433,0.50974
185.38326,0.51029
185.14219,0.51160
184.90112,0.51358
184.66005,0.51584
184.41898,0.51817
184.17791,0.52028
183.93683,0.52154
183.69576,0.52186
183.45469,0.52232
183.21362,0.52430
182.97255,0.52784
182.73148,0.53119
182.49041,0.53226
182.24934,0.53079
182.00827,0.52874
181.76720,0.52843
181.52613,0.53058
181.28506,0.53420
181.04399,0.53823
180.80292,0.54233
180.56185,0.54624
180.32078,0.54944
180.07971,0.55203
179.83864,0.55500
179.59756,0.55914
179.35649,0.56427
179.11542,0.56992
178.87435,0.57612
178.63328,0.58317
178.39221,0.59134
178.15114,0.60109
177.91007,0.61266
177.66900,0.62541
177.42793,0.63843
177.18686,0.65192
176.94579,0.66667
176.70472,0.68255
176.46365,0.69894
176.22258,0.71626
175.98151,0.73555
175.74044,0.75710
175.49937,0.78005
175.25829,0.80310
175.01722,0.82576
174.77615,0.84906
174.53508,0.87388
174.29401,0.89925
174.05294,0.92343
173.81187,0.94599
173.57080,0.96734
173.32973,0.98719
173.08866,1.00465
172.84759,1.01882
172.60652,1.02889
172.36545,1.03478
172.12438,1.03811
171.88331,1.04125
171.64224,1.04418
171.40117,1.04334
171.16010,1.03677
170.91902,1.02832
170.67795,1.02239
170.43688,1.01741
170.19581,1.00870
169.95474,0.99641
169.71367,0.98624
169.47260,0.98208
169.23153,0.98163
168.99046,0.97946
168.74939,0.97299
168.50832,0.96420
168.26725,0.95616
168.02618,0.95013
167.78511,0.94597
167.54404,0.94371
167.30297,0.94358
167.06190,0.94531
166.82083,0.94807
166.57975,0.95132
166.33868,0.95594
166.09761,0.96342
165.85654,0.97303
165.61547,0.98121
165.37440,0.98612
165.13333,0.99180
164.89226,1.00368
164.65119,1.02080
164.41012,1.03704
164.16905,1.04936
163.92798,1.06072
163.68691,1.07437
163.44584,1.08959
163.20477,1.10363
162.96370,1.11576
162.72263,1.12844
162.48156,1.14305
162.24048,1.15533
161.99941,1.15953
161.75834,1.15792
161.51727,1.15884
161.27620,1.16544
161.03513,1.17359
160.79406,1.18007
160.55299,1.18598
160.31192,1.18976
160.07085,1.18429
159.82978,1.16693
159.58871,1.14677
159.34764,1.13472
159.10657,1.13103
158.86550,1.12756
158.62443,1.12009
158.38336,1.11287
158.14229,1.10974
157.90121,1.10756
157.66014,1.10156
157.41907,1.09335
157.17800,1.08913
156.93693,1.09016
156.69586,1.09020
156.45479,1.08407
156.21372,1.07383
155.97265,1.06372
155.73158,1.05440
155.49051,1.04398
155.24944,1.03062
155.00837,1.01414
154.76730,0.99666
154.52623,0.98046
154.28516,0.96572
154.04409,0.95077
153.80302,0.93316
153.56194,0.91182
153.32087,0.88900
153.07980,0.86802
152.83873,0.84878
152.59766,0.82793
152.35659,0.80398
152.11552,0.77950
151.87445,0.75765
151.63338,0.73897
151.39231,0.72237
151.15124,0.70729
150.91017,0.69346
150.66910,0.67924
150.42803,0.66267
150.18696,0.64436
149.94589,0.62696
149.70482,0.61229
149.46375,0.60063
149.22267,0.59162
148.98160,0.58429
148.74053,0.57714
148.49946,0.56938
148.25839,0.56146
148.01732,0.55423
147.77625,0.54838
147.53518,0.54453
147.29411,0.54273
147.05304,0.54200
146.81197,0.54145
146.57090,0.54128
146.32983,0.54220
146.08876,0.54463
145.84769,0.54901
145.60662,0.55529
145.36555,0.56206
145.12448,0.56787
144.88340,0.57326
144.64233,0.57960
144.40126,0.58649
144.16019,0.59187
143.91912,0.59453
143.67805,0.59479
143.43698,0.59325
143.19591,0.58960
142.95484,0.58287
142.71377,0.57276
142.47270,0.56049
142.23163,0.54810
141.99056,0.53722
141.74949,0.52859
141.50842,0.52203
141.26735,0.51653
141.02628,0.51104
140.78521,0.50559
140.54413,0.50156
140.30306,0.50027
140.06199,0.50157
139.82092,0.50437
139.57985,0.50810
139.33878,0.51262
139.09771,0.51746
138.85664,0.52261
138.61557,0.52938
138.37450,0.53898
138.13343,0.55100
137.89236,0.56465
137.65129,0.58041
137.41022,0.59902
137.16915,0.61971
136.92808,0.64046
136.68701,0.66025
136.44594,0.68038
136.20486,0.70309
135.96379,0.72939
135.72272,0.75906
135.48165,0.79170
135.24058,0.82647
134.99951,0.86172
134.75844,0.89726
134.51737,0.93512
134.27630,0.97565
134.03523,1.01481
133.79416,1.04945
133.55309,1.08398
133.31202,1.12635
133.07095,1.17639
132.82988,1.22047
132.58881,1.24283
132.34774,1.24414
132.10667,1.23862
131.86559,1.23255
131.62452,1.21937
131.38345,1.19543
131.14238,1.16781
130.90131,1.14364
130.66024,1.12057
130.41917,1.09091
130.17810,1.05141
129.93703,1.00650
129.69596,0.96337
129.45489,0.92570
129.21382,0.89206
128.97275,0.85841
128.73168,0.82169
128.49061,0.78210
128.24954,0.74252
128.00847,0.70613
127.76740,0.67490
127.52632,0.64902
127.28525,0.62656
127.04418,0.60457
126.80311,0.58152
126.56204,0.55849
126.32097,0.53730
126.07990,0.51863
125.83883,0.50253
125.59776,0.48900
125.35669,0.47728
125.11562,0.46590
124.87455,0.45449
124.63348,0.44439
124.39241,0.43686
124.15134,0.43163
123.91027,0.42744
123.66920,0.42321
123.42812,0.41843
123.18705,0.41347
122.94598,0.40961
122.70491,0.40821
122.46384,0.40954
122.22277,0.41228
121.98170,0.41441
121.74063,0.41515
121.49956,0.41613
121.25849,0.42007
121.01742,0.42820
120.77635,0.43939
120.53528,0.45143
120.29421,0.46299
120.05314,0.47493
119.81207,0.48957
119.57100,0.50818
119.32993,0.52961
119.08885,0.55267
118.84778,0.57843
118.60671,0.60889
118.36564,0.64428
118.12457,0.68281
117.88350,0.72108
117.64243,0.75484
117.40136,0.78146
117.16029,0.80103
116.91922,0.81445
116.67815,0.82034
116.43708,0.81584
116.19601,0.80161
115.95494,0.78337
115.71387,0.76656
115.47280,0.75111
115.23173,0.73283
114.99066,0.71033
114.74958,0.68853
114.50851,0.67405
114.26744,0.66871
114.02637,0.66841
113.78530,0.66829
113.54423,0.66824
113.30316,0.67159
113.06209,0.67895
112.82102,0.68587
112.57995,0.68885
112.33888,0.69219
112.09781,0.70301
111.85674,0.72166
111.61567,0.74109
111.37460,0.75428
111.13353,0.76047
110.89246,0.76328
110.65139,0.76481
110.41031,0.76244
110.16924,0.75293
109.92817,0.73840
109.68710,0.72347
109.44603,0.70784
109.20496,0.68676
108.96389,0.65928
108.72282,0.63087
108.48175,0.60640
108.24068,0.58522
107.99961,0.56424
107.75854,0.54304
107.51747,0.52380
107.27640,0.50747
107.03533,0.49203
106.79426,0.47527
106.55319,0.45820
106.31212,0.44345
106.07104,0.43111
105.82997,0.41868
105.58890,0.40535
105.34783,0.39307
105.10676,0.38281
104.86569,0.37296
104.62462,0.36263
104.38355,0.35336
104.14248,0.34589
103.90141,0.33817
103.66034,0.32900
103.41927,0.32088
103.17820,0.31634
102.93713,0.31371
102.69606,0.30939
102.45499,0.30273
102.21392,0.29610
101.97285,0.29103
101.73177,0.28680
101.49070,0.28264
101.24963,0.27914
101.00856,0.27651
100.76749,0.27365
100.52642,0.27015
100.28535,0.26694
100.04428,0.26419
99.80321,0.26101
99.56214,0.25795
99.32107,0.25653
99.08000,0.25616
98.83893,0.25461
98.59786,0.25156
98.35679,0.24883
98.11572,0.24766
97.87465,0.24823
97.63358,0.25090
97.39250,0.25527
97.15143,0.25963
96.91036,0.26345
96.66929,0.26833
96.42822,0.27481
96.18715,0.28150
95.94608,0.28811
95.70501,0.29567
95.46394,0.30373
95.22287,0.31123
94.98180,0.31831
94.74073,0.32473
94.49966,0.32913
94.25859,0.33137
94.01752,0.33244
93.77645,0.33268
93.53538,0.33239
93.29431,0.33230
93.05323,0.33261
92.81216,0.33348
92.57109,0.33551
92.33002,0.33850
92.08895,0.34136
91.84788,0.34405
91.60681,0.34801
91.36574,0.35506
91.12467,0.36684
90.88360,0.38461
90.64253,0.40931
90.40146,0.44163
90.16039,0.48169
89.91932,0.52850
89.67825,0.57966
89.43718,0.63183
89.19611,0.68130
88.95504,0.72380
88.71396,0.75346
88.47289,0.76308
88.23182,0.74699
87.99075,0.70537
87.74968,0.64666
87.50861,0.58422
87.26754,0.52841
87.02647,0.48256
86.78540,0.44495
86.54433,0.41259
86.30326,0.38368
86.06219,0.35776
85.82112,0.33455
85.58005,0.31341
85.33898,0.29418
85.09791,0.27747
84.85684,0.26335
84.61577,0.25087
84.37469,0.23933
84.13362,0.22911
83.89255,0.22084
83.65148,0.21449
83.41041,0.20948
83.16934,0.20510
82.92827,0.20079
82.68720,0.19633
82.44613,0.19228
82.20506,0.18960
81.96399,0.18841
81.72292,0.18761
81.48185,0.18606
81.24078,0.18396
80.99971,0.18248
80.75864,0.18210
80.51757,0.18159
80.27650,0.17934
80.03542,0.17562
79.79435,0.17246
79.55328,0.17121
79.31221,0.17134
79.07114,0.17149
78.83007,0.17078
78.58900,0.16911
78.34793,0.16683
78.10686,0.16457
77.86579,0.16311
77.62472,0.16272
77.38365,0.16237
77.14258,0.16050
76.90151,0.15724
76.66044,0.15471
76.41937,0.15442
76.17830,0.15542
75.93723,0.15542
75.69615,0.15319
75.45508,0.14966
75.21401,0.14688
74.97294,0.14622
74.73187,0.14756
74.49080,0.15001
74.24973,0.15280
74.00866,0.15552
73.76759,0.15775
73.52652,0.15923
73.28545,0.16010
73.04438,0.16083
72.80331,0.16190
72.56224,0.16366
72.32117,0.16578
72.08010,0.16705
71.83903,0.16682
71.59796,0.16612
71.35688,0.16622
71.11581,0.16706
70.87474,0.16818
70.63367,0.17027
70.39260,0.17522
70.15153,0.18550
69.91046,0.20288
69.66939,0.22635
69.42832,0.25117
69.18725,0.27086
68.94618,0.28028
68.70511,0.27658
68.46404,0.25944
68.22297,0.23298
67.98190,0.20544
67.74083,0.18468
67.49976,0.17387
67.25869,0.17100
67.01761,0.17156
66.77654,0.17110
66.53547,0.16659
66.29440,0.15761
66.05333,0.14665
65.81226,0.13788
65.57119,0.13538
65.33012,0.14137
65.08905,0.15417
64.84798,0.16802
64.60691,0.17688
64.36584,0.17940
64.12477,0.17957
63.88370,0.18206
63.64263,0.18780
63.40156,0.19363
63.16049,0.19474
62.91942,0.18796
62.67834,0.17429
62.43727,0.15900
62.19620,0.14840
61.95513,0.14582
61.71406,0.14908
61.47299,0.15145
61.23192,0.14733
60.99085,0.13844
60.74978,0.13219
60.50871,0.13408
60.26764,0.14301
60.02657,0.15167
59.78550,0.15194
59.54443,0.14395
59.30336,0.13725
59.06229,0.13974
58.82122,0.14968
58.58015,0.15718
58.33907,0.15401
58.09800,0.14465
57.85693,0.14081
57.61586,0.14679
57.37479,0.15559
57.13372,0.15642
56.89265,0.14783
56.65158,0.13991
56.41051,0.14053
56.16944,0.14635
55.92837,0.14759
55.68730,0.14177
55.44623,0.13792
55.20516,0.14336
54.96409,0.15293
54.72302,0.15540
54.48195,0.15047
54.24088,0.14902
53.99980,0.15528
53.75873,0.16030
53.51766,0.15565
53.27659,0.14821
53.03552,0.14977
52.79445,0.15945
52.55338,0.16524
52.31231,0.16295
52.07124,0.16128
51.83017,0.16303
51.58910,0.15868
51.34803,0.14524
51.10696,0.13587
50.86589,0.13903
50.62482,0.14599
50.38375,0.14575
50.14268,0.14306
49.90161,0.14808
49.66053,0.15661
49.41946,0.15900
49.17839,0.16032
48.93732,0.16625
48.69625,0.17059
48.45518,0.17202
48.21411,0.17810
47.97304,0.18497
47.73197,0.18201
47.49090,0.17434
47.24983,0.17228
47.00876,0.17150
46.76769,0.16694
46.52662,0.16377
46.28555,0.16344
46.04448,0.16263
45.80341,0.16310
45.56234,0.16777
45.32126,0.17534
45.08019,0.18355
44.83912,0.18929
44.59805,0.18829
44.35698,0.18139
44.11591,0.17412
43.87484,0.17095
43.63377,0.17528
43.39270,0.18664
43.15163,0.19739
42.91056,0.20191
42.66949,0.20411
42.42842,0.20844
42.18735,0.21134
41.94628,0.20786
41.70521,0.19952
41.46414,0.18972
41.22307,0.17906
40.98199,0.17031
40.74092,0.17097
40.49985,0.18413
40.25878,0.20254
40.01771,0.21654
39.77664,0.22271
39.53557,0.22255
39.29450,0.21902
39.05343,0.21732
38.81236,0.22270
38.57129,0.23459
38.33022,0.24624
38.08915,0.25222
37.84808,0.25573
37.60701,0.26351
37.36594,0.27333
37.12487,0.27680
36.88380,0.27225
36.64272,0.26524
36.40165,0.26027
36.16058,0.25753
35.91951,0.25593
35.67844,0.25668
35.43737,0.26046
35.19630,0.26320
34.95523,0.26400
34.71416,0.26537
34.47309,0.26370
34.23202,0.25515
33.99095,0.24609
33.74988,0.24826
33.50881,0.26436
33.26774,0.28167
33.02667,0.28496
32.78560,0.26705
32.54453,0.22227
32.30345,0.16648
32.06238,0.13828
31.82131,0.13206
31.58024,0.12095
31.33917,0.10005
31.09810,0.08401
30.85703,0.08402
30.61596,0.09053
30.37489,0.08784
30.13382,0.07546
29.89275,0.06574
29.65168,0.06729
29.41061,0.07601
29.16954,0.08288
28.92847,0.08190
28.68740,0.06631
28.44633,0.03276
28.20526,-0.00580
27.96418,-0.03058
27.72311,-0.03506
27.48204,-0.01986
27.24097,0.00685
26.99990,0.02602
26.75883,0.02408
26.51776,0.00104
26.27669,-0.02935
26.03562,-0.05212
25.79455,-0.06491
25.55348,-0.07335
25.31241,-0.07732
25.07134,-0.06971
24.83027,-0.04566
24.58920,-0.00245
24.34813,0.04933
24.10706,0.08563
23.86599,0.09441
23.62491,0.07651
23.38384,0.02296
23.14277,-0.05066
22.90170,-0.08720
22.66063,-0.08538
22.41956,-0.08316
22.17849,-0.08769
21.93742,-0.09261
21.69635,-0.10805
21.45528,-0.14722
21.21421,-0.19281
20.97314,-0.19326
20.73207,-0.13395
20.49100,-0.07524
20.24993,-0.07040
20.00886,-0.11273
19.76779,-0.15835
19.52672,-0.18979
19.28564,-0.21842
19.04457,-0.23127
18.80350,-0.23343
18.56243,-0.24116
18.32136,-0.24887
18.08029,-0.26925
17.83922,-0.30414
17.59815,-0.33067
17.35708,-0.29565
17.11601,-0.22957
16.87494,-0.21555
16.63387,-0.25735
16.39280,-0.31869
16.15173,-0.35789
15.91066,-0.34112
15.66959,-0.33367
15.42852,-0.32903
15.18745,-0.30800
14.94637,-0.29018
14.70530,-0.28509
14.46423,-0.27281
14.22316,-0.21620
13.98209,-0.12692
13.74102,-0.06682
13.49995,-0.07562
13.25888,-0.16856
13.01781,-0.31862
12.77674,-0.40815
12.53567,-0.38794
12.29460,-0.34984
12.05353,-0.31851
11.81246,-0.28577
11.57139,-0.25175
11.33032,-0.16464
11.08925,0.07806
10.84818,0.31838
10.60710,0.33279
10.36603,0.16904
10.12496,0.04858
9.88389,0.02266
9.64282,-0.08556
9.40175,-0.03924
9.16068,0.05735
8.91961,0.00694
8.67854,0.04452
8.43747,0.33214
8.19640,0.48831
7.95533,0.45111
7.71426,0.29467
7.47319,0.20222
7.23212,0.11194
6.99105,0.20677
6.74998,0.32023
6.50891,0.27952
6.26783,0.14610
6.02676,0.06644
5.78569,-0.03175
5.54462,-0.13196
5.30355,-0.19356
5.06248,-0.26738
4.82141,-0.30397
4.58034,-0.28504
4.33927,-0.29151
4.09820,-0.31307
3.85713,-0.26303
3.61606,-0.14967
3.37499,-0.06342
3.13392,-0.07090
2.89285,-0.13581
2.65178,-0.15277
2.41071,-0.17829
2.16964,-0.26083
1.92856,-0.33154
1.68749,-0.33905
1.44642,-0.31775
1.20535,-0.30672
0.96428,-0.30404
0.72321,-0.31861
0.48214,-0.37181
0.24107,-0.38441
-0.00000,-0.27438
