399.69498,1.78865
399.45391,1.82210
399.21284,1.88819
398.97177,1.94340
398.73070,1.92073
398.48963,1.84993
398.24856,1.80009
398.00749,1.79552
397.76642,1.83751
397.52535,1.87878
397.28428,1.85561
397.04321,1.78168
396.80214,1.71587
396.56107,1.70117
396.32000,1.75270
396.07892,1.86105
395.83785,1.98259
395.59678,2.05746
395.35571,2.04334
395.11464,1.95531
394.87357,1.90914
394.63250,1.95181
394.39143,2.07652
394.15036,2.09810
393.90929,1.97878
393.66822,1.90690
393.42715,1.88612
393.18608,1.87013
392.94501,1.84281
392.70394,1.81170
392.46287,1.81064
392.22180,1.87113
391.98073,2.00240
391.73965,2.17290
391.49858,2.29096
391.25751,2.26882
391.01644,2.18657
390.77537,2.18894
390.53430,2.12935
390.29323,2.02368
390.05216,1.93117
389.81109,1.88039
389.57002,1.95543
389.32895,2.13244
389.08788,2.10498
388.84681,2.09539
388.60574,2.17091
388.36467,2.21838
388.12360,2.21323
387.88253,2.28009
387.64146,2.22622
387.40038,2.13304
387.15931,2.08457
386.91824,2.11069
386.67717,2.13247
386.43610,2.16824
386.19503,2.27114
385.95396,2.31063
385.71289,2.33377
385.47182,2.36863
385.23075,2.27467
384.98968,2.28189
384.74861,2.50433
384.50754,2.56617
384.26647,2.31449
384.02540,2.21700
383.78433,2.04825
383.54326,1.86295
383.30219,1.76170
383.06111,1.69139
382.82004,1.62963
382.57897,1.60721
382.33790,1.66249
382.09683,1.76495
381.85576,1.81112
381.61469,1.80872
381.37362,1.88389
381.13255,2.04811
380.89148,2.13356
380.65041,2.18399
380.40934,2.13095
380.16827,2.01037
379.92720,1.93344
379.68613,1.93894
379.44506,1.92287
379.20399,1.94273
378.96292,1.71475
378.72184,1.57943
378.48077,1.72833
378.23970,2.18786
377.99863,2.17415
377.75756,2.00664
377.51649,2.06203
377.27542,2.13846
377.03435,2.05421
376.79328,1.91841
376.55221,1.82921
376.31114,1.78500
376.07007,1.78440
375.82900,1.86335
375.58793,2.03254
375.34686,2.15014
375.10579,2.14844
374.86472,2.04211
374.62365,1.95957
374.38257,1.94568
374.14150,1.94933
373.90043,1.93721
373.65936,1.89496
373.41829,1.85188
373.17722,1.83639
372.93615,1.82787
372.69508,1.80705
372.45401,1.76710
372.21294,1.74343
371.97187,1.76310
371.73080,1.78969
371.48973,1.76992
371.24866,1.71397
371.00759,1.65908
370.76652,1.62767
370.52545,1.62470
370.28437,1.63971
370.04330,1.65214
369.80223,1.64954
369.56116,1.63221
369.32009,1.60388
369.07902,1.56696
368.83795,1.52119
368.59688,1.47789
368.35581,1.44677
368.11474,1.42853
367.87367,1.42659
367.63260,1.43902
367.39153,1.45410
367.15046,1.46132
366.90939,1.46581
366.66832,1.48112
366.42725,1.50067
366.18618,1.49630
365.94510,1.46294
365.70403,1.42246
365.46296,1.39101
365.22189,1.38064
364.98082,1.39439
364.73975,1.41818
364.49868,1.43582
364.25761,1.44609
364.01654,1.45826
363.77547,1.47488
363.53440,1.48085
363.29333,1.45877
363.05226,1.41655
362.81119,1.38459
362.57012,1.38520
362.32905,1.40894
362.08798,1.42128
361.84691,1.40588
361.60583,1.38330
361.36476,1.37178
361.12369,1.36795
360.88262,1.36428
360.64155,1.36175
360.40048,1.36513
360.15941,1.37426
359.91834,1.38174
359.67727,1.37680
359.43620,1.35745
359.19513,1.33267
358.95406,1.31607
358.71299,1.32088
358.47192,1.34401
358.23085,1.36327
357.98978,1.35842
357.74871,1.33227
357.50764,1.30658
357.26656,1.29756
357.02549,1.30670
356.78442,1.32547
356.54335,1.34220
356.30228,1.35071
356.06121,1.35478
355.82014,1.36141
355.57907,1.37189
355.33800,1.38158
355.09693,1.38503
354.85586,1.37941
354.61479,1.36471
354.37372,1.34523
354.13265,1.33207
353.89158,1.33928
353.65051,1.37284
353.40944,1.41948
353.16837,1.45195
352.92729,1.45617
352.68622,1.44330
352.44515,1.42744
352.20408,1.40866
351.96301,1.38040
351.72194,1.34791
351.48087,1.32694
351.23980,1.32330
350.99873,1.32978
350.75766,1.34426
350.51659,1.37282
350.27552,1.41182
350.03445,1.44023
349.79338,1.44356
349.55231,1.42941
349.31124,1.40674
349.07017,1.37825
348.82910,1.35284
348.58802,1.34736
348.34695,1.36837
348.10588,1.39842
347.86481,1.41457
347.62374,1.41541
347.38267,1.41327
347.14160,1.41443
346.90053,1.41978
346.65946,1.43328
346.41839,1.45661
346.17732,1.48111
345.93625,1.49653
345.69518,1.50621
345.45411,1.51999
345.21304,1.54041
344.97197,1.55950
344.73090,1.56377
344.48983,1.55020
344.24875,1.53025
344.00768,1.52226
343.76661,1.53732
343.52554,1.56326
343.28447,1.57262
343.04340,1.55319
342.80233,1.52446
342.56126,1.52030
342.32019,1.55403
342.07912,1.61429
341.83805,1.68029
341.59698,1.73506
341.35591,1.75076
341.11484,1.69131
340.87377,1.60794
340.63270,1.56672
340.39163,1.58207
340.15056,1.62157
339.90948,1.64074
339.66841,1.63931
339.42734,1.64865
339.18627,1.69170
338.94520,1.76063
338.70413,1.82073
338.46306,1.83914
338.22199,1.83136
337.98092,1.85001
337.73985,1.89334
337.49878,1.89556
337.25771,1.85591
337.01664,1.85657
336.77557,1.91552
336.53450,1.94912
336.29343,1.94090
336.05236,1.91930
335.81129,1.86655
335.57021,1.82152
335.32914,1.80804
335.08807,1.81877
334.84700,1.86662
334.60593,1.95414
334.36486,1.99964
334.12379,1.96285
333.88272,1.89110
333.64165,1.83828
333.40058,1.79729
333.15951,1.74326
332.91844,1.69932
332.67737,1.69381
332.43630,1.69556
332.19523,1.66756
331.95416,1.63966
331.71309,1.64620
331.47202,1.67696
331.23094,1.69491
330.98987,1.68384
330.74880,1.66040
330.50773,1.64241
330.26666,1.63561
330.02559,1.63108
329.78452,1.61406
329.54345,1.58871
329.30238,1.57338
329.06131,1.57601
328.82024,1.58639
328.57917,1.59118
328.33810,1.58497
328.09703,1.58614
327.85596,1.61109
327.61489,1.64528
327.37382,1.68314
327.13275,1.72618
326.89167,1.75668
326.65060,1.76076
326.40953,1.72588
326.16846,1.69155
325.92739,1.67881
325.68632,1.69879
325.44525,1.77954
325.20418,1.91276
324.96311,2.03074
324.72204,2.04356
324.48097,1.92638
324.23990,1.84789
323.99883,1.78830
323.75776,1.69098
323.51669,1.61530
323.27562,1.58001
323.03455,1.57175
322.79348,1.57917
322.55240,1.60755
322.31133,1.66493
322.07026,1.76001
321.82919,1.87504
321.58812,1.94662
321.34705,1.93456
321.10598,1.94178
320.86491,2.03446
320.62384,2.11537
320.38277,1.98035
320.14170,1.85580
319.90063,1.85079
319.65956,1.90923
319.41849,1.93412
319.17742,1.92536
318.93635,1.95053
318.69528,2.02611
318.45421,2.12653
318.21313,2.16649
317.97206,2.12017
317.73099,2.07963
317.48992,2.03425
317.24885,1.89297
317.00778,1.72825
316.76671,1.65529
316.52564,1.69991
316.28457,1.83596
316.04350,1.96328
315.80243,1.94763
315.56136,1.89054
315.32029,1.86417
315.07922,1.87283
314.83815,1.94240
314.59708,1.95280
314.35601,1.87743
314.11494,1.96011
313.87386,2.27051
313.63279,2.35360
313.39172,2.28532
313.15065,2.21047
312.90958,2.07238
312.66851,1.98812
312.42744,1.89468
312.18637,1.78444
311.94530,1.74788
311.70423,1.82326
311.46316,1.96945
311.22209,2.04551
310.98102,2.08214
310.73995,2.20747
310.49888,2.41609
310.25781,2.36072
310.01674,2.08200
309.77567,1.97605
309.53459,2.03203
309.29352,2.09798
309.05245,2.12318
308.81138,2.20086
308.57031,2.12533
308.32924,2.03555
308.08817,1.95251
307.84710,1.82272
307.60603,1.71218
307.36496,1.68224
307.12389,1.75348
306.88282,1.87547
306.64175,1.93195
306.40068,1.88823
306.15961,1.77238
305.91854,1.67343
305.67747,1.62722
305.43640,1.61321
305.19532,1.61267
304.95425,1.62936
304.71318,1.65305
304.47211,1.64696
304.23104,1.59764
303.98997,1.54185
303.74890,1.52200
303.50783,1.54662
303.26676,1.58325
303.02569,1.57850
302.78462,1.52027
302.54355,1.44428
302.30248,1.38595
302.06141,1.36015
301.82034,1.35841
301.57927,1.35812
301.33820,1.34547
301.09713,1.32718
300.85605,1.31428
300.61498,1.30635
300.37391,1.29528
300.13284,1.27670
299.89177,1.25387
299.65070,1.23227
299.40963,1.21502
299.16856,1.20735
298.92749,1.21721
298.68642,1.24339
298.44535,1.26852
298.20428,1.27346
297.96321,1.25891
297.72214,1.24037
297.48107,1.22655
297.24000,1.21512
296.99893,1.20402
296.75786,1.19761
296.51678,1.19828
296.27571,1.19790
296.03464,1.18804
295.79357,1.17614
295.55250,1.17712
295.31143,1.19124
295.07036,1.20079
294.82929,1.18928
294.58822,1.15939
294.34715,1.12780
294.10608,1.10852
293.86501,1.10732
293.62394,1.12107
293.38287,1.13730
293.14180,1.14250
292.90073,1.13381
292.65966,1.11830
292.41859,1.10353
292.17751,1.09389
291.93644,1.09159
291.69537,1.09396
291.45430,1.09217
291.21323,1.07973
290.97216,1.06134
290.73109,1.04852
290.49002,1.04884
290.24895,1.06033
290.00788,1.07362
289.76681,1.07922
289.52574,1.07452
289.28467,1.06446
289.04360,1.05625
288.80253,1.05349
288.56146,1.05437
288.32039,1.05555
288.07932,1.05527
287.83824,1.05156
287.59717,1.04303
287.35610,1.03321
287.11503,1.02798
286.87396,1.02820
286.63289,1.03034
286.39182,1.03372
286.15075,1.03928
285.90968,1.04391
285.66861,1.04381
285.42754,1.04046
285.18647,1.03734
284.94540,1.03463
284.70433,1.03174
284.46326,1.03051
284.22219,1.03108
283.98112,1.02967
283.74005,1.02391
283.49897,1.01570
283.25790,1.00864
283.01683,1.00700
282.77576,1.01386
282.53469,1.02595
282.29362,1.03446
282.05255,1.03483
281.81148,1.02895
281.57041,1.01717
281.32934,1.00030
281.08827,0.98615
280.84720,0.98206
280.60613,0.98625
280.36506,0.99299
280.12399,1.00067
279.88292,1.00969
279.64185,1.01718
279.40078,1.01987
279.15970,1.01936
278.91863,1.01888
278.67756,1.01798
278.43649,1.01427
278.19542,1.00766
277.95435,1.00079
277.71328,0.99642
277.47221,0.99544
277.23114,0.99753
276.99007,1.00315
276.74900,1.01259
276.50793,1.02239
276.26686,1.02708
276.02579,1.02622
275.78472,1.02385
275.54365,1.02127
275.30258,1.01755
275.06151,1.01440
274.82043,1.01423
274.57936,1.01656
274.33829,1.02054
274.09722,1.02700
273.85615,1.03479
273.61508,1.03847
273.37401,1.03418
273.13294,1.02602
272.89187,1.02175
272.65080,1.02429
272.40973,1.02963
272.16866,1.03255
271.92759,1.03222
271.68652,1.02961
271.44545,1.02409
271.20438,1.01618
270.96331,1.00972
270.72224,1.00845
270.48116,1.01389
270.24009,1.02564
269.99902,1.04091
269.75795,1.05420
269.51688,1.05897
269.27581,1.05305
269.03474,1.04253
268.79367,1.03680
268.55260,1.03954
268.31153,1.04779
268.07046,1.05785
267.82939,1.06781
267.58832,1.07522
267.34725,1.07761
267.10618,1.07688
266.86511,1.07883
266.62404,1.08659
266.38297,1.09703
266.14189,1.10465
265.90082,1.10828
265.65975,1.11137
265.41868,1.11626
265.17761,1.12222
264.93654,1.12817
264.69547,1.13426
264.45440,1.14138
264.21333,1.14659
263.97226,1.14543
263.73119,1.14253
263.49012,1.14898
263.24905,1.16889
263.00798,1.19596
262.76691,1.22131
262.52584,1.23906
262.28477,1.24631
262.04370,1.24602
261.80262,1.24930
261.56155,1.26432
261.32048,1.28237
261.07941,1.28402
260.83834,1.26471
260.59727,1.24369
260.35620,1.24300
260.11513,1.26894
259.87406,1.31247
259.63299,1.35869
259.39192,1.39500
259.15085,1.41959
258.90978,1.44168
258.66871,1.46618
258.42764,1.49081
258.18657,1.52139
257.94550,1.56425
257.70443,1.60928
257.46335,1.64929
257.22228,1.69326
256.98121,1.73253
256.74014,1.74103
256.49907,1.72951
256.25800,1.72957
256.01693,1.74414
255.77586,1.75703
255.53479,1.76682
255.29372,1.78913
255.05265,1.83875
254.81158,1.91388
254.57051,1.98315
254.32944,2.00492
254.08837,1.98380
253.84730,1.98934
253.60623,2.07365
253.36516,2.19229
253.12408,2.21781
252.88301,2.12920
252.64194,2.09084
252.40087,2.21672
252.15980,2.47092
251.91873,2.64684
251.67766,2.61643
251.43659,2.51426
251.19552,2.34686
250.95445,2.24228
250.71338,2.28181
250.47231,2.21983
250.23124,2.06126
249.99017,2.02175
249.74910,2.09198
249.50803,2.13655
249.26696,2.06090
249.02589,2.01951
248.78481,2.17883
248.54374,2.61795
248.30267,2.57250
248.06160,2.36491
247.82053,2.33516
247.57946,2.57682
247.33839,2.62556
247.09732,2.33802
246.85625,2.07209
246.61518,1.95147
246.37411,1.95592
246.13304,1.96955
245.89197,1.94824
245.65090,1.97320
245.40983,2.02416
245.16876,2.03906
244.92769,1.99399
244.68661,1.92310
244.44554,1.85543
244.20447,1.80346
243.96340,1.76551
243.72233,1.71250
243.48126,1.62986
243.24019,1.54350
242.99912,1.47341
242.75805,1.41610
242.51698,1.36114
242.27591,1.30569
242.03484,1.25536
241.79377,1.21521
241.55270,1.18205
241.31163,1.14966
241.07056,1.11806
240.82949,1.09082
240.58842,1.06694
240.34734,1.04197
240.10627,1.01471
239.86520,0.98804
239.62413,0.96400
239.38306,0.94174
239.14199,0.92028
238.90092,0.90092
238.65985,0.88506
238.41878,0.87089
238.17771,0.85467
237.93664,0.83553
237.69557,0.81632
237.45450,0.79998
237.21343,0.78671
236.97236,0.77495
236.73129,0.76376
236.49022,0.75382
236.24915,0.74661
236.00807,0.74229
235.76700,0.73799
235.52593,0.72973
235.28486,0.71822
235.04379,0.70984
234.80272,0.70860
234.56165,0.71098
234.32058,0.71178
234.07951,0.71141
233.83844,0.71293
233.59737,0.71529
233.35630,0.71468
233.11523,0.70999
232.87416,0.70343
232.63309,0.69788
232.39202,0.69528
232.15095,0.69529
231.90988,0.69498
231.66880,0.69128
231.42773,0.68471
231.18666,0.67889
230.94559,0.67586
230.70452,0.67435
230.46345,0.67310
230.22238,0.67298
229.98131,0.67470
229.74024,0.67672
229.49917,0.67744
229.25810,0.67739
229.01703,0.67773
228.77596,0.67783
228.53489,0.67535
228.29382,0.66952
228.05275,0.66339
227.81168,0.66088
227.57061,0.66253
227.32953,0.66571
227.08846,0.66766
226.84739,0.66710
226.60632,0.66476
226.36525,0.66326
226.12418,0.66480
225.88311,0.66859
225.64204,0.67191
225.40097,0.67328
225.15990,0.67346
224.91883,0.67426
224.67776,0.67661
224.43669,0.67935
224.19562,0.68060
223.95455,0.68139
223.71348,0.68547
223.47241,0.69338
223.23134,0.69966
222.99026,0.69909
222.74919,0.69423
222.50812,0.69249
222.26705,0.69729
222.02598,0.70589
221.78491,0.71431
221.54384,0.72129
221.30277,0.72782
221.06170,0.73499
220.82063,0.74315
220.57956,0.75224
220.33849,0.76160
220.09742,0.76965
219.85635,0.77608
219.61528,0.78313
219.37421,0.79304
219.13314,0.80559
218.89207,0.81932
218.65099,0.83260
218.40992,0.84338
218.16885,0.85083
217.92778,0.85765
217.68671,0.86730
217.44564,0.87980
217.20457,0.89290
216.96350,0.90604
216.72243,0.91984
216.48136,0.93277
216.24029,0.94162
215.99922,0.94611
215.75815,0.95039
215.51708,0.95927
215.27601,0.97464
215.03494,0.99431
214.79387,1.01213
214.55280,1.02298
214.31172,1.02833
214.07065,1.03172
213.82958,1.03418
213.58851,1.03723
213.34744,1.04393
213.10637,1.05489
212.86530,1.06586
212.62423,1.07163
212.38316,1.07185
212.14209,1.07111
211.90102,1.07363
211.65995,1.07864
211.41888,1.08167
211.17781,1.08119
210.93674,1.08146
210.69567,1.08643
210.45460,1.09479
210.21353,1.10278
209.97245,1.10787
209.73138,1.10827
209.49031,1.10344
209.24924,1.09602
209.00817,1.08906
208.76710,1.08210
208.52603,1.07298
208.28496,1.06257
208.04389,1.05518
207.80282,1.05442
207.56175,1.05894
207.32068,1.06064
207.07961,1.05334
206.83854,1.03955
206.59747,1.02474
206.35640,1.01223
206.11533,1.00393
205.87426,1.00045
205.63318,0.99864
205.39211,0.99262
205.15104,0.97972
204.90997,0.96451
204.66890,0.95415
204.42783,0.94892
204.18676,0.94055
203.94569,0.92305
203.70462,0.90085
203.46355,0.88184
203.22248,0.86893
202.98141,0.86027
202.74034,0.85259
202.49927,0.84303
202.25820,0.83029
202.01713,0.81480
201.77606,0.79818
201.53499,0.78314
201.29391,0.77202
201.05284,0.76423
200.81177,0.75669
200.57070,0.74716
200.32963,0.73574
200.08856,0.72377
199.84749,0.71270
199.60642,0.70342
199.36535,0.69563
199.12428,0.68796
198.88321,0.67918
198.64214,0.66935
198.40107,0.65952
198.16000,0.65029
197.91893,0.64169
197.67786,0.63417
197.43679,0.62840
197.19572,0.62352
196.95464,0.61772
196.71357,0.61088
196.47250,0.60418
196.23143,0.59702
195.99036,0.58744
195.74929,0.57565
195.50822,0.56430
195.26715,0.55522
195.02608,0.54841
194.78501,0.54333
194.54394,0.53926
194.30287,0.53566
194.06180,0.53294
193.82073,0.53130
193.57966,0.52890
193.33859,0.52336
193.09752,0.51524
192.85645,0.50823
192.61537,0.50540
192.37430,0.50575
192.13323,0.50532
191.89216,0.50199
191.65109,0.49765
191.41002,0.49489
191.16895,0.49395
190.92788,0.49338
190.68681,0.49138
190.44574,0.48670
190.20467,0.48056
189.96360,0.47653
189.72253,0.47628
189.48146,0.47720
189.24039,0.47581
188.99932,0.47170
188.75825,0.46664
188.51718,0.46194
188.27610,0.45797
188.03503,0.45531
187.79396,0.45498
187.55289,0.45749
187.31182,0.46169
187.07075,0.46495
186.82968,0.46531
186.58861,0.46357
186.34754,0.46202
186.10647,0.46149
185.86540,0.46115
185.62433,0.46062
185.38326,0.46042
185.14219,0.46068
184.90112,0.46119
184.66005,0.46224
184.41898,0.46374
184.17791,0.46472
183.93683,0.46505
183.69576,0.46624
183.45469,0.46905
183.21362,0.47238
182.97255,0.47507
182.73148,0.47684
182.49041,0.47731
182.24934,0.47649
182.00827,0.47579
181.76720,0.47688
181.52613,0.47995
181.28506,0.48377
181.04399,0.48680
180.80292,0.48871
180.56185,0.49074
180.32078,0.49397
180.07971,0.49753
179.83864,0.50009
179.59756,0.50210
179.35649,0.50487
179.11542,0.50866
178.87435,0.51331
178.63328,0.51943
178.39221,0.52771
178.15114,0.53783
177.91007,0.54843
177.66900,0.55851
177.42793,0.56841
177.18686,0.57874
176.94579,0.58943
176.70472,0.60083
176.46365,0.61384
176.22258,0.62855
175.98151,0.64462
175.74044,0.66286
175.49937,0.68404
175.25829,0.70604
175.01722,0.72485
174.77615,0.73875
174.53508,0.75025
174.29401,0.76391
174.05294,0.78224
173.81187,0.80331
173.57080,0.82243
173.32973,0.83669
173.08866,0.84776
172.84759,0.85938
172.60652,0.87205
172.36545,0.88188
172.12438,0.88532
171.88331,0.88269
171.64224,0.87666
171.40117,0.87047
171.16010,0.86783
170.91902,0.87044
170.67795,0.87503
170.43688,0.87616
170.19581,0.87248
169.95474,0.86654
169.71367,0.85875
169.47260,0.84730
169.23153,0.83497
168.99046,0.82811
168.74939,0.82791
168.50832,0.82855
168.26725,0.82469
168.02618,0.81808
167.78511,0.81371
167.54404,0.81216
167.30297,0.80959
167.06190,0.80427
166.82083,0.79941
166.57975,0.79909
166.33868,0.80427
166.09761,0.81184
165.85654,0.81768
165.61547,0.82176
165.37440,0.82826
165.13333,0.83938
164.89226,0.85195
164.65119,0.86166
164.41012,0.86797
164.16905,0.87319
163.92798,0.87997
163.68691,0.89054
163.44584,0.90600
163.20477,0.92428
162.96370,0.94100
162.72263,0.95356
162.48156,0.96172
162.24048,0.96469
161.99941,0.96257
161.75834,0.95940
161.51727,0.95997
161.27620,0.96392
161.03513,0.96598
160.79406,0.96281
160.55299,0.95628
160.31192,0.94951
160.07085,0.94502
159.82978,0.94461
159.58871,0.94715
159.34764,0.94804
159.10657,0.94349
158.86550,0.93489
158.62443,0.92666
158.38336,0.92039
158.14229,0.91396
157.90121,0.90566
157.66014,0.89675
157.41907,0.88995
157.17800,0.88727
156.93693,0.88909
156.69586,0.89286
156.45479,0.89328
156.21372,0.88683
155.97265,0.87638
155.73158,0.86785
155.49051,0.86315
155.24944,0.85839
155.00837,0.84908
154.76730,0.83586
154.52623,0.82232
154.28516,0.80967
154.04409,0.79642
153.80302,0.78154
153.56194,0.76523
153.32087,0.74744
153.07980,0.72854
152.83873,0.71097
152.59766,0.69702
152.35659,0.68450
152.11552,0.66893
151.87445,0.65037
151.63338,0.63322
151.39231,0.61959
151.15124,0.60800
150.91017,0.59732
150.66910,0.58752
150.42803,0.57706
150.18696,0.56370
149.94589,0.54806
149.70482,0.53378
149.46375,0.52348
149.22267,0.51607
148.98160,0.50883
148.74053,0.50103
148.49946,0.49352
148.25839,0.48629
148.01732,0.47899
147.77625,0.47277
147.53518,0.46924
147.29411,0.46819
147.05304,0.46782
146.81197,0.46663
146.57090,0.46449
146.32983,0.46242
146.08876,0.46200
145.84769,0.46466
145.60662,0.47123
145.36555,0.48143
145.12448,0.49344
144.88340,0.50414
144.64233,0.51090
144.40126,0.51366
144.16019,0.51489
143.91912,0.51673
143.67805,0.51853
143.43698,0.51758
143.19591,0.51236
142.95484,0.50432
142.71377,0.49610
142.47270,0.48859
142.23163,0.48072
141.99056,0.47187
141.74949,0.46297
141.50842,0.45513
141.26735,0.44864
141.02628,0.44330
140.78521,0.43882
140.54413,0.43517
140.30306,0.43290
140.06199,0.43264
139.82092,0.43453
139.57985,0.43842
139.33878,0.44410
139.09771,0.45046
138.85664,0.45601
138.61557,0.46096
138.37450,0.46745
138.13343,0.47714
137.89236,0.48971
137.65129,0.50361
137.41022,0.51762
137.16915,0.53201
136.92808,0.54867
136.68701,0.56887
136.44594,0.59076
136.20486,0.61088
135.96379,0.62876
135.72272,0.64794
135.48165,0.67203
135.24058,0.70080
134.99951,0.73029
134.75844,0.75723
134.51737,0.78287
134.27630,0.81062
134.03523,0.83984
133.79416,0.86555
133.55309,0.88509
133.31202,0.90014
133.07095,0.91184
132.82988,0.91903
132.58881,0.92312
132.34774,0.92892
132.10667,0.93832
131.86559,0.94774
131.62452,0.95196
131.38345,0.94641
131.14238,0.92860
130.90131,0.90365
130.66024,0.88284
130.41917,0.87101
130.17810,0.86122
129.93703,0.84376
129.69596,0.81505
129.45489,0.77631
129.21382,0.73186
128.97275,0.68966
128.73168,0.65590
128.49061,0.62957
128.24954,0.60566
128.00847,0.58160
127.76740,0.55815
127.52632,0.53644
127.28525,0.51641
127.04418,0.49761
126.80311,0.47988
126.56204,0.46305
126.32097,0.44713
126.07990,0.43286
125.83883,0.42112
125.59776,0.41139
125.35669,0.40226
125.11562,0.39339
124.87455,0.38518
124.63348,0.37734
124.39241,0.36938
124.15134,0.36161
123.91027,0.35431
123.66920,0.34732
123.42812,0.34123
123.18705,0.33692
122.94598,0.33414
122.70491,0.33261
122.46384,0.33327
122.22277,0.33628
121.98170,0.33955
121.74063,0.34120
121.49956,0.34236
121.25849,0.34584
121.01742,0.35275
120.77635,0.36158
120.53528,0.37041
120.29421,0.37945
120.05314,0.39076
119.81207,0.40592
119.57100,0.42391
119.32993,0.44166
119.08885,0.45750
118.84778,0.47412
118.60671,0.49662
118.36564,0.52670
118.12457,0.55974
117.88350,0.58900
117.64243,0.61154
117.40136,0.62813
117.16029,0.64034
116.91922,0.64943
116.67815,0.65520
116.43708,0.65525
116.19601,0.64845
115.95494,0.63711
115.71387,0.62402
115.47280,0.61066
115.23173,0.59736
114.99066,0.58301
114.74958,0.56650
114.50851,0.54987
114.26744,0.53764
114.02637,0.53122
113.78530,0.52820
113.54423,0.52763
113.30316,0.53039
113.06209,0.53465
112.82102,0.53784
112.57995,0.54252
112.33888,0.55215
112.09781,0.56221
111.85674,0.56461
111.61567,0.56024
111.37460,0.55777
111.13353,0.56139
110.89246,0.56771
110.65139,0.57296
110.41031,0.57607
110.16924,0.57493
109.92817,0.56630
109.68710,0.55108
109.44603,0.53472
109.20496,0.52061
108.96389,0.50638
108.72282,0.48863
108.48175,0.46800
108.24068,0.44761
107.99961,0.42904
107.75854,0.41208
107.51747,0.39631
107.27640,0.38115
107.03533,0.36594
106.79426,0.35124
106.55319,0.33897
106.31212,0.33042
106.07104,0.32444
105.82997,0.31775
105.58890,0.30799
105.34783,0.29665
105.10676,0.28736
104.86569,0.28148
104.62462,0.27701
104.38355,0.27192
104.14248,0.26640
103.90141,0.26101
103.66034,0.25472
103.41927,0.24614
103.17820,0.23574
102.93713,0.22569
102.69606,0.21808
102.45499,0.21374
102.21392,0.21203
101.97285,0.21167
101.73177,0.21147
101.49070,0.21072
101.24963,0.20947
101.00856,0.20804
100.76749,0.20607
100.52642,0.20260
100.28535,0.19744
100.04428,0.19186
99.80321,0.18751
99.56214,0.18529
99.32107,0.18484
99.08000,0.18481
98.83893,0.18396
98.59786,0.18263
98.35679,0.18220
98.11572,0.18338
97.87465,0.18546
97.63358,0.18723
97.39250,0.18854
97.15143,0.19057
96.91036,0.19438
96.66929,0.19971
96.42822,0.20561
96.18715,0.21164
95.94608,0.21814
95.70501,0.22569
95.46394,0.23421
95.22287,0.24218
94.98180,0.24766
94.74073,0.25047
94.49966,0.25215
94.25859,0.25370
94.01752,0.25479
93.77645,0.25502
93.53538,0.25487
93.29431,0.25489
93.05323,0.25502
92.81216,0.25516
92.57109,0.25591
92.33002,0.25788
92.08895,0.26092
91.84788,0.26481
91.60681,0.27001
91.36574,0.27720
91.12467,0.28734
90.88360,0.30207
90.64253,0.32268
90.40146,0.34860
90.16039,0.37858
89.91932,0.41296
89.67825,0.45274
89.43718,0.49588
89.19611,0.53589
88.95504,0.56512
88.71396,0.57893
88.47289,0.57635
88.23182,0.55941
87.99075,0.53134
87.74968,0.49524
87.50861,0.45564
87.26754,0.41814
87.02647,0.38513
86.78540,0.35494
86.54433,0.32611
86.30326,0.29947
86.06219,0.27594
85.82112,0.25519
85.58005,0.23694
85.33898,0.22146
85.09791,0.20867
84.85684,0.19775
84.61577,0.18791
84.37469,0.17912
84.13362,0.17168
83.89255,0.16534
83.65148,0.15912
83.41041,0.15212
83.16934,0.14438
82.92827,0.13744
82.68720,0.13313
82.44613,0.13136
82.20506,0.12984
81.96399,0.12682
81.72292,0.12303
81.48185,0.12026
81.24078,0.11907
80.99971,0.11839
80.75864,0.11687
80.51757,0.11421
80.27650,0.11158
80.03542,0.11050
79.79435,0.11087
79.55328,0.11069
79.31221,0.10847
79.07114,0.10522
78.83007,0.10316
78.58900,0.10308
78.34793,0.10390
78.10686,0.10415
77.86579,0.10299
77.62472,0.10051
77.38365,0.09756
77.14258,0.09491
76.90151,0.09282
76.66044,0.09164
76.41937,0.09170
76.17830,0.09229
75.93723,0.09174
75.69615,0.08916
75.45508,0.08538
75.21401,0.08222
74.97294,0.08095
74.73187,0.08148
74.49080,0.08322
74.24973,0.08558
74.00866,0.08755
73.76759,0.08785
73.52652,0.08641
73.28545,0.08470
73.04438,0.08432
72.80331,0.08550
72.56224,0.08740
72.32117,0.08914
72.08010,0.09046
71.83903,0.09146
71.59796,0.09258
71.35688,0.09484
71.11581,0.09916
70.87474,0.10498
70.63367,0.11034
70.39260,0.11443
70.15153,0.11926
69.91046,0.12758
69.66939,0.13979
69.42832,0.15352
69.18725,0.16530
68.94618,0.17168
68.70511,0.17015
68.46404,0.16085
68.22297,0.14699
67.98190,0.13273
67.74083,0.12101
67.49976,0.11273
67.25869,0.10716
67.01761,0.10293
66.77654,0.09904
66.53547,0.09474
66.29440,0.08921
66.05333,0.08245
65.81226,0.07663
65.57119,0.07487
65.33012,0.07808
65.08905,0.08381
64.84798,0.08893
64.60691,0.09318
64.36584,0.09845
64.12477,0.10460
63.88370,0.10890
63.64263,0.10993
63.40156,0.10927
63.16049,0.10815
62.91942,0.10527
62.67834,0.09928
62.43727,0.09128
62.19620,0.08388
61.95513,0.07880
61.71406,0.07606
61.47299,0.07476
61.23192,0.07360
60.99085,0.07123
60.74978,0.06736
60.50871,0.06358
60.26764,0.06217
60.02657,0.06407
59.78550,0.06846
59.54443,0.07370
59.30336,0.07781
59.06229,0.07892
58.82122,0.07669
58.58015,0.07272
58.33907,0.06867
58.09800,0.06484
57.85693,0.06149
57.61586,0.05932
57.37479,0.05826
57.13372,0.05751
56.89265,0.05675
56.65158,0.05554
56.41051,0.05322
56.16944,0.05059
55.92837,0.04967
55.68730,0.05101
55.44623,0.05284
55.20516,0.05316
54.96409,0.05231
54.72302,0.05312
54.48195,0.05756
54.24088,0.06327
53.99980,0.06585
53.75873,0.06422
53.51766,0.06131
53.27659,0.05985
53.03552,0.06010
52.79445,0.06104
52.55338,0.06209
52.31231,0.06429
52.07124,0.06874
51.83017,0.07335
51.58910,0.07414
51.34803,0.07023
51.10696,0.06433
50.86589,0.05868
50.62482,0.05346
50.38375,0.04814
50.14268,0.04253
49.90161,0.03737
49.66053,0.03393
49.41946,0.03271
49.17839,0.03391
48.93732,0.03874
48.69625,0.04729
48.45518,0.05581
48.21411,0.05978
47.97304,0.05828
47.73197,0.05214
47.49090,0.04046
47.24983,0.02524
47.00876,0.01413
46.76769,0.01200
46.52662,0.01552
46.28555,0.01919
46.04448,0.02148
45.80341,0.02276
45.56234,0.02178
45.32126,0.01794
45.08019,0.01337
44.83912,0.00941
44.59805,0.00474
44.35698,0.00150
44.11591,0.00817
43.87484,0.02791
43.63377,0.04809
43.39270,0.05131
43.15163,0.03653
42.91056,0.01983
42.66949,0.01482
42.42842,0.02003
42.18735,0.02498
41.94628,0.02170
41.70521,0.01058
41.46414,-0.00080
41.22307,-0.00488
40.98199,-0.00086
40.74092,0.00668
40.49985,0.01274
40.25878,0.01471
40.01771,0.01467
39.77664,0.01792
39.53557,0.02512
39.29450,0.03111
39.05343,0.03282
38.81236,0.03334
38.57129,0.03726
38.33022,0.04512
38.08915,0.05492
37.84808,0.06222
37.60701,0.05727
37.36594,0.03437
37.12487,0.00345
36.88380,-0.01674
36.64272,-0.01609
36.40165,-0.00062
36.16058,0.01867
35.91951,0.03800
35.67844,0.05750
35.43737,0.07198
35.19630,0.07542
34.95523,0.06855
34.71416,0.05799
34.47309,0.05024
34.23202,0.04231
33.99095,0.02696
33.74988,0.00909
33.50881,0.00065
33.26774,0.00798
33.02667,0.02826
32.78560,0.05279
32.54453,0.07653
32.30345,0.09916
32.06238,0.11952
31.82131,0.13125
31.58024,0.11867
31.33917,0.07565
31.09810,0.02502
30.85703,-0.00333
30.61596,-0.00838
30.37489,-0.01074
30.13382,-0.01556
29.89275,-0.00960
29.65168,0.01129
29.41061,0.03208
29.16954,0.03895
28.92847,0.04134
28.68740,0.05228
28.44633,0.05621
28.20526,0.03720
27.96418,0.02125
27.72311,0.03831
27.48204,0.07620
27.24097,0.09432
26.99990,0.07525
26.75883,0.04585
26.51776,0.02125
26.27669,0.01175
26.03562,0.02881
25.79455,0.05892
25.55348,0.07311
25.31241,0.06354
25.07134,0.04951
24.83027,0.06541
24.58920,0.13888
24.34813,0.27036
24.10706,0.41970
23.86599,0.49297
23.62491,0.41733
23.38384,0.27294
23.14277,0.16783
22.90170,0.10980
22.66063,0.07839
22.41956,0.08041
22.17849,0.15721
21.93742,0.30305
21.69635,0.45045
21.45528,0.50402
21.21421,0.43487
20.97314,0.30344
20.73207,0.19679
20.49100,0.15836
20.24993,0.14899
20.00886,0.14857
19.76779,0.17514
19.52672,0.24372
19.28564,0.34199
19.04457,0.41922
18.80350,0.45906
18.56243,0.53757
18.32136,0.64553
18.08029,0.63589
17.83922,0.59113
17.59815,0.60363
17.35708,0.61421
17.11601,0.56431
16.87494,0.59286
16.63387,0.63796
16.39280,0.45638
16.15173,0.40677
15.91066,0.48791
15.66959,0.55733
15.42852,0.52610
15.18745,0.58991
14.94637,0.90402
14.70530,0.91823
14.46423,0.89678
14.22316,0.73355
13.98209,0.56827
13.74102,0.54413
13.49995,0.70145
13.25888,0.90684
13.01781,0.77388
12.77674,0.56133
12.53567,0.50060
12.29460,0.52654
12.05353,0.64414
11.81246,0.87623
11.57139,0.85280
11.33032,0.63007
11.08925,0.54374
10.84818,0.48500
10.60710,0.49432
10.36603,0.61821
10.12496,0.76747
9.88389,0.78201
9.64282,0.74122
9.40175,0.82833
9.16068,1.02963
8.91961,0.92298
8.67854,0.72325
8.43747,0.68232
8.19640,0.78920
7.95533,0.76028
7.71426,0.53687
7.47319,0.49195
7.23212,0.61618
6.99105,0.72981
6.74998,0.69562
6.50891,0.65086
6.26783,0.63284
6.02676,0.57282
5.78569,0.53196
5.54462,0.60659
5.30355,0.68925
5.06248,0.62851
4.82141,0.60249
4.58034,0.65420
4.33927,0.70329
4.09820,0.71333
3.85713,0.81819
3.61606,1.04623
3.37499,0.96789
3.13392,0.83124
2.89285,0.76681
2.65178,0.73383
2.41071,0.71489
2.16964,0.71727
1.92856,0.74826
1.68749,0.87765
1.44642,1.02977
1.20535,0.99290
0.96428,1.03626
0.72321,1.17924
0.48214,1.07558
0.24107,0.93134
-0.00000,0.31932
