399.69498,1.70221
399.45391,1.72327
399.21284,1.71510
398.97177,1.68848
398.73070,1.66974
398.48963,1.66274
398.24856,1.65381
398.00749,1.64974
397.76642,1.67753
397.52535,1.74709
397.28428,1.81518
397.04321,1.81952
396.80214,1.78378
396.56107,1.75930
396.32000,1.75291
396.07892,1.75124
395.83785,1.75048
395.59678,1.74802
395.35571,1.73088
395.11464,1.67626
394.87357,1.60841
394.63250,1.58432
394.39143,1.61943
394.15036,1.69794
393.90929,1.78689
393.66822,1.84424
393.42715,1.87351
393.18608,1.89105
392.94501,1.89893
392.70394,1.92448
392.46287,1.96545
392.22180,1.93994
391.98073,1.88819
391.73965,1.85605
391.49858,1.81654
391.25751,1.79731
391.01644,1.82312
390.77537,1.89395
390.53430,1.94762
390.29323,1.92347
390.05216,1.90005
389.81109,1.93610
389.57002,1.98950
389.32895,2.02509
389.08788,2.00393
388.84681,1.92556
388.60574,1.90034
388.36467,1.93390
388.12360,1.99912
387.88253,2.14367
387.64146,2.32737
387.40038,2.37640
387.15931,2.46329
386.91824,2.51568
386.67717,2.26882
386.43610,2.08240
386.19503,2.05709
385.95396,2.15742
385.71289,2.24334
385.47182,2.33201
385.23075,2.67866
384.98968,2.30421
384.74861,1.96758
384.50754,1.96336
384.26647,2.09963
384.02540,1.93699
383.78433,1.77132
383.54326,1.76886
383.30219,1.83859
383.06111,1.94627
382.82004,2.22284
382.57897,2.62917
382.33790,2.40144
382.09683,2.41254
381.85576,2.57479
381.61469,2.02390
381.37362,1.75647
381.13255,1.73180
380.89148,1.82129
380.65041,1.77687
380.40934,1.61996
380.16827,1.59700
379.92720,1.78688
379.68613,2.19289
379.44506,2.27915
379.20399,2.31300
378.96292,2.80965
378.72184,2.21169
378.48077,1.88242
378.23970,1.81541
377.99863,1.85762
377.75756,2.00649
377.51649,2.22041
377.27542,2.37525
377.03435,2.42189
376.79328,2.16391
376.55221,1.82644
376.31114,1.65740
376.07007,1.64360
375.82900,1.73956
375.58793,1.89343
375.34686,2.17187
375.10579,2.66054
374.86472,2.38724
374.62365,2.08952
374.38257,1.98527
374.14150,1.93818
373.90043,1.89612
373.65936,1.84009
373.41829,1.78751
373.17722,1.76334
372.93615,1.75536
372.69508,1.76229
372.45401,1.82026
372.21294,1.93312
371.97187,2.01454
371.73080,1.95737
371.48973,1.81199
371.24866,1.69148
371.00759,1.62856
370.76652,1.59756
370.52545,1.56449
370.28437,1.51915
370.04330,1.47613
369.80223,1.45374
369.56116,1.45240
369.32009,1.44562
369.07902,1.40955
368.83795,1.35979
368.59688,1.33108
368.35581,1.33771
368.11474,1.36616
367.87367,1.39583
367.63260,1.41638
367.39153,1.42121
367.15046,1.40692
366.90939,1.39038
366.66832,1.39073
366.42725,1.39664
366.18618,1.38356
365.94510,1.35624
365.70403,1.33823
365.46296,1.33365
365.22189,1.32809
364.98082,1.31659
364.73975,1.31378
364.49868,1.33398
364.25761,1.36295
364.01654,1.36394
363.77547,1.32518
363.53440,1.27719
363.29333,1.25231
363.05226,1.25586
362.81119,1.26882
362.57012,1.26631
362.32905,1.24271
362.08798,1.21656
361.84691,1.20827
361.60583,1.22396
361.36476,1.25311
361.12369,1.27660
360.88262,1.28292
360.64155,1.27516
360.40048,1.26337
360.15941,1.25314
359.91834,1.24375
359.67727,1.23557
359.43620,1.22670
359.19513,1.21754
358.95406,1.21852
358.71299,1.23618
358.47192,1.26321
358.23085,1.28547
357.98978,1.29929
357.74871,1.31351
357.50764,1.32875
357.26656,1.32905
357.02549,1.30390
356.78442,1.26703
356.54335,1.24172
356.30228,1.24034
356.06121,1.25888
355.82014,1.28118
355.57907,1.29026
355.33800,1.28104
355.09693,1.26305
354.85586,1.24757
354.61479,1.23571
354.37372,1.22328
354.13265,1.21012
353.89158,1.19939
353.65051,1.19430
353.40944,1.19883
353.16837,1.21559
352.92729,1.23720
352.68622,1.24700
352.44515,1.24085
352.20408,1.23732
351.96301,1.25131
351.72194,1.27219
351.48087,1.27557
351.23980,1.25111
350.99873,1.21660
350.75766,1.19798
350.51659,1.20281
350.27552,1.22113
350.03445,1.23450
349.79338,1.23118
349.55231,1.22304
349.31124,1.23078
349.07017,1.25409
348.82910,1.27169
348.58802,1.26903
348.34695,1.25459
348.10588,1.24814
347.86481,1.25957
347.62374,1.27893
347.38267,1.28747
347.14160,1.28247
346.90053,1.27840
346.65946,1.28549
346.41839,1.30610
346.17732,1.33611
345.93625,1.35788
345.69518,1.35722
345.45411,1.35441
345.21304,1.37678
344.97197,1.42234
344.73090,1.47469
344.48983,1.52576
344.24875,1.55807
344.00768,1.54072
343.76661,1.48182
343.52554,1.42172
343.28447,1.38878
343.04340,1.38646
342.80233,1.40308
342.56126,1.42637
342.32019,1.45693
342.07912,1.50519
341.83805,1.55546
341.59698,1.56348
341.35591,1.51917
341.11484,1.46205
340.87377,1.42699
340.63270,1.42738
340.39163,1.46819
340.15056,1.55180
339.90948,1.67519
339.66841,1.81210
339.42734,1.88973
339.18627,1.86264
338.94520,1.80153
338.70413,1.78758
338.46306,1.81604
338.22199,1.83148
337.98092,1.86358
337.73985,1.95584
337.49878,2.01792
337.25771,1.94221
337.01664,1.80723
336.77557,1.70416
336.53450,1.63768
336.29343,1.59681
336.05236,1.59578
335.81129,1.65180
335.57021,1.74615
335.32914,1.82772
335.08807,1.87232
334.84700,1.92179
334.60593,1.99223
334.36486,1.96903
334.12379,1.86169
333.88272,1.81194
333.64165,1.83677
333.40058,1.87519
333.15951,1.85786
332.91844,1.78252
332.67737,1.69376
332.43630,1.62254
332.19523,1.58002
331.95416,1.57165
331.71309,1.60181
331.47202,1.65009
331.23094,1.65832
330.98987,1.60607
330.74880,1.52436
330.50773,1.45600
330.26666,1.42748
330.02559,1.43927
329.78452,1.47752
329.54345,1.52251
329.30238,1.57334
329.06131,1.65149
328.82024,1.71639
328.57917,1.67911
328.33810,1.58265
328.09703,1.50030
327.85596,1.46011
327.61489,1.46808
327.37382,1.52555
327.13275,1.61598
326.89167,1.69363
326.65060,1.72076
326.40953,1.69331
326.16846,1.64600
325.92739,1.61946
325.68632,1.62311
325.44525,1.63250
325.20418,1.62878
324.96311,1.63380
324.72204,1.65686
324.48097,1.65937
324.23990,1.64406
323.99883,1.64334
323.75776,1.65081
323.51669,1.66249
323.27562,1.68737
323.03455,1.70502
322.79348,1.68154
322.55240,1.63166
322.31133,1.60017
322.07026,1.61394
321.82919,1.67240
321.58812,1.74332
321.34705,1.79923
321.10598,1.85790
320.86491,1.90346
320.62384,1.87625
320.38277,1.80830
320.14170,1.78096
319.90063,1.84878
319.65956,2.05881
319.41849,2.36912
319.17742,2.45821
318.93635,2.36730
318.69528,2.26894
318.45421,2.06438
318.21313,1.81598
317.97206,1.66347
317.73099,1.62112
317.48992,1.65686
317.24885,1.73102
317.00778,1.82036
316.76671,1.91145
316.52564,1.94226
316.28457,1.83949
316.04350,1.72668
315.80243,1.72814
315.56136,1.80399
315.32029,1.81352
315.07922,1.79428
314.83815,1.81652
314.59708,1.85932
314.35601,1.91570
314.11494,1.95551
313.87386,1.93874
313.63279,1.92819
313.39172,1.98553
313.15065,2.14346
312.90958,2.40241
312.66851,2.71217
312.42744,2.24093
312.18637,1.94614
311.94530,1.97184
311.70423,2.19439
311.46316,2.36427
311.22209,2.29940
310.98102,2.31295
310.73995,2.45732
310.49888,2.46311
310.25781,2.11519
310.01674,1.86658
309.77567,1.79635
309.53459,1.81213
309.29352,1.82542
309.05245,1.85112
308.81138,1.93503
308.57031,2.03868
308.32924,2.04060
308.08817,1.91379
307.84710,1.78653
307.60603,1.73983
307.36496,1.75951
307.12389,1.77612
306.88282,1.74792
306.64175,1.70157
306.40068,1.67966
306.15961,1.70452
305.91854,1.77032
305.67747,1.84506
305.43640,1.87066
305.19532,1.80854
304.95425,1.69655
304.71318,1.59472
304.47211,1.52666
304.23104,1.48641
303.98997,1.46051
303.74890,1.44925
303.50783,1.46395
303.26676,1.49620
303.02569,1.50236
302.78462,1.45531
302.54355,1.38914
302.30248,1.34478
302.06141,1.33044
301.82034,1.33157
301.57927,1.32785
301.33820,1.30641
301.09713,1.27201
300.85605,1.24348
300.61498,1.23507
300.37391,1.24469
300.13284,1.25907
299.89177,1.26597
299.65070,1.26144
299.40963,1.24952
299.16856,1.23354
298.92749,1.21144
298.68642,1.18855
298.44535,1.17822
298.20428,1.18238
297.96321,1.19045
297.72214,1.19306
297.48107,1.18771
297.24000,1.17825
296.99893,1.17103
296.75786,1.16736
296.51678,1.15933
296.27571,1.14054
296.03464,1.11878
295.79357,1.10721
295.55250,1.10767
295.31143,1.10958
295.07036,1.10396
294.82929,1.09418
294.58822,1.08954
294.34715,1.09279
294.10608,1.09728
293.86501,1.09298
293.62394,1.07544
293.38287,1.05254
293.14180,1.04014
292.90073,1.04589
292.65966,1.06036
292.41859,1.06709
292.17751,1.05971
291.93644,1.04497
291.69537,1.03237
291.45430,1.02606
291.21323,1.02456
290.97216,1.02556
290.73109,1.02982
290.49002,1.03869
290.24895,1.04912
290.00788,1.05472
289.76681,1.05212
289.52574,1.04322
289.28467,1.03107
289.04360,1.01866
288.80253,1.01180
288.56146,1.01573
288.32039,1.02587
288.07932,1.02874
287.83824,1.01786
287.59717,1.00128
287.35610,0.99014
287.11503,0.98751
286.87396,0.98862
286.63289,0.98771
286.39182,0.98368
286.15075,0.97828
285.90968,0.97234
285.66861,0.96696
285.42754,0.96480
285.18647,0.96729
284.94540,0.97350
284.70433,0.97989
284.46326,0.97964
284.22219,0.97133
283.98112,0.96236
283.74005,0.95834
283.49897,0.95776
283.25790,0.95770
283.01683,0.95812
282.77576,0.95978
282.53469,0.96347
282.29362,0.96967
282.05255,0.97457
281.81148,0.97112
281.57041,0.95883
281.32934,0.94622
281.08827,0.94148
280.84720,0.94587
280.60613,0.95490
280.36506,0.96199
280.12399,0.96238
279.88292,0.95657
279.64185,0.94968
279.40078,0.94662
279.15970,0.94789
278.91863,0.94946
278.67756,0.94809
278.43649,0.94669
278.19542,0.95085
277.95435,0.96069
277.71328,0.97117
277.47221,0.97866
277.23114,0.98166
276.99007,0.97916
276.74900,0.97390
276.50793,0.97118
276.26686,0.97075
276.02579,0.96678
275.78472,0.95893
275.54365,0.95333
275.30258,0.94989
275.06151,0.94228
274.82043,0.93127
274.57936,0.92713
274.33829,0.93656
274.09722,0.95339
273.85615,0.96571
273.61508,0.96863
273.37401,0.96567
273.13294,0.96262
272.89187,0.96304
272.65080,0.96641
272.40973,0.96997
272.16866,0.97367
271.92759,0.98088
271.68652,0.99093
271.44545,0.99617
271.20438,0.99256
270.96331,0.98795
270.72224,0.99182
270.48116,1.00134
270.24009,1.00533
269.99902,0.99951
269.75795,0.99028
269.51688,0.98523
269.27581,0.98744
269.03474,0.99581
268.79367,1.00510
268.55260,1.00848
268.31153,1.00500
268.07046,1.00179
267.82939,1.00637
267.58832,1.01917
267.34725,1.03314
267.10618,1.04020
266.86511,1.04094
266.62404,1.04458
266.38297,1.05603
266.14189,1.06883
265.90082,1.07565
265.65975,1.07884
265.41868,1.08472
265.17761,1.09531
264.93654,1.10948
264.69547,1.12541
264.45440,1.14052
264.21333,1.15191
263.97226,1.15761
263.73119,1.15864
263.49012,1.15987
263.24905,1.16656
263.00798,1.17911
262.76691,1.19119
262.52584,1.19362
262.28477,1.18538
262.04370,1.17859
261.80262,1.18435
261.56155,1.20293
261.32048,1.23185
261.07941,1.26948
260.83834,1.30668
260.59727,1.33110
260.35620,1.34369
260.11513,1.35372
259.87406,1.36374
259.63299,1.37418
259.39192,1.39096
259.15085,1.42014
258.90978,1.46659
258.66871,1.53210
258.42764,1.60020
258.18657,1.63768
257.94550,1.62681
257.70443,1.58631
257.46335,1.55019
257.22228,1.54469
256.98121,1.57739
256.74014,1.62438
256.49907,1.64580
256.25800,1.64094
256.01693,1.64912
255.77586,1.69305
255.53479,1.75868
255.29372,1.82346
255.05265,1.89242
254.81158,1.98096
254.57051,2.07379
254.32944,2.14269
254.08837,2.16986
253.84730,2.09390
253.60623,1.94862
253.36516,1.85005
253.12408,1.83328
252.88301,1.91057
252.64194,2.15211
252.40087,2.53626
252.15980,2.43688
251.91873,2.20893
251.67766,2.13313
251.43659,2.19478
251.19552,2.42912
250.95445,2.73312
250.71338,2.50258
250.47231,2.33402
250.23124,2.30714
249.99017,2.25678
249.74910,2.20278
249.50803,2.18335
249.26696,2.19162
249.02589,2.27870
248.78481,2.51824
248.54374,2.71696
248.30267,2.46151
248.06160,2.21352
247.82053,2.13505
247.57946,2.21149
247.33839,2.35101
247.09732,2.37182
246.85625,2.27780
246.61518,2.15515
246.37411,2.06304
246.13304,2.03289
245.89197,2.06281
245.65090,2.10990
245.40983,2.11321
245.16876,2.02630
244.92769,1.88262
244.68661,1.78315
244.44554,1.75694
244.20447,1.77328
243.96340,1.78640
243.72233,1.74347
243.48126,1.64023
243.24019,1.52790
242.99912,1.44465
242.75805,1.39755
242.51698,1.38156
242.27591,1.38218
242.03484,1.36767
241.79377,1.31325
241.55270,1.23531
241.31163,1.16574
241.07056,1.11618
240.82949,1.08114
240.58842,1.05454
240.34734,1.03547
240.10627,1.02051
239.86520,0.99961
239.62413,0.96724
239.38306,0.93069
239.14199,0.90095
238.90092,0.88032
238.65985,0.86191
238.41878,0.83922
238.17771,0.81473
237.93664,0.79671
237.69557,0.78845
237.45450,0.78469
237.21343,0.77847
236.97236,0.76772
236.73129,0.75373
236.49022,0.73815
236.24915,0.72348
236.00807,0.71241
235.76700,0.70592
235.52593,0.70291
235.28486,0.70048
235.04379,0.69504
234.80272,0.68582
234.56165,0.67674
234.32058,0.67235
234.07951,0.67267
233.83844,0.67333
233.59737,0.67091
233.35630,0.66685
233.11523,0.66446
232.87416,0.66424
232.63309,0.66430
232.39202,0.66382
232.15095,0.66352
231.90988,0.66362
231.66880,0.66370
231.42773,0.66378
231.18666,0.66438
230.94559,0.66555
230.70452,0.66639
230.46345,0.66616
230.22238,0.66530
229.98131,0.66410
229.74024,0.66147
229.49917,0.65652
229.25810,0.65069
229.01703,0.64645
228.77596,0.64444
228.53489,0.64447
228.29382,0.64819
228.05275,0.65748
227.81168,0.66992
227.57061,0.67894
227.32953,0.67905
227.08846,0.67027
226.84739,0.65860
226.60632,0.65139
226.36525,0.65082
226.12418,0.65286
225.88311,0.65377
225.64204,0.65495
225.40097,0.65925
225.15990,0.66613
224.91883,0.67270
224.67776,0.67693
224.43669,0.67878
224.19562,0.67910
223.95455,0.67846
223.71348,0.67763
223.47241,0.67762
223.23134,0.67948
222.99026,0.68433
222.74919,0.69167
222.50812,0.69765
222.26705,0.69867
222.02598,0.69719
221.78491,0.69925
221.54384,0.70659
221.30277,0.71593
221.06170,0.72544
220.82063,0.73693
220.57956,0.75079
220.33849,0.76263
220.09742,0.76772
219.85635,0.76734
219.61528,0.76787
219.37421,0.77431
219.13314,0.78666
218.89207,0.80137
218.65099,0.81587
218.40992,0.83150
218.16885,0.85016
217.92778,0.86856
217.68671,0.87978
217.44564,0.88192
217.20457,0.88148
216.96350,0.88605
216.72243,0.89707
216.48136,0.91090
216.24029,0.92407
215.99922,0.93599
215.75815,0.94690
215.51708,0.95714
215.27601,0.96891
215.03494,0.98372
214.79387,0.99809
214.55280,1.00820
214.31172,1.01547
214.07065,1.02191
213.82958,1.02712
213.58851,1.03300
213.34744,1.04434
213.10637,1.06207
212.86530,1.07994
212.62423,1.09094
212.38316,1.09230
212.14209,1.08802
211.90102,1.08811
211.65995,1.09843
211.41888,1.11497
211.17781,1.13127
210.93674,1.14398
210.69567,1.14849
210.45460,1.13963
210.21353,1.12055
209.97245,1.10221
209.73138,1.09206
209.49031,1.08828
209.24924,1.08344
209.00817,1.07258
208.76710,1.05917
208.52603,1.05119
208.28496,1.05078
208.04389,1.05244
207.80282,1.05175
207.56175,1.05076
207.32068,1.05190
207.07961,1.05205
206.83854,1.04778
206.59747,1.03972
206.35640,1.02829
206.11533,1.01169
205.87426,0.99233
205.63318,0.97708
205.39211,0.96863
205.15104,0.96177
204.90997,0.95020
204.66890,0.93495
204.42783,0.92256
204.18676,0.91692
203.94569,0.91592
203.70462,0.91472
203.46355,0.91137
203.22248,0.90652
202.98141,0.89868
202.74034,0.88566
202.49927,0.87004
202.25820,0.85574
202.01713,0.84204
201.77606,0.82683
201.53499,0.81025
201.29391,0.79256
201.05284,0.77368
200.81177,0.75535
200.57070,0.73985
200.32963,0.72750
200.08856,0.71739
199.84749,0.70852
199.60642,0.69983
199.36535,0.69098
199.12428,0.68202
198.88321,0.67260
198.64214,0.66383
198.40107,0.65831
198.16000,0.65562
197.91893,0.65113
197.67786,0.64133
197.43679,0.62777
197.19572,0.61508
196.95464,0.60719
196.71357,0.60450
196.47250,0.60347
196.23143,0.59979
195.99036,0.59124
195.74929,0.57840
195.50822,0.56465
195.26715,0.55430
195.02608,0.54859
194.78501,0.54514
194.54394,0.54178
194.30287,0.53871
194.06180,0.53670
193.82073,0.53510
193.57966,0.53236
193.33859,0.52787
193.09752,0.52242
192.85645,0.51672
192.61537,0.51114
192.37430,0.50670
192.13323,0.50420
191.89216,0.50315
191.65109,0.50312
191.41002,0.50375
191.16895,0.50336
190.92788,0.50059
190.68681,0.49703
190.44574,0.49452
190.20467,0.49138
189.96360,0.48537
189.72253,0.47843
189.48146,0.47451
189.24039,0.47409
188.99932,0.47433
188.75825,0.47391
188.51718,0.47459
188.27610,0.47721
188.03503,0.47970
187.79396,0.47966
187.55289,0.47700
187.31182,0.47374
187.07075,0.47258
186.82968,0.47441
186.58861,0.47688
186.34754,0.47706
186.10647,0.47490
185.86540,0.47236
185.62433,0.47065
185.38326,0.46977
185.14219,0.46948
184.90112,0.46982
184.66005,0.47148
184.41898,0.47484
184.17791,0.47880
183.93683,0.48163
183.69576,0.48302
183.45469,0.48457
183.21362,0.48822
182.97255,0.49399
182.73148,0.49927
182.49041,0.50102
182.24934,0.49879
182.00827,0.49553
181.76720,0.49474
181.52613,0.49655
181.28506,0.49765
181.04399,0.49607
180.80292,0.49437
180.56185,0.49639
180.32078,0.50235
180.07971,0.50857
179.83864,0.51103
179.59756,0.50947
179.35649,0.50798
179.11542,0.51045
178.87435,0.51645
178.63328,0.52382
178.39221,0.53265
178.15114,0.54367
177.91007,0.55566
177.66900,0.56740
177.42793,0.57948
177.18686,0.59224
176.94579,0.60522
176.70472,0.61895
176.46365,0.63379
176.22258,0.64798
175.98151,0.66105
175.74044,0.67700
175.49937,0.69902
175.25829,0.72390
175.01722,0.74600
174.77615,0.76356
174.53508,0.77703
174.29401,0.78584
174.05294,0.79165
173.81187,0.80007
173.57080,0.81489
173.32973,0.83436
173.08866,0.85321
172.84759,0.86678
172.60652,0.87546
172.36545,0.88428
172.12438,0.89476
171.88331,0.89941
171.64224,0.89011
171.40117,0.87161
171.16010,0.85797
170.91902,0.85813
170.67795,0.87079
170.43688,0.88644
170.19581,0.89341
169.95474,0.88856
169.71367,0.87872
169.47260,0.87002
169.23153,0.86232
168.99046,0.85242
168.74939,0.83860
168.50832,0.82255
168.26725,0.80946
168.02618,0.80540
167.78511,0.81181
167.54404,0.82233
167.30297,0.82709
167.06190,0.82215
166.82083,0.81344
166.57975,0.80985
166.33868,0.81476
166.09761,0.82544
165.85654,0.83806
165.61547,0.84993
165.37440,0.85924
165.13333,0.86663
164.89226,0.87526
164.65119,0.88703
164.41012,0.90117
164.16905,0.91565
163.92798,0.92702
163.68691,0.93195
163.44584,0.93300
163.20477,0.93922
162.96370,0.95700
162.72263,0.98118
162.48156,0.99773
162.24048,0.99801
161.99941,0.98956
161.75834,0.98759
161.51727,0.99658
161.27620,1.00489
161.03513,1.00009
160.79406,0.98538
160.55299,0.97225
160.31192,0.96520
160.07085,0.96276
159.82978,0.96384
159.58871,0.96494
159.34764,0.95956
159.10657,0.94772
158.86550,0.93748
158.62443,0.93373
158.38336,0.93311
158.14229,0.93039
157.90121,0.92563
157.66014,0.92324
157.41907,0.92558
157.17800,0.92968
156.93693,0.92981
156.69586,0.92194
156.45479,0.90731
156.21372,0.89362
155.97265,0.88875
155.73158,0.89059
155.49051,0.88751
155.24944,0.87383
155.00837,0.85770
154.76730,0.84773
154.52623,0.84122
154.28516,0.83109
154.04409,0.81749
153.80302,0.80542
153.56194,0.79568
153.32087,0.78473
153.07980,0.77020
152.83873,0.75259
152.59766,0.73262
152.35659,0.71016
152.11552,0.68637
151.87445,0.66425
151.63338,0.64703
151.39231,0.63651
151.15124,0.63152
150.91017,0.62732
150.66910,0.61787
150.42803,0.60072
150.18696,0.57951
149.94589,0.56043
149.70482,0.54764
149.46375,0.54210
149.22267,0.54145
148.98160,0.53998
148.74053,0.53241
148.49946,0.51931
148.25839,0.50576
148.01732,0.49534
147.77625,0.48852
147.53518,0.48501
147.29411,0.48519
147.05304,0.48932
146.81197,0.49636
146.57090,0.50324
146.32983,0.50669
146.08876,0.50624
145.84769,0.50444
145.60662,0.50528
145.36555,0.51169
145.12448,0.52208
144.88340,0.53029
144.64233,0.53235
144.40126,0.53185
144.16019,0.53508
143.91912,0.54278
143.67805,0.54934
143.43698,0.54888
143.19591,0.54146
142.95484,0.53215
142.71377,0.52402
142.47270,0.51537
142.23163,0.50441
141.99056,0.49272
141.74949,0.48268
141.50842,0.47469
141.26735,0.46837
141.02628,0.46381
140.78521,0.46046
140.54413,0.45641
140.30306,0.45071
140.06199,0.44553
139.82092,0.44420
139.57985,0.44742
139.33878,0.45309
139.09771,0.45958
138.85664,0.46759
138.61557,0.47802
138.37450,0.48944
138.13343,0.49934
137.89236,0.50753
137.65129,0.51752
137.41022,0.53360
137.16915,0.55652
136.92808,0.58149
136.68701,0.60189
136.44594,0.61621
136.20486,0.63006
135.96379,0.64991
135.72272,0.67737
135.48165,0.70934
135.24058,0.74031
134.99951,0.76552
134.75844,0.78490
134.51737,0.80283
134.27630,0.82328
134.03523,0.84627
133.79416,0.86777
133.55309,0.88239
133.31202,0.89110
133.07095,0.90333
132.82988,0.92463
132.58881,0.94816
132.34774,0.96442
132.10667,0.97350
131.86559,0.97892
131.62452,0.97783
131.38345,0.96721
131.14238,0.95066
130.90131,0.93192
130.66024,0.91045
130.41917,0.88563
130.17810,0.85996
129.93703,0.83649
129.69596,0.81510
129.45489,0.79191
129.21382,0.76256
128.97275,0.72748
128.73168,0.69194
128.49061,0.65958
128.24954,0.62973
128.00847,0.60163
127.76740,0.57687
127.52632,0.55584
127.28525,0.53692
127.04418,0.52030
126.80311,0.50808
126.56204,0.49972
126.32097,0.49067
126.07990,0.47719
125.83883,0.46039
125.59776,0.44392
125.35669,0.42959
125.11562,0.41731
124.87455,0.40710
124.63348,0.39860
124.39241,0.39066
124.15134,0.38356
123.91027,0.37944
123.66920,0.37887
123.42812,0.37901
123.18705,0.37698
122.94598,0.37327
122.70491,0.37052
122.46384,0.37011
122.22277,0.37101
121.98170,0.37137
121.74063,0.37067
121.49956,0.37015
121.25849,0.37123
121.01742,0.37430
120.77635,0.37902
120.53528,0.38542
120.29421,0.39453
120.05314,0.40763
119.81207,0.42455
119.57100,0.44359
119.32993,0.46432
119.08885,0.48859
118.84778,0.51603
118.60671,0.54105
118.36564,0.55908
118.12457,0.57376
117.88350,0.59200
117.64243,0.61428
117.40136,0.63577
117.16029,0.65338
116.91922,0.66662
116.67815,0.67456
116.43708,0.67555
116.19601,0.66862
115.95494,0.65583
115.71387,0.64375
115.47280,0.63804
115.23173,0.63589
114.99066,0.62886
114.74958,0.61491
114.50851,0.60023
114.26744,0.58898
114.02637,0.57965
113.78530,0.57040
113.54423,0.56178
113.30316,0.55562
113.06209,0.55513
112.82102,0.56248
112.57995,0.57445
112.33888,0.58536
112.09781,0.59383
111.85674,0.60119
111.61567,0.60571
111.37460,0.60455
111.13353,0.59932
110.89246,0.59574
110.65139,0.59804
110.41031,0.60375
110.16924,0.60442
109.92817,0.59500
109.68710,0.58032
109.44603,0.56795
109.20496,0.55795
108.96389,0.54420
108.72282,0.52369
108.48175,0.50038
108.24068,0.47988
107.99961,0.46431
107.75854,0.45223
107.51747,0.44098
107.27640,0.42862
107.03533,0.41486
106.79426,0.40091
106.55319,0.38861
106.31212,0.37907
106.07104,0.37054
105.82997,0.35858
105.58890,0.34195
105.34783,0.32631
105.10676,0.31743
104.86569,0.31272
104.62462,0.30485
104.38355,0.29284
104.14248,0.28346
103.90141,0.28105
103.66034,0.28222
103.41927,0.28119
103.17820,0.27650
102.93713,0.27085
102.69606,0.26673
102.45499,0.26407
102.21392,0.26158
101.97285,0.25851
101.73177,0.25493
101.49070,0.25108
101.24963,0.24711
101.00856,0.24327
100.76749,0.24009
100.52642,0.23775
100.28535,0.23498
100.04428,0.22984
99.80321,0.22273
99.56214,0.21676
99.32107,0.21451
99.08000,0.21556
98.83893,0.21788
98.59786,0.22020
98.35679,0.22186
98.11572,0.22249
97.87465,0.22323
97.63358,0.22623
97.39250,0.23180
97.15143,0.23739
96.91036,0.24050
96.66929,0.24086
96.42822,0.23979
96.18715,0.23960
95.94608,0.24337
95.70501,0.25276
95.46394,0.26554
95.22287,0.27709
94.98180,0.28438
94.74073,0.28773
94.49966,0.28890
94.25859,0.28850
94.01752,0.28579
93.77645,0.28068
93.53538,0.27554
93.29431,0.27423
93.05323,0.27910
92.81216,0.28835
92.57109,0.29629
92.33002,0.29852
92.08895,0.29718
91.84788,0.29818
91.60681,0.30429
91.36574,0.31355
91.12467,0.32338
90.88360,0.33467
90.64253,0.35128
90.40146,0.37602
90.16039,0.40807
89.91932,0.44498
89.67825,0.48574
89.43718,0.52965
89.19611,0.57324
88.95504,0.61047
88.71396,0.63390
88.47289,0.63616
88.23182,0.61541
87.99075,0.57834
87.74968,0.53520
87.50861,0.49291
87.26754,0.45428
87.02647,0.42005
86.78540,0.38952
86.54433,0.36105
86.30326,0.33363
86.06219,0.30813
85.82112,0.28666
85.58005,0.27007
85.33898,0.25614
85.09791,0.24157
84.85684,0.22597
84.61577,0.21217
84.37469,0.20213
84.13362,0.19492
83.89255,0.18910
83.65148,0.18485
83.41041,0.18267
83.16934,0.18173
82.92827,0.18056
82.68720,0.17805
82.44613,0.17392
82.20506,0.16925
81.96399,0.16599
81.72292,0.16501
81.48185,0.16537
81.24078,0.16546
80.99971,0.16414
80.75864,0.16095
80.51757,0.15669
80.27650,0.15323
80.03542,0.15172
79.79435,0.15136
79.55328,0.15069
79.31221,0.14966
79.07114,0.14927
78.83007,0.14968
78.58900,0.15019
78.34793,0.15098
78.10686,0.15283
77.86579,0.15467
77.62472,0.15394
77.38365,0.14980
77.14258,0.14434
76.90151,0.14015
76.66044,0.13826
76.41937,0.13788
76.17830,0.13732
75.93723,0.13568
75.69615,0.13427
75.45508,0.13450
75.21401,0.13484
74.97294,0.13272
74.73187,0.12902
74.49080,0.12720
74.24973,0.12857
74.00866,0.13171
73.76759,0.13515
73.52652,0.13744
73.28545,0.13608
73.04438,0.13031
72.80331,0.12343
72.56224,0.11946
72.32117,0.11973
72.08010,0.12373
71.83903,0.13060
71.59796,0.13856
71.35688,0.14492
71.11581,0.14764
70.87474,0.14639
70.63367,0.14300
70.39260,0.14169
70.15153,0.14760
69.91046,0.16312
69.66939,0.18541
69.42832,0.20768
69.18725,0.22343
68.94618,0.22833
68.70511,0.22047
68.46404,0.20275
68.22297,0.18353
67.98190,0.17007
67.74083,0.16257
67.49976,0.15677
67.25869,0.15019
67.01761,0.14319
66.77654,0.13660
66.53547,0.13122
66.29440,0.12822
66.05333,0.12748
65.81226,0.12737
65.57119,0.12722
65.33012,0.12845
65.08905,0.13210
64.84798,0.13724
64.60691,0.14264
64.36584,0.14815
64.12477,0.15332
63.88370,0.15615
63.64263,0.15447
63.40156,0.14820
63.16049,0.13947
62.91942,0.13144
62.67834,0.12672
62.43727,0.12541
62.19620,0.12527
61.95513,0.12428
61.71406,0.12240
61.47299,0.12008
61.23192,0.11687
60.99085,0.11304
60.74978,0.11037
60.50871,0.10964
60.26764,0.10931
60.02657,0.10859
59.78550,0.10961
59.54443,0.11458
59.30336,0.12230
59.06229,0.12866
58.82122,0.12937
58.58015,0.12303
58.33907,0.11322
58.09800,0.10618
57.85693,0.10445
57.61586,0.10512
57.37479,0.10521
57.13372,0.10507
56.89265,0.10481
56.65158,0.10233
56.41051,0.09812
56.16944,0.09662
55.92837,0.10023
55.68730,0.10609
55.44623,0.11015
55.20516,0.11156
54.96409,0.11174
54.72302,0.11149
54.48195,0.11109
54.24088,0.11216
53.99980,0.11689
53.75873,0.12503
53.51766,0.13292
53.27659,0.13606
53.03552,0.13307
52.79445,0.12667
52.55338,0.12051
52.31231,0.11607
52.07124,0.11280
51.83017,0.11033
51.58910,0.10967
51.34803,0.11240
51.10696,0.11892
50.86589,0.12659
50.62482,0.13023
50.38375,0.12698
50.14268,0.12100
49.90161,0.11935
49.66053,0.12286
49.41946,0.12528
49.17839,0.12257
48.93732,0.11839
48.69625,0.11861
48.45518,0.12312
48.21411,0.12516
47.97304,0.11915
47.73197,0.10714
47.49090,0.09704
47.24983,0.09476
47.00876,0.09972
46.76769,0.10845
46.52662,0.11840
46.28555,0.12803
46.04448,0.13513
45.80341,0.13658
45.56234,0.13164
45.32126,0.12424
45.08019,0.11940
44.83912,0.11732
44.59805,0.11337
44.35698,0.10574
44.11591,0.10007
43.87484,0.10087
43.63377,0.10551
43.39270,0.11217
43.15163,0.12259
42.91056,0.13497
42.66949,0.14315
42.42842,0.14271
42.18735,0.13248
41.94628,0.11409
41.70521,0.09596
41.46414,0.09080
41.22307,0.10362
40.98199,0.12635
40.74092,0.14629
40.49985,0.15759
40.25878,0.16327
40.01771,0.16747
39.77664,0.16943
39.53557,0.16657
39.29450,0.15846
39.05343,0.14650
38.81236,0.13491
38.57129,0.13048
38.33022,0.13392
38.08915,0.13878
37.84808,0.14679
37.60701,0.16680
37.36594,0.19130
37.12487,0.20033
36.88380,0.19088
36.64272,0.17482
36.40165,0.15999
36.16058,0.15206
35.91951,0.15990
35.67844,0.18402
35.43737,0.20845
35.19630,0.21002
34.95523,0.18227
34.71416,0.14588
34.47309,0.12708
34.23202,0.13375
33.99095,0.15246
33.74988,0.16579
33.50881,0.16902
33.26774,0.16875
33.02667,0.17348
32.78560,0.18327
32.54453,0.19242
32.30345,0.20665
32.06238,0.23516
31.82131,0.26095
31.58024,0.25438
31.33917,0.21243
31.09810,0.15131
30.85703,0.09098
30.61596,0.05301
30.37489,0.05416
30.13382,0.09252
29.89275,0.13948
29.65168,0.16304
29.41061,0.15785
29.16954,0.14373
28.92847,0.13919
28.68740,0.14614
28.44633,0.15568
28.20526,0.16057
27.96418,0.16242
27.72311,0.17316
27.48204,0.20241
27.24097,0.24373
26.99990,0.27677
26.75883,0.28418
26.51776,0.27402
26.27669,0.27076
26.03562,0.27812
25.79455,0.28340
25.55348,0.28402
25.31241,0.26534
25.07134,0.20837
24.83027,0.13869
24.58920,0.11617
24.34813,0.18630
24.10706,0.34299
23.86599,0.48963
23.62491,0.52368
23.38384,0.46721
23.14277,0.35677
22.90170,0.21935
22.66063,0.12828
22.41956,0.14440
22.17849,0.21972
21.93742,0.27725
21.69635,0.30213
21.45528,0.33892
21.21421,0.45821
20.97314,0.58491
20.73207,0.43686
20.49100,0.18259
20.24993,0.06158
20.00886,0.11110
19.76779,0.24651
19.52672,0.36710
19.28564,0.44407
19.04457,0.48444
18.80350,0.43091
18.56243,0.25903
18.32136,0.07237
18.08029,-0.02798
17.83922,0.00027
17.59815,0.14300
17.35708,0.45430
17.11601,0.89618
16.87494,0.40538
16.63387,0.19313
16.39280,0.18988
16.15173,0.16140
15.91066,0.22452
15.66959,0.41605
15.42852,0.40151
15.18745,0.29878
14.94637,0.25921
14.70530,0.25125
14.46423,0.31576
14.22316,0.58242
13.98209,0.84306
13.74102,0.26882
13.49995,-0.03093
13.25888,-0.08374
13.01781,0.00796
12.77674,0.30232
12.53567,0.25410
12.29460,0.17566
12.05353,0.19781
11.81246,0.34128
11.57139,0.72543
11.33032,0.65944
11.08925,0.34806
10.84818,0.34121
10.60710,0.38329
10.36603,0.38528
10.12496,0.40729
9.88389,0.49308
9.64282,0.67456
9.40175,0.19649
9.16068,-0.21139
8.91961,-0.72848
8.67854,-0.31860
8.43747,0.05182
8.19640,0.08503
7.95533,-0.14123
7.71426,-0.56034
7.47319,-0.85860
7.23212,-1.10592
6.99105,-0.93396
6.74998,-0.37491
6.50891,-0.08968
6.26783,-0.15934
6.02676,-0.04251
5.78569,0.21492
5.54462,0.31918
5.30355,0.27555
5.06248,0.20892
4.82141,0.12865
4.58034,0.08312
4.33927,-0.23853
4.09820,-0.62331
3.85713,-0.41831
3.61606,-0.22727
3.37499,-0.11256
3.13392,0.08707
2.89285,0.40028
2.65178,0.26994
2.41071,0.06754
2.16964,-0.03315
1.92856,-0.01739
1.68749,0.10413
1.44642,0.42789
1.20535,0.99272
0.96428,0.08955
0.72321,-0.57285
0.48214,-0.40358
0.24107,-0.01073
-0.00000,0.01981
