399.69498,1.57310
399.45391,1.55047
399.21284,1.53420
398.97177,1.53529
398.73070,1.55022
398.48963,1.56854
398.24856,1.58554
398.00749,1.60024
397.76642,1.60157
397.52535,1.57916
397.28428,1.54857
397.04321,1.53316
396.80214,1.53519
396.56107,1.53950
396.32000,1.53410
396.07892,1.52304
395.83785,1.51868
395.59678,1.52936
395.35571,1.55546
395.11464,1.58516
394.87357,1.60088
394.63250,1.59639
394.39143,1.57801
394.15036,1.55698
393.90929,1.54733
393.66822,1.55803
393.42715,1.57971
393.18608,1.59142
392.94501,1.58343
392.70394,1.56612
392.46287,1.56192
392.22180,1.58790
391.98073,1.63545
391.73965,1.66677
391.49858,1.65665
391.25751,1.62337
391.01644,1.59529
390.77537,1.58021
390.53430,1.57053
390.29323,1.56166
390.05216,1.55052
389.81109,1.53381
389.57002,1.51899
389.32895,1.51442
389.08788,1.51362
388.84681,1.50687
388.60574,1.49351
388.36467,1.47905
388.12360,1.46972
387.88253,1.46811
387.64146,1.47281
387.40038,1.47783
387.15931,1.47664
386.91824,1.47076
386.67717,1.46440
386.43610,1.45676
386.19503,1.44536
385.95396,1.43156
385.71289,1.41728
385.47182,1.40138
385.23075,1.38598
384.98968,1.38039
384.74861,1.38973
384.50754,1.40222
384.26647,1.40167
384.02540,1.38786
383.78433,1.37300
383.54326,1.36435
383.30219,1.35864
383.06111,1.35034
382.82004,1.34062
382.57897,1.33661
382.33790,1.34468
382.09683,1.36341
381.85576,1.37021
381.61469,1.34065
381.37362,1.30250
381.13255,1.28622
380.89148,1.28397
380.65041,1.28051
380.40934,1.28131
380.16827,1.29846
379.92720,1.32625
379.68613,1.34637
379.44506,1.34810
379.20399,1.33351
378.96292,1.31725
378.72184,1.31550
378.48077,1.33113
378.23970,1.35696
377.99863,1.38193
377.75756,1.39704
377.51649,1.39893
377.27542,1.38957
377.03435,1.37691
376.79328,1.37202
376.55221,1.38133
376.31114,1.39563
376.07007,1.39776
375.82900,1.38901
375.58793,1.38606
375.34686,1.39623
375.10579,1.41350
374.86472,1.42726
374.62365,1.43518
374.38257,1.44234
374.14150,1.44775
373.90043,1.44718
373.65936,1.44051
373.41829,1.42987
373.17722,1.41536
372.93615,1.39523
372.69508,1.37159
372.45401,1.35517
372.21294,1.35685
371.97187,1.37335
371.73080,1.38815
371.48973,1.39132
371.24866,1.38666
371.00759,1.37661
370.76652,1.36045
370.52545,1.34481
370.28437,1.33742
370.04330,1.33372
369.80223,1.32220
369.56116,1.30246
369.32009,1.28689
369.07902,1.28464
368.83795,1.29264
368.59688,1.29980
368.35581,1.30112
368.11474,1.30287
367.87367,1.31026
367.63260,1.32012
367.39153,1.32488
367.15046,1.32024
366.90939,1.31141
366.66832,1.30832
366.42725,1.31190
366.18618,1.31237
365.94510,1.30514
365.70403,1.29905
365.46296,1.30069
365.22189,1.30253
364.98082,1.29655
364.73975,1.28782
364.49868,1.28493
364.25761,1.28788
364.01654,1.29005
363.77547,1.28840
363.53440,1.28750
363.29333,1.29115
363.05226,1.29589
362.81119,1.29643
362.57012,1.29273
362.32905,1.28649
362.08798,1.27732
361.84691,1.26748
361.60583,1.26187
361.36476,1.26067
361.12369,1.26046
360.88262,1.26093
360.64155,1.26418
360.40048,1.26851
360.15941,1.26693
359.91834,1.25485
359.67727,1.23761
359.43620,1.22583
359.19513,1.22550
358.95406,1.23474
358.71299,1.24747
358.47192,1.25666
358.23085,1.25709
357.98978,1.25052
357.74871,1.24564
357.50764,1.24875
357.26656,1.25530
357.02549,1.25609
356.78442,1.25080
356.54335,1.24693
356.30228,1.24814
356.06121,1.24992
355.82014,1.24445
355.57907,1.22895
355.33800,1.21000
355.09693,1.19705
354.85586,1.19444
354.61479,1.20018
354.37372,1.20888
354.13265,1.21550
353.89158,1.21923
353.65051,1.22435
353.40944,1.23708
353.16837,1.25756
352.92729,1.27576
352.68622,1.28074
352.44515,1.27030
352.20408,1.25194
351.96301,1.23733
351.72194,1.23308
351.48087,1.23702
351.23980,1.24257
350.99873,1.24593
350.75766,1.24714
350.51659,1.24592
350.27552,1.24199
350.03445,1.23905
349.79338,1.24309
349.55231,1.25503
349.31124,1.26759
349.07017,1.27152
348.82910,1.26509
348.58802,1.25692
348.34695,1.25574
348.10588,1.25995
347.86481,1.26253
347.62374,1.26243
347.38267,1.26307
347.14160,1.26441
346.90053,1.26512
346.65946,1.26667
346.41839,1.27219
346.17732,1.28334
345.93625,1.29649
345.69518,1.30425
345.45411,1.30367
345.21304,1.30069
344.97197,1.30220
344.73090,1.30736
344.48983,1.31060
344.24875,1.30901
344.00768,1.30460
343.76661,1.30037
343.52554,1.29857
343.28447,1.30157
343.04340,1.31150
342.80233,1.32732
342.56126,1.34480
342.32019,1.36173
342.07912,1.37759
341.83805,1.39054
341.59698,1.39703
341.35591,1.38984
341.11484,1.36621
340.87377,1.33825
340.63270,1.32566
340.39163,1.33801
340.15056,1.36731
339.90948,1.39403
339.66841,1.40245
339.42734,1.39512
339.18627,1.38820
338.94520,1.39418
338.70413,1.41111
338.46306,1.42681
338.22199,1.43492
337.98092,1.44215
337.73985,1.45476
337.49878,1.46540
337.25771,1.46072
337.01664,1.44138
336.77557,1.42428
336.53450,1.42180
336.29343,1.43078
336.05236,1.44313
335.81129,1.45331
335.57021,1.45729
335.32914,1.45583
335.08807,1.45563
334.84700,1.46100
334.60593,1.46413
334.36486,1.45273
334.12379,1.42653
333.88272,1.39820
333.64165,1.37928
333.40058,1.37116
333.15951,1.37108
332.91844,1.37802
332.67737,1.38837
332.43630,1.39367
332.19523,1.38835
331.95416,1.37591
331.71309,1.36330
331.47202,1.35281
331.23094,1.34149
330.98987,1.32718
330.74880,1.31531
330.50773,1.31403
330.26666,1.32194
330.02559,1.33242
329.78452,1.34425
329.54345,1.35888
329.30238,1.36945
329.06131,1.36789
328.82024,1.36414
328.57917,1.36424
328.33810,1.36373
328.09703,1.35774
327.85596,1.34356
327.61489,1.32558
327.37382,1.31345
327.13275,1.30927
326.89167,1.30506
326.65060,1.29566
326.40953,1.28400
326.16846,1.27797
325.92739,1.28411
325.68632,1.30031
325.44525,1.32233
325.20418,1.34206
324.96311,1.34560
324.72204,1.33241
324.48097,1.32009
324.23990,1.32165
323.99883,1.33157
323.75776,1.34109
323.51669,1.35425
323.27562,1.37795
323.03455,1.40539
322.79348,1.41770
322.55240,1.40863
322.31133,1.39036
322.07026,1.37098
321.82919,1.34890
321.58812,1.32524
321.34705,1.30851
321.10598,1.30542
320.86491,1.31530
320.62384,1.33131
320.38277,1.34036
320.14170,1.33201
319.90063,1.31456
319.65956,1.30553
319.41849,1.30502
319.17742,1.30018
318.93635,1.29137
318.69528,1.29431
318.45421,1.31519
318.21313,1.33881
317.97206,1.34974
317.73099,1.35282
317.48992,1.35571
317.24885,1.35172
317.00778,1.33813
316.76671,1.32909
316.52564,1.33195
316.28457,1.33275
316.04350,1.32262
315.80243,1.31715
315.56136,1.33090
315.32029,1.35368
315.07922,1.36572
314.83815,1.36738
314.59708,1.37322
314.35601,1.38339
314.11494,1.38245
313.87386,1.36705
313.63279,1.35236
313.39172,1.34888
313.15065,1.35474
312.90958,1.36392
312.66851,1.37008
312.42744,1.36619
312.18637,1.35347
311.94530,1.34675
311.70423,1.35879
311.46316,1.38718
311.22209,1.42056
310.98102,1.44540
310.73995,1.44934
310.49888,1.43203
310.25781,1.40756
310.01674,1.39175
309.77567,1.39132
309.53459,1.40392
309.29352,1.41977
309.05245,1.42404
308.81138,1.41340
308.57031,1.39783
308.32924,1.38579
308.08817,1.38123
307.84710,1.38163
307.60603,1.38335
307.36496,1.39206
307.12389,1.41415
306.88282,1.43712
306.64175,1.43895
306.40068,1.42734
306.15961,1.42337
305.91854,1.42715
305.67747,1.42677
305.43640,1.41990
305.19532,1.41774
304.95425,1.42771
304.71318,1.43961
304.47211,1.43643
304.23104,1.41904
303.98997,1.40374
303.74890,1.39998
303.50783,1.40122
303.26676,1.39515
303.02569,1.37863
302.78462,1.35870
302.54355,1.34085
302.30248,1.32701
302.06141,1.32297
301.82034,1.33269
301.57927,1.34746
301.33820,1.35046
301.09713,1.33602
300.85605,1.31529
300.61498,1.30080
300.37391,1.29529
300.13284,1.29489
299.89177,1.29577
299.65070,1.29648
299.40963,1.29715
299.16856,1.29753
298.92749,1.29502
298.68642,1.28709
298.44535,1.27641
298.20428,1.26879
297.96321,1.26645
297.72214,1.26580
297.48107,1.26101
297.24000,1.25012
296.99893,1.23835
296.75786,1.23278
296.51678,1.23364
296.27571,1.23402
296.03464,1.22862
295.79357,1.21995
295.55250,1.21391
295.31143,1.21289
295.07036,1.21421
294.82929,1.21302
294.58822,1.20830
294.34715,1.20388
294.10608,1.20191
293.86501,1.20021
293.62394,1.19643
293.38287,1.19084
293.14180,1.18535
292.90073,1.18078
292.65966,1.17608
292.41859,1.17118
292.17751,1.16874
291.93644,1.17072
291.69537,1.17413
291.45430,1.17409
291.21323,1.17070
290.97216,1.16781
290.73109,1.16686
290.49002,1.16567
290.24895,1.16205
290.00788,1.15762
289.76681,1.15613
289.52574,1.15760
289.28467,1.15675
289.04360,1.14929
288.80253,1.13798
288.56146,1.13040
288.32039,1.13153
288.07932,1.13804
287.83824,1.14090
287.59717,1.13468
287.35610,1.12306
287.11503,1.11542
286.87396,1.11806
286.63289,1.12822
286.39182,1.13689
286.15075,1.13821
285.90968,1.13475
285.66861,1.13239
285.42754,1.13325
285.18647,1.13501
284.94540,1.13464
284.70433,1.13106
284.46326,1.12533
284.22219,1.12004
283.98112,1.11749
283.74005,1.11775
283.49897,1.11879
283.25790,1.11849
283.01683,1.11676
282.77576,1.11472
282.53469,1.11371
282.29362,1.11486
282.05255,1.11800
281.81148,1.12147
281.57041,1.12292
281.32934,1.12055
281.08827,1.11469
280.84720,1.10880
280.60613,1.10741
280.36506,1.11249
280.12399,1.12133
279.88292,1.12813
279.64185,1.12907
279.40078,1.12500
279.15970,1.11910
278.91863,1.11471
278.67756,1.11564
278.43649,1.12373
278.19542,1.13465
277.95435,1.14102
277.71328,1.14105
277.47221,1.13882
277.23114,1.13754
276.99007,1.13803
276.74900,1.14066
276.50793,1.14394
276.26686,1.14389
276.02579,1.13929
275.78472,1.13450
275.54365,1.13431
275.30258,1.13804
275.06151,1.14048
274.82043,1.13806
274.57936,1.13218
274.33829,1.12662
274.09722,1.12430
273.85615,1.12696
273.61508,1.13514
273.37401,1.14698
273.13294,1.15842
272.89187,1.16586
272.65080,1.16944
272.40973,1.17327
272.16866,1.17975
271.92759,1.18489
271.68652,1.18315
271.44545,1.17540
271.20438,1.16821
270.96331,1.16753
270.72224,1.17504
270.48116,1.18727
270.24009,1.19696
269.99902,1.19801
269.75795,1.19195
269.51688,1.18771
269.27581,1.19313
269.03474,1.20748
268.79367,1.22292
268.55260,1.23285
268.31153,1.23723
268.07046,1.23910
267.82939,1.24070
267.58832,1.24317
267.34725,1.24620
267.10618,1.24800
266.86511,1.24748
266.62404,1.24764
266.38297,1.25461
266.14189,1.27015
265.90082,1.28784
265.65975,1.29962
265.41868,1.30502
265.17761,1.31093
264.93654,1.32410
264.69547,1.34423
264.45440,1.36241
264.21333,1.37019
263.97226,1.37222
263.73119,1.38056
263.49012,1.39831
263.24905,1.41749
263.00798,1.42915
262.76691,1.43307
262.52584,1.43866
262.28477,1.45359
262.04370,1.47509
261.80262,1.49764
261.56155,1.52256
261.32048,1.55041
261.07941,1.57320
260.83834,1.58586
260.59727,1.59766
260.35620,1.61981
260.11513,1.65255
259.87406,1.68964
259.63299,1.72398
259.39192,1.75012
259.15085,1.77171
258.90978,1.79984
258.66871,1.83747
258.42764,1.87389
258.18657,1.88753
257.94550,1.86700
257.70443,1.84237
257.46335,1.84010
257.22228,1.85813
256.98121,1.88504
256.74014,1.91285
256.49907,1.93520
256.25800,1.93518
256.01693,1.89484
255.77586,1.83665
255.53479,1.79205
255.29372,1.76151
255.05265,1.73577
254.81158,1.71254
254.57051,1.68955
254.32944,1.66643
254.08837,1.65040
253.84730,1.64797
253.60623,1.65086
253.36516,1.64559
253.12408,1.63225
252.88301,1.61695
252.64194,1.59997
252.40087,1.58087
252.15980,1.56594
251.91873,1.56208
251.67766,1.56714
251.43659,1.57452
251.19552,1.58070
250.95445,1.57999
250.71338,1.57018
250.47231,1.56187
250.23124,1.56444
249.99017,1.57094
249.74910,1.56871
249.50803,1.55977
249.26696,1.55416
249.02589,1.55397
248.78481,1.55586
248.54374,1.55975
248.30267,1.56838
248.06160,1.58209
247.82053,1.59854
247.57946,1.61278
247.33839,1.61671
247.09732,1.60830
246.85625,1.59682
246.61518,1.59579
246.37411,1.61409
246.13304,1.64325
245.89197,1.65836
245.65090,1.65279
245.40983,1.65216
245.16876,1.67598
244.92769,1.71480
244.68661,1.74764
244.44554,1.76333
244.20447,1.76665
243.96340,1.77502
243.72233,1.80746
243.48126,1.86911
243.24019,1.93456
242.99912,1.96280
242.75805,1.95124
242.51698,1.89295
242.27591,1.79757
242.03484,1.70624
241.79377,1.61707
241.55270,1.52606
241.31163,1.43785
241.07056,1.36249
240.82949,1.30585
240.58842,1.26551
240.34734,1.23622
240.10627,1.21323
239.86520,1.19076
239.62413,1.16316
239.38306,1.12970
239.14199,1.09469
238.90092,1.06238
238.65985,1.03412
238.41878,1.00926
238.17771,0.98708
237.93664,0.96843
237.69557,0.95511
237.45450,0.94602
237.21343,0.93534
236.97236,0.91865
236.73129,0.89970
236.49022,0.88551
236.24915,0.87712
236.00807,0.87016
235.76700,0.86273
235.52593,0.85736
235.28486,0.85560
235.04379,0.85441
234.80272,0.84942
234.56165,0.84101
234.32058,0.83467
234.07951,0.83419
233.83844,0.83685
233.59737,0.83651
233.35630,0.83120
233.11523,0.82481
232.87416,0.82018
232.63309,0.81591
232.39202,0.81175
232.15095,0.81038
231.90988,0.81110
231.66880,0.80883
231.42773,0.80312
231.18666,0.80048
230.94559,0.80378
230.70452,0.80726
230.46345,0.80542
230.22238,0.80123
229.98131,0.80064
229.74024,0.80434
229.49917,0.80880
229.25810,0.81189
229.01703,0.81399
228.77596,0.81505
228.53489,0.81392
228.29382,0.81000
228.05275,0.80362
227.81168,0.79638
227.57061,0.79110
227.32953,0.78885
227.08846,0.78732
226.84739,0.78444
226.60632,0.78208
226.36525,0.78400
226.12418,0.79053
225.88311,0.79746
225.64204,0.80078
225.40097,0.80051
225.15990,0.79901
224.91883,0.79788
224.67776,0.79756
224.43669,0.79841
224.19562,0.80043
223.95455,0.80269
223.71348,0.80487
223.47241,0.80810
223.23134,0.81300
222.99026,0.81865
222.74919,0.82464
222.50812,0.83118
222.26705,0.83741
222.02598,0.84266
221.78491,0.84858
221.54384,0.85694
221.30277,0.86741
221.06170,0.87866
220.82063,0.88880
220.57956,0.89623
220.33849,0.90264
220.09742,0.91156
219.85635,0.92211
219.61528,0.92986
219.37421,0.93467
219.13314,0.94151
218.89207,0.95387
218.65099,0.97031
218.40992,0.98561
218.16885,0.99495
217.92778,0.99977
217.68671,1.00692
217.44564,1.02006
217.20457,1.03717
216.96350,1.05714
216.72243,1.08284
216.48136,1.11435
216.24029,1.14353
215.99922,1.16137
215.75815,1.16889
215.51708,1.17283
215.27601,1.17615
215.03494,1.18009
214.79387,1.18839
214.55280,1.20323
214.31172,1.22075
214.07065,1.23646
213.82958,1.25086
213.58851,1.26417
213.34744,1.27344
213.10637,1.27867
212.86530,1.28350
212.62423,1.28873
212.38316,1.28963
212.14209,1.28449
211.90102,1.28201
211.65995,1.29313
211.41888,1.31887
211.17781,1.34923
210.93674,1.37243
210.69567,1.38380
210.45460,1.38489
210.21353,1.37698
209.97245,1.36047
209.73138,1.33855
209.49031,1.31768
209.24924,1.30448
209.00817,1.30231
208.76710,1.31047
208.52603,1.32246
208.28496,1.32587
208.04389,1.31276
207.80282,1.28960
207.56175,1.27058
207.32068,1.26448
207.07961,1.26901
206.83854,1.27315
206.59747,1.26506
206.35640,1.24134
206.11533,1.20969
205.87426,1.18169
205.63318,1.16494
205.39211,1.16169
205.15104,1.16859
204.90997,1.17409
204.66890,1.16366
204.42783,1.13498
204.18676,1.10039
203.94569,1.07370
203.70462,1.06136
203.46355,1.06114
203.22248,1.06503
202.98141,1.06364
202.74034,1.04968
202.49927,1.02212
202.25820,0.98801
202.01713,0.95641
201.77606,0.93258
201.53499,0.91739
201.29391,0.90749
201.05284,0.89731
200.81177,0.88373
200.57070,0.86769
200.32963,0.85139
200.08856,0.83743
199.84749,0.82830
199.60642,0.82320
199.36535,0.81729
199.12428,0.80653
198.88321,0.79202
198.64214,0.77764
198.40107,0.76593
198.16000,0.75716
197.91893,0.74980
197.67786,0.74119
197.43679,0.73014
197.19572,0.71904
196.95464,0.71118
196.71357,0.70678
196.47250,0.70286
196.23143,0.69595
195.99036,0.68480
195.74929,0.67146
195.50822,0.65985
195.26715,0.65284
195.02608,0.65030
194.78501,0.64930
194.54394,0.64610
194.30287,0.63914
194.06180,0.63060
193.82073,0.62414
193.57966,0.62064
193.33859,0.61743
193.09752,0.61215
192.85645,0.60552
192.61537,0.59957
192.37430,0.59501
192.13323,0.59114
191.89216,0.58697
191.65109,0.58200
191.41002,0.57694
191.16895,0.57394
190.92788,0.57510
190.68681,0.57946
190.44574,0.58175
190.20467,0.57734
189.96360,0.56915
189.72253,0.56500
189.48146,0.56769
189.24039,0.57126
188.99932,0.56915
188.75825,0.56306
188.51718,0.55942
188.27610,0.56033
188.03503,0.56165
187.79396,0.55933
187.55289,0.55523
187.31182,0.55429
187.07075,0.55713
186.82968,0.55883
186.58861,0.55631
186.34754,0.55302
186.10647,0.55260
185.86540,0.55342
185.62433,0.55273
185.38326,0.55196
185.14219,0.55380
184.90112,0.55704
184.66005,0.55865
184.41898,0.55885
184.17791,0.56001
183.93683,0.56193
183.69576,0.56298
183.45469,0.56438
183.21362,0.56816
182.97255,0.57232
182.73148,0.57355
182.49041,0.57310
182.24934,0.57450
182.00827,0.57768
181.76720,0.57999
181.52613,0.58078
181.28506,0.58130
181.04399,0.58191
180.80292,0.58223
180.56185,0.58274
180.32078,0.58426
180.07971,0.58686
179.83864,0.59050
179.59756,0.59588
179.35649,0.60275
179.11542,0.60873
178.87435,0.61283
178.63328,0.61784
178.39221,0.62616
178.15114,0.63682
177.91007,0.64824
177.66900,0.66056
177.42793,0.67382
177.18686,0.68772
176.94579,0.70277
176.70472,0.71908
176.46365,0.73639
176.22258,0.75515
175.98151,0.77416
175.74044,0.79021
175.49937,0.80371
175.25829,0.81980
175.01722,0.84137
174.77615,0.86616
174.53508,0.89115
174.29401,0.91539
174.05294,0.93919
173.81187,0.96308
173.57080,0.98667
173.32973,1.00871
173.08866,1.02892
172.84759,1.04769
172.60652,1.06340
172.36545,1.07241
172.12438,1.07328
171.88331,1.06849
171.64224,1.06063
171.40117,1.04971
171.16010,1.03651
170.91902,1.02495
170.67795,1.01780
170.43688,1.01352
170.19581,1.01011
169.95474,1.00796
169.71367,1.00700
169.47260,1.00597
169.23153,1.00439
168.99046,1.00135
168.74939,0.99442
168.50832,0.98324
168.26725,0.97164
168.02618,0.96379
167.78511,0.96007
167.54404,0.95778
167.30297,0.95480
167.06190,0.95143
166.82083,0.94918
166.57975,0.94935
166.33868,0.95260
166.09761,0.95942
165.85654,0.97054
165.61547,0.98640
165.37440,1.00515
165.13333,1.02185
164.89226,1.03238
164.65119,1.03711
164.41012,1.03942
164.16905,1.04246
163.92798,1.04788
163.68691,1.05686
163.44584,1.07134
163.20477,1.09201
162.96370,1.11529
162.72263,1.13487
162.48156,1.14746
162.24048,1.15460
161.99941,1.15901
161.75834,1.16206
161.51727,1.16398
161.27620,1.16521
161.03513,1.16717
160.79406,1.17129
160.55299,1.17730
160.31192,1.18217
160.07085,1.18097
159.82978,1.17036
159.58871,1.15127
159.34764,1.12815
159.10657,1.10645
158.86550,1.09132
158.62443,1.08463
158.38336,1.08254
158.14229,1.08009
157.90121,1.07697
157.66014,1.07495
157.41907,1.07285
157.17800,1.06854
156.93693,1.06307
156.69586,1.05834
156.45479,1.05279
156.21372,1.04443
155.97265,1.03689
155.73158,1.03511
155.49051,1.03519
155.24944,1.02669
155.00837,1.00524
154.76730,0.97746
154.52623,0.95351
154.28516,0.93915
154.04409,0.93375
153.80302,0.93145
153.56194,0.92344
153.32087,0.90305
153.07980,0.87231
152.83873,0.84091
152.59766,0.81716
152.35659,0.80199
152.11552,0.79068
151.87445,0.77795
151.63338,0.76099
151.39231,0.73986
151.15124,0.71680
150.91017,0.69503
150.66910,0.67696
150.42803,0.66352
150.18696,0.65398
149.94589,0.64531
149.70482,0.63390
149.46375,0.61928
149.22267,0.60468
148.98160,0.59327
148.74053,0.58534
148.49946,0.57899
148.25839,0.57233
148.01732,0.56500
147.77625,0.55866
147.53518,0.55542
147.29411,0.55568
147.05304,0.55792
146.81197,0.55996
146.57090,0.56052
146.32983,0.55996
146.08876,0.55993
145.84769,0.56227
145.60662,0.56786
145.36555,0.57569
145.12448,0.58301
144.88340,0.58772
144.64233,0.59063
144.40126,0.59451
144.16019,0.60051
143.91912,0.60637
143.67805,0.60855
143.43698,0.60595
143.19591,0.60097
142.95484,0.59601
142.71377,0.59012
142.47270,0.58084
142.23163,0.56845
141.99056,0.55642
141.74949,0.54739
141.50842,0.54051
141.26735,0.53305
141.02628,0.52406
140.78521,0.51576
140.54413,0.51099
140.30306,0.51020
140.06199,0.51197
139.82092,0.51609
139.57985,0.52341
139.33878,0.53252
139.09771,0.53984
138.85664,0.54441
138.61557,0.54943
138.37450,0.55771
138.13343,0.56869
137.89236,0.58090
137.65129,0.59384
137.41022,0.60711
137.16915,0.62092
136.92808,0.63764
136.68701,0.65990
136.44594,0.68709
136.20486,0.71573
135.96379,0.74359
135.72272,0.77182
135.48165,0.80192
135.24058,0.83283
134.99951,0.86253
134.75844,0.89077
134.51737,0.91966
134.27630,0.95298
134.03523,0.99223
133.79416,1.03192
133.55309,1.06520
133.31202,1.09539
133.07095,1.13089
132.82988,1.16608
132.58881,1.18299
132.34774,1.17782
132.10667,1.16741
131.86559,1.16679
131.62452,1.17476
131.38345,1.17789
131.14238,1.16669
130.90131,1.14459
130.66024,1.11597
130.41917,1.07800
130.17810,1.03182
129.93703,0.98682
129.69596,0.94804
129.45489,0.91103
129.21382,0.87157
128.97275,0.83199
128.73168,0.79584
128.49061,0.76309
128.24954,0.73156
128.00847,0.70016
127.76740,0.66953
127.52632,0.64117
127.28525,0.61621
127.04418,0.59437
126.80311,0.57428
126.56204,0.55525
126.32097,0.53809
126.07990,0.52406
125.83883,0.51319
125.59776,0.50368
125.35669,0.49330
125.11562,0.48169
124.87455,0.47069
124.63348,0.46179
124.39241,0.45430
124.15134,0.44639
123.91027,0.43774
123.66920,0.43014
123.42812,0.42512
123.18705,0.42224
122.94598,0.42027
122.70491,0.41879
122.46384,0.41811
122.22277,0.41855
121.98170,0.42013
121.74063,0.42242
121.49956,0.42491
121.25849,0.42825
121.01742,0.43390
120.77635,0.44258
120.53528,0.45414
120.29421,0.46821
120.05314,0.48398
119.81207,0.50059
119.57100,0.51859
119.32993,0.53965
119.08885,0.56435
118.84778,0.59155
118.60671,0.61970
118.36564,0.64822
118.12457,0.67812
117.88350,0.71131
117.64243,0.74774
117.40136,0.78277
117.16029,0.80949
116.91922,0.82422
116.67815,0.82720
116.43708,0.81967
116.19601,0.80350
115.95494,0.78244
115.71387,0.76115
115.47280,0.74251
115.23173,0.72780
114.99066,0.71755
114.74958,0.71056
114.50851,0.70367
114.26744,0.69459
114.02637,0.68424
113.78530,0.67508
113.54423,0.66821
113.30316,0.66298
113.06209,0.65897
112.82102,0.65633
112.57995,0.65459
112.33888,0.65353
112.09781,0.65491
111.85674,0.66154
111.61567,0.67498
111.37460,0.69474
111.13353,0.71832
110.89246,0.74202
110.65139,0.76199
110.41031,0.77345
110.16924,0.77019
109.92817,0.75012
109.68710,0.71978
109.44603,0.68820
109.20496,0.65991
108.96389,0.63619
108.72282,0.61742
108.48175,0.60261
108.24068,0.58933
107.99961,0.57518
107.75854,0.55862
107.51747,0.53909
107.27640,0.51716
107.03533,0.49410
106.79426,0.47113
106.55319,0.45024
106.31212,0.43455
106.07104,0.42573
105.82997,0.42122
105.58890,0.41620
105.34783,0.40836
105.10676,0.39808
104.86569,0.38456
104.62462,0.36641
104.38355,0.34608
104.14248,0.32928
103.90141,0.32000
103.66034,0.31789
103.41927,0.31882
103.17820,0.31778
102.93713,0.31287
102.69606,0.30599
102.45499,0.29937
102.21392,0.29368
101.97285,0.28903
101.73177,0.28609
101.49070,0.28497
101.24963,0.28347
101.00856,0.27853
100.76749,0.27005
100.52642,0.26134
100.28535,0.25595
100.04428,0.25565
99.80321,0.25987
99.56214,0.26504
99.32107,0.26549
99.08000,0.25876
98.83893,0.24902
98.59786,0.24301
98.35679,0.24415
98.11572,0.25072
97.87465,0.25773
97.63358,0.26047
97.39250,0.25850
97.15143,0.25702
96.91036,0.26241
96.66929,0.27471
96.42822,0.28612
96.18715,0.28935
95.94608,0.28670
95.70501,0.28745
95.46394,0.29800
95.22287,0.31527
94.98180,0.32744
94.74073,0.32753
94.49966,0.32414
94.25859,0.32834
94.01752,0.33826
93.77645,0.34146
93.53538,0.33448
93.29431,0.32953
93.05323,0.33451
92.81216,0.34187
92.57109,0.34155
92.33002,0.33744
92.08895,0.33917
91.84788,0.34743
91.60681,0.35633
91.36574,0.36424
91.12467,0.37479
90.88360,0.38943
90.64253,0.40848
90.40146,0.43749
90.16039,0.48182
89.91932,0.53542
89.67825,0.58705
89.43718,0.63665
89.19611,0.68683
88.95504,0.72782
88.71396,0.75266
88.47289,0.76251
88.23182,0.74867
87.99075,0.70746
87.74968,0.65411
87.50861,0.60100
87.26754,0.54828
87.02647,0.49793
86.78540,0.45493
86.54433,0.41977
86.30326,0.38991
86.06219,0.36425
85.82112,0.34226
85.58005,0.32258
85.33898,0.30421
85.09791,0.28659
84.85684,0.26940
84.61577,0.25343
84.37469,0.24022
84.13362,0.23033
83.89255,0.22274
83.65148,0.21596
83.41041,0.20935
83.16934,0.20304
82.92827,0.19768
82.68720,0.19452
82.44613,0.19412
82.20506,0.19454
81.96399,0.19287
81.72292,0.18870
81.48185,0.18400
81.24078,0.18032
80.99971,0.17829
80.75864,0.17816
80.51757,0.17897
80.27650,0.17856
80.03542,0.17571
79.79435,0.17126
79.55328,0.16702
79.31221,0.16461
79.07114,0.16521
78.83007,0.16892
78.58900,0.17384
78.34793,0.17677
78.10686,0.17601
77.86579,0.17258
77.62472,0.16871
77.38365,0.16612
77.14258,0.16540
76.90151,0.16590
76.66044,0.16649
76.41937,0.16690
76.17830,0.16781
75.93723,0.16937
75.69615,0.16983
75.45508,0.16675
75.21401,0.15990
74.97294,0.15233
74.73187,0.14837
74.49080,0.15072
74.24973,0.15810
74.00866,0.16504
73.76759,0.16556
73.52652,0.15926
73.28545,0.15171
73.04438,0.14845
72.80331,0.15119
72.56224,0.15821
72.32117,0.16619
72.08010,0.17220
71.83903,0.17469
71.59796,0.17306
71.35688,0.16767
71.11581,0.16100
70.87474,0.15701
70.63367,0.15881
70.39260,0.16757
70.15153,0.18353
69.91046,0.20634
69.66939,0.23385
69.42832,0.26052
69.18725,0.27916
68.94618,0.28519
68.70511,0.27804
68.46404,0.25929
68.22297,0.23274
67.98190,0.20480
67.74083,0.18154
67.49976,0.16560
67.25869,0.15627
67.01761,0.15118
66.77654,0.14818
66.53547,0.14639
66.29440,0.14551
66.05333,0.14481
65.81226,0.14396
65.57119,0.14433
65.33012,0.14845
65.08905,0.15806
64.84798,0.17262
64.60691,0.18955
64.36584,0.20536
64.12477,0.21634
63.88370,0.21955
63.64263,0.21517
63.40156,0.20699
63.16049,0.19869
62.91942,0.19079
62.67834,0.18193
62.43727,0.17148
62.19620,0.16071
61.95513,0.15168
61.71406,0.14488
61.47299,0.13843
61.23192,0.13028
60.99085,0.12046
60.74978,0.11093
60.50871,0.10396
60.26764,0.10068
60.02657,0.10068
59.78550,0.10352
59.54443,0.11022
59.30336,0.12211
59.06229,0.13782
58.82122,0.15315
58.58015,0.16550
58.33907,0.17651
58.09800,0.18841
57.85693,0.19977
57.61586,0.20665
57.37479,0.20584
57.13372,0.19527
56.89265,0.17492
56.65158,0.14904
56.41051,0.12458
56.16944,0.10759
55.92837,0.10155
55.68730,0.10655
55.44623,0.11971
55.20516,0.13787
54.96409,0.16068
54.72302,0.18934
54.48195,0.21925
54.24088,0.23203
53.99980,0.21276
53.75873,0.17445
53.51766,0.13678
53.27659,0.11110
53.03552,0.10256
52.79445,0.11150
52.55338,0.13552
52.31231,0.17238
52.07124,0.21197
51.83017,0.22126
51.58910,0.18206
51.34803,0.12917
51.10696,0.09172
50.86589,0.07963
50.62482,0.09706
50.38375,0.14378
50.14268,0.20143
49.90161,0.21889
49.66053,0.17573
49.41946,0.12357
49.17839,0.10146
48.93732,0.12251
48.69625,0.18157
48.45518,0.22463
48.21411,0.17541
47.97304,0.10167
47.73197,0.07657
47.49090,0.11602
47.24983,0.18574
47.00876,0.18425
46.76769,0.12670
46.52662,0.10703
46.28555,0.14100
46.04448,0.17591
45.80341,0.15470
45.56234,0.12557
45.32126,0.12437
45.08019,0.12654
44.83912,0.11456
44.59805,0.11451
44.35698,0.13351
44.11591,0.14610
43.87484,0.15044
43.63377,0.16067
43.39270,0.16517
43.15163,0.15445
42.91056,0.14750
42.66949,0.15375
42.42842,0.16206
42.18735,0.16431
41.94628,0.16070
41.70521,0.15235
41.46414,0.14577
41.22307,0.14800
40.98199,0.15677
40.74092,0.16587
40.49985,0.17362
40.25878,0.17941
40.01771,0.17879
39.77664,0.16840
39.53557,0.15239
39.29450,0.13862
39.05343,0.13371
38.81236,0.14487
38.57129,0.17588
38.33022,0.21427
38.08915,0.23936
37.84808,0.25071
37.60701,0.25583
37.36594,0.24912
37.12487,0.23022
36.88380,0.21464
36.64272,0.21203
36.40165,0.21896
36.16058,0.22783
35.91951,0.22999
35.67844,0.22061
35.43737,0.20527
35.19630,0.19076
34.95523,0.17735
34.71416,0.16463
34.47309,0.15688
34.23202,0.15839
33.99095,0.16252
33.74988,0.15604
33.50881,0.13965
33.26774,0.13003
33.02667,0.13648
32.78560,0.15233
32.54453,0.17117
32.30345,0.18865
32.06238,0.19316
31.82131,0.17689
31.58024,0.14674
31.33917,0.11413
31.09810,0.08250
30.85703,0.05182
30.61596,0.02903
30.37489,0.02423
30.13382,0.03431
29.89275,0.04400
29.65168,0.04485
29.41061,0.04144
29.16954,0.04053
28.92847,0.03673
28.68740,0.01312
28.44633,-0.03317
28.20526,-0.07270
27.96418,-0.07597
27.72311,-0.05778
27.48204,-0.05380
27.24097,-0.07575
26.99990,-0.10045
26.75883,-0.10009
26.51776,-0.08920
26.27669,-0.09784
26.03562,-0.11893
25.79455,-0.12082
25.55348,-0.10020
25.31241,-0.08549
25.07134,-0.09557
24.83027,-0.12565
24.58920,-0.15848
24.34813,-0.17415
24.10706,-0.16254
23.86599,-0.14114
23.62491,-0.14702
23.38384,-0.20592
23.14277,-0.30662
22.90170,-0.39684
22.66063,-0.43039
22.41956,-0.40691
22.17849,-0.36259
21.93742,-0.33541
21.69635,-0.33020
21.45528,-0.32216
21.21421,-0.29944
20.97314,-0.27792
20.73207,-0.27424
20.49100,-0.28566
20.24993,-0.29539
20.00886,-0.29260
19.76779,-0.28911
19.52672,-0.30939
19.28564,-0.36435
19.04457,-0.45080
18.80350,-0.54765
18.56243,-0.57968
18.32136,-0.52862
18.08029,-0.49129
17.83922,-0.47697
17.59815,-0.44816
17.35708,-0.40856
17.11601,-0.38734
16.87494,-0.40058
16.63387,-0.43911
16.39280,-0.48893
16.15173,-0.53566
15.91066,-0.54841
15.66959,-0.53713
15.42852,-0.51098
15.18745,-0.46596
14.94637,-0.41132
14.70530,-0.36364
14.46423,-0.33531
14.22316,-0.33150
13.98209,-0.34442
13.74102,-0.36301
13.49995,-0.38108
13.25888,-0.39803
13.01781,-0.41263
12.77674,-0.41994
12.53567,-0.41766
12.29460,-0.41406
12.05353,-0.40972
11.81246,-0.41118
11.57139,-0.43648
11.33032,-0.47688
11.08925,-0.48466
10.84818,-0.47758
10.60710,-0.45155
10.36603,-0.41379
10.12496,-0.38830
9.88389,-0.38536
9.64282,-0.38944
9.40175,-0.38139
9.16068,-0.36944
8.91961,-0.38094
8.67854,-0.43121
8.43747,-0.47302
8.19640,-0.47133
7.95533,-0.44997
7.71426,-0.44292
7.47319,-0.45078
7.23212,-0.45239
6.99105,-0.44497
6.74998,-0.43165
6.50891,-0.40800
6.26783,-0.39725
6.02676,-0.41110
5.78569,-0.41846
5.54462,-0.40999
5.30355,-0.40071
5.06248,-0.40088
4.82141,-0.40523
4.58034,-0.40733
4.33927,-0.40376
4.09820,-0.39967
3.85713,-0.39703
3.61606,-0.38492
3.37499,-0.37422
3.13392,-0.36241
2.89285,-0.34613
2.65178,-0.33856
2.41071,-0.34792
2.16964,-0.37115
1.92856,-0.40001
1.68749,-0.41331
1.44642,-0.39934
1.20535,-0.37677
0.96428,-0.36746
0.72321,-0.36720
0.48214,-0.36054
0.24107,-0.31628
-0.00000,-0.04525
