399.69498,1.49634
399.45391,1.53682
399.21284,1.59747
398.97177,1.66672
398.73070,1.71199
398.48963,1.70747
398.24856,1.67524
398.00749,1.65875
397.76642,1.67841
397.52535,1.72309
397.28428,1.75667
397.04321,1.76000
396.80214,1.73992
396.56107,1.70397
396.32000,1.66152
396.07892,1.63503
395.83785,1.64689
395.59678,1.69623
395.35571,1.76446
395.11464,1.82955
394.87357,1.84994
394.63250,1.80706
394.39143,1.73956
394.15036,1.67819
393.90929,1.63277
393.66822,1.60445
393.42715,1.59210
393.18608,1.59481
392.94501,1.60576
392.70394,1.61595
392.46287,1.63836
392.22180,1.68520
391.98073,1.74660
391.73965,1.81695
391.49858,1.89337
391.25751,1.94670
391.01644,1.96510
390.77537,2.01738
390.53430,2.10915
390.29323,2.12595
390.05216,2.13111
389.81109,2.16077
389.57002,2.17446
389.32895,2.14800
389.08788,2.06714
388.84681,1.93995
388.60574,1.84830
388.36467,1.82267
388.12360,1.85845
387.88253,1.94911
387.64146,2.11281
387.40038,2.36729
387.15931,2.61443
386.91824,2.28031
386.67717,2.12109
386.43610,2.10383
386.19503,2.13538
385.95396,2.18513
385.71289,2.19501
385.47182,2.06657
385.23075,2.01237
384.98968,2.16504
384.74861,2.25544
384.50754,2.03123
384.26647,1.90479
384.02540,1.85578
383.78433,1.91052
383.54326,1.97695
383.30219,1.91355
383.06111,1.87255
382.82004,1.79462
382.57897,1.77481
382.33790,1.77110
382.09683,1.74189
381.85576,1.76325
381.61469,1.95992
381.37362,2.28668
381.13255,2.09261
380.89148,1.96980
380.65041,1.96080
380.40934,1.88151
380.16827,1.79962
379.92720,1.68161
379.68613,1.64405
379.44506,1.66305
379.20399,1.65204
378.96292,1.65800
378.72184,1.72513
378.48077,1.78161
378.23970,1.77812
377.99863,1.74134
377.75756,1.74443
377.51649,1.82793
377.27542,1.90779
377.03435,1.97431
376.79328,2.07439
376.55221,2.00218
376.31114,2.04299
376.07007,2.18009
375.82900,2.20106
375.58793,2.08414
375.34686,2.00792
375.10579,2.00761
374.86472,2.02667
374.62365,2.05724
374.38257,2.15400
374.14150,2.22874
373.90043,2.23546
373.65936,2.21152
373.41829,2.08791
373.17722,1.94500
372.93615,1.86767
372.69508,1.82917
372.45401,1.78658
372.21294,1.72805
371.97187,1.68444
371.73080,1.68224
371.48973,1.70483
371.24866,1.71728
371.00759,1.69444
370.76652,1.64653
370.52545,1.59994
370.28437,1.55959
370.04330,1.51520
369.80223,1.47082
369.56116,1.44178
369.32009,1.43001
369.07902,1.42014
368.83795,1.40411
368.59688,1.39142
368.35581,1.38480
368.11474,1.37715
367.87367,1.36642
367.63260,1.35786
367.39153,1.35445
367.15046,1.35558
366.90939,1.36665
366.66832,1.38098
366.42725,1.37238
366.18618,1.33671
365.94510,1.29572
365.70403,1.26966
365.46296,1.26304
365.22189,1.26651
364.98082,1.27028
364.73975,1.27231
364.49868,1.27395
364.25761,1.27346
364.01654,1.27036
363.77547,1.26929
363.53440,1.27380
363.29333,1.28191
363.05226,1.28866
362.81119,1.28648
362.57012,1.26769
362.32905,1.23789
362.08798,1.21572
361.84691,1.21265
361.60583,1.22437
361.36476,1.23915
361.12369,1.24877
360.88262,1.25188
360.64155,1.25104
360.40048,1.25046
360.15941,1.25613
359.91834,1.27017
359.67727,1.28486
359.43620,1.29081
359.19513,1.28717
358.95406,1.28007
358.71299,1.27210
358.47192,1.26019
358.23085,1.24230
357.98978,1.22055
357.74871,1.20314
357.50764,1.20206
357.26656,1.22157
357.02549,1.24792
356.78442,1.25966
356.54335,1.25125
356.30228,1.23816
356.06121,1.23614
355.82014,1.24522
355.57907,1.25602
355.33800,1.26342
355.09693,1.26574
354.85586,1.25732
354.61479,1.23687
354.37372,1.21542
354.13265,1.20490
353.89158,1.20751
353.65051,1.21944
353.40944,1.23647
353.16837,1.25479
352.92729,1.26952
352.68622,1.27565
352.44515,1.26894
352.20408,1.24813
351.96301,1.22171
351.72194,1.20515
351.48087,1.20733
351.23980,1.22571
350.99873,1.24928
350.75766,1.26274
350.51659,1.25968
350.27552,1.25158
350.03445,1.25315
349.79338,1.26497
349.55231,1.27589
349.31124,1.27660
349.07017,1.26996
348.82910,1.26291
348.58802,1.25896
348.34695,1.26462
348.10588,1.28595
347.86481,1.31609
347.62374,1.33662
347.38267,1.34215
347.14160,1.34506
346.90053,1.34992
346.65946,1.35037
346.41839,1.34828
346.17732,1.34866
345.93625,1.34620
345.69518,1.33415
345.45411,1.31802
345.21304,1.31347
344.97197,1.32382
344.73090,1.33365
344.48983,1.32945
344.24875,1.31645
344.00768,1.31104
343.76661,1.32409
343.52554,1.35330
343.28447,1.38460
343.04340,1.40330
342.80233,1.41249
342.56126,1.43063
342.32019,1.46749
342.07912,1.50980
341.83805,1.53684
341.59698,1.55018
341.35591,1.57178
341.11484,1.61154
340.87377,1.64644
340.63270,1.65202
340.39163,1.63935
340.15056,1.63331
339.90948,1.64364
339.66841,1.66614
339.42734,1.68470
339.18627,1.68172
338.94520,1.66868
338.70413,1.68110
338.46306,1.72108
338.22199,1.74331
337.98092,1.72634
337.73985,1.71370
337.49878,1.75294
337.25771,1.83899
337.01664,1.89278
336.77557,1.85925
336.53450,1.80459
336.29343,1.78083
336.05236,1.79346
335.81129,1.83900
335.57021,1.90806
335.32914,1.98184
335.08807,2.02077
334.84700,1.98712
334.60593,1.90335
334.36486,1.83382
334.12379,1.80195
333.88272,1.77552
333.64165,1.73814
333.40058,1.73279
333.15951,1.77025
332.91844,1.80466
332.67737,1.79940
332.43630,1.73417
332.19523,1.64630
331.95416,1.59035
331.71309,1.56549
331.47202,1.53971
331.23094,1.49562
330.98987,1.45985
330.74880,1.46267
330.50773,1.50319
330.26666,1.56222
330.02559,1.61932
329.78452,1.64551
329.54345,1.61225
329.30238,1.55042
329.06131,1.51212
328.82024,1.50379
328.57917,1.50371
328.33810,1.49027
328.09703,1.46223
327.85596,1.44498
327.61489,1.46439
327.37382,1.52130
327.13275,1.58749
326.89167,1.62300
326.65060,1.61638
326.40953,1.59146
326.16846,1.57871
325.92739,1.59699
325.68632,1.63817
325.44525,1.65930
325.20418,1.61447
324.96311,1.52474
324.72204,1.45223
324.48097,1.42531
324.23990,1.44392
323.99883,1.50695
323.75776,1.60962
323.51669,1.71746
323.27562,1.77922
323.03455,1.77406
322.79348,1.75477
322.55240,1.77881
322.31133,1.80324
322.07026,1.75367
321.82919,1.73090
321.58812,1.76485
321.34705,1.78574
321.10598,1.79855
320.86491,1.83885
320.62384,1.88058
320.38277,1.87512
320.14170,1.83785
319.90063,1.79518
319.65956,1.79684
319.41849,1.89262
319.17742,1.99162
318.93635,1.92898
318.69528,1.86665
318.45421,1.89484
318.21313,1.84613
317.97206,1.73445
317.73099,1.69954
317.48992,1.73557
317.24885,1.79412
317.00778,1.82632
316.76671,1.83989
316.52564,1.80860
316.28457,1.75409
316.04350,1.73681
315.80243,1.74107
315.56136,1.73762
315.32029,1.75922
315.07922,1.88099
314.83815,2.07244
314.59708,2.00285
314.35601,1.88561
314.11494,1.88832
313.87386,1.95013
313.63279,1.97033
313.39172,1.91123
313.15065,1.85558
312.90958,1.83865
312.66851,1.83009
312.42744,1.82145
312.18637,1.83671
311.94530,1.88276
311.70423,1.87364
311.46316,1.82973
311.22209,1.87009
310.98102,1.93132
310.73995,1.85634
310.49888,1.85740
310.25781,1.92688
310.01674,1.92247
309.77567,1.98583
309.53459,2.14076
309.29352,2.03215
309.05245,1.93167
308.81138,1.93814
308.57031,2.09049
308.32924,2.32346
308.08817,2.44148
307.84710,2.42983
307.60603,2.18670
307.36496,1.95668
307.12389,1.78480
306.88282,1.71651
306.64175,1.71664
306.40068,1.71442
306.15961,1.66703
305.91854,1.60643
305.67747,1.57872
305.43640,1.58582
305.19532,1.59359
304.95425,1.57785
304.71318,1.54209
304.47211,1.49320
304.23104,1.45455
303.98997,1.44311
303.74890,1.44348
303.50783,1.43699
303.26676,1.42626
303.02569,1.41666
302.78462,1.40169
302.54355,1.37892
302.30248,1.35612
302.06141,1.33585
301.82034,1.31703
301.57927,1.30538
301.33820,1.30416
301.09713,1.30172
300.85605,1.28301
300.61498,1.25368
300.37391,1.23199
300.13284,1.22159
299.89177,1.21293
299.65070,1.20088
299.40963,1.19038
299.16856,1.18662
298.92749,1.18624
298.68642,1.18063
298.44535,1.16588
298.20428,1.14580
297.96321,1.12526
297.72214,1.10732
297.48107,1.09550
297.24000,1.09271
296.99893,1.09709
296.75786,1.10154
296.51678,1.10065
296.27571,1.09682
296.03464,1.09606
295.79357,1.09947
295.55250,1.10193
295.31143,1.09775
295.07036,1.08828
294.82929,1.08303
294.58822,1.08890
294.34715,1.10054
294.10608,1.10480
293.86501,1.09538
293.62394,1.07728
293.38287,1.05867
293.14180,1.04688
292.90073,1.04660
292.65966,1.05394
292.41859,1.05730
292.17751,1.05111
291.93644,1.04132
291.69537,1.03244
291.45430,1.02113
291.21323,1.00535
290.97216,0.99021
290.73109,0.98275
290.49002,0.98527
290.24895,0.99377
290.00788,1.00192
289.76681,1.00656
289.52574,1.00883
289.28467,1.00968
289.04360,1.00811
288.80253,1.00372
288.56146,0.99830
288.32039,0.99436
288.07932,0.99265
287.83824,0.99135
287.59717,0.98907
287.35610,0.98803
287.11503,0.98941
286.87396,0.98876
286.63289,0.98199
286.39182,0.97211
286.15075,0.96529
285.90968,0.96233
285.66861,0.95880
285.42754,0.95302
285.18647,0.94835
284.94540,0.94716
284.70433,0.94775
284.46326,0.94873
284.22219,0.95159
283.98112,0.95598
283.74005,0.95773
283.49897,0.95521
283.25790,0.95245
283.01683,0.95175
282.77576,0.94964
282.53469,0.94412
282.29362,0.93975
282.05255,0.94101
281.81148,0.94581
281.57041,0.94988
281.32934,0.95347
281.08827,0.95876
280.84720,0.96317
280.60613,0.96154
280.36506,0.95458
280.12399,0.94893
279.88292,0.94845
279.64185,0.94972
279.40078,0.94732
279.15970,0.94146
278.91863,0.93781
278.67756,0.94052
278.43649,0.94737
278.19542,0.95218
277.95435,0.95134
277.71328,0.94655
277.47221,0.94175
277.23114,0.93945
276.99007,0.93938
276.74900,0.93946
276.50793,0.93835
276.26686,0.93675
276.02579,0.93616
275.78472,0.93816
275.54365,0.94403
275.30258,0.95273
275.06151,0.95987
274.82043,0.96141
274.57936,0.95808
274.33829,0.95408
274.09722,0.95271
273.85615,0.95407
273.61508,0.95568
273.37401,0.95552
273.13294,0.95470
272.89187,0.95603
272.65080,0.96025
272.40973,0.96482
272.16866,0.96643
271.92759,0.96482
271.68652,0.96312
271.44545,0.96412
271.20438,0.96821
270.96331,0.97426
270.72224,0.98075
270.48116,0.98587
270.24009,0.98895
269.99902,0.99161
269.75795,0.99467
269.51688,0.99658
269.27581,0.99650
269.03474,0.99622
268.79367,0.99805
268.55260,1.00069
268.31153,0.99992
268.07046,0.99615
267.82939,0.99576
267.58832,1.00186
267.34725,1.00934
267.10618,1.01164
266.86511,1.00941
266.62404,1.00802
266.38297,1.00991
266.14189,1.01502
265.90082,1.02454
265.65975,1.03767
265.41868,1.04898
265.17761,1.05484
264.93654,1.05793
264.69547,1.06211
264.45440,1.06707
264.21333,1.07289
263.97226,1.08459
263.73119,1.10494
263.49012,1.12688
263.24905,1.13980
263.00798,1.14095
262.76691,1.13606
262.52584,1.13350
262.28477,1.14045
262.04370,1.15911
261.80262,1.18530
261.56155,1.21390
261.32048,1.24456
261.07941,1.27571
260.83834,1.29644
260.59727,1.29736
260.35620,1.28713
260.11513,1.28244
259.87406,1.29052
259.63299,1.30869
259.39192,1.33330
259.15085,1.36323
258.90978,1.39472
258.66871,1.42184
258.42764,1.44530
258.18657,1.46517
257.94550,1.47874
257.70443,1.49518
257.46335,1.52960
257.22228,1.58366
256.98121,1.63838
256.74014,1.66913
256.49907,1.66806
256.25800,1.65428
256.01693,1.65564
255.77586,1.67319
255.53479,1.69732
255.29372,1.74541
255.05265,1.83539
254.81158,1.95045
254.57051,2.03152
254.32944,2.03884
254.08837,2.00898
253.84730,1.98148
253.60623,2.00226
253.36516,2.05611
253.12408,2.07747
252.88301,2.08393
252.64194,2.07595
252.40087,2.07381
252.15980,2.12034
251.91873,2.26808
251.67766,2.52888
251.43659,2.53554
251.19552,2.34817
250.95445,2.35397
250.71338,2.61226
250.47231,2.54966
250.23124,2.22251
249.99017,2.10047
249.74910,2.18438
249.50803,2.44161
249.26696,2.60592
249.02589,2.48864
248.78481,2.32991
248.54374,2.24639
248.30267,2.20376
248.06160,2.18967
247.82053,2.25915
247.57946,2.36725
247.33839,2.42476
247.09732,2.46289
246.85625,2.35796
246.61518,2.22615
246.37411,2.13551
246.13304,2.07141
245.89197,2.06559
245.65090,2.06810
245.40983,2.03397
245.16876,1.99011
244.92769,1.95782
244.68661,1.93920
244.44554,1.90344
244.20447,1.81871
243.96340,1.70480
243.72233,1.59949
243.48126,1.52886
243.24019,1.48853
242.99912,1.45612
242.75805,1.41555
242.51698,1.36626
242.27591,1.31643
242.03484,1.27412
241.79377,1.24403
241.55270,1.22260
241.31163,1.19600
241.07056,1.15241
240.82949,1.09621
240.58842,1.04343
240.34734,1.00453
240.10627,0.97685
239.86520,0.95236
239.62413,0.92868
239.38306,0.90960
239.14199,0.89604
238.90092,0.88204
238.65985,0.86148
238.41878,0.83576
238.17771,0.81241
237.93664,0.79684
237.69557,0.78773
237.45450,0.78054
237.21343,0.77311
236.97236,0.76529
236.73129,0.75613
236.49022,0.74544
236.24915,0.73567
236.00807,0.72922
235.76700,0.72497
235.52593,0.71995
235.28486,0.71344
235.04379,0.70622
234.80272,0.69769
234.56165,0.68767
234.32058,0.67950
234.07951,0.67707
233.83844,0.67975
233.59737,0.68258
233.35630,0.68149
233.11523,0.67644
232.87416,0.67011
232.63309,0.66513
232.39202,0.66231
232.15095,0.66116
231.90988,0.66154
231.66880,0.66384
231.42773,0.66711
231.18666,0.66845
230.94559,0.66589
230.70452,0.66102
230.46345,0.65725
230.22238,0.65618
229.98131,0.65718
229.74024,0.65936
229.49917,0.66143
229.25810,0.66047
229.01703,0.65455
228.77596,0.64650
228.53489,0.64144
228.29382,0.64066
228.05275,0.64104
227.81168,0.63982
227.57061,0.63760
227.32953,0.63650
227.08846,0.63731
226.84739,0.63899
226.60632,0.64037
226.36525,0.64191
226.12418,0.64468
225.88311,0.64792
225.64204,0.64989
225.40097,0.65070
225.15990,0.65236
224.91883,0.65568
224.67776,0.65892
224.43669,0.66106
224.19562,0.66303
223.95455,0.66459
223.71348,0.66396
223.47241,0.66103
223.23134,0.65848
222.99026,0.65985
222.74919,0.66685
222.50812,0.67794
222.26705,0.68903
222.02598,0.69641
221.78491,0.69942
221.54384,0.70037
221.30277,0.70227
221.06170,0.70669
220.82063,0.71368
220.57956,0.72310
220.33849,0.73505
220.09742,0.74908
219.85635,0.76404
219.61528,0.77835
219.37421,0.79019
219.13314,0.79912
218.89207,0.80709
218.65099,0.81508
218.40992,0.82150
218.16885,0.82612
217.92778,0.83157
217.68671,0.83895
217.44564,0.84661
217.20457,0.85380
216.96350,0.86250
216.72243,0.87526
216.48136,0.89269
216.24029,0.91221
215.99922,0.92934
215.75815,0.94120
215.51708,0.94853
215.27601,0.95449
215.03494,0.96335
214.79387,0.97712
214.55280,0.99128
214.31172,0.99849
214.07065,0.99826
213.82958,0.99800
213.58851,1.00472
213.34744,1.02044
213.10637,1.04291
212.86530,1.06640
212.62423,1.08488
212.38316,1.09627
212.14209,1.10094
211.90102,1.09965
211.65995,1.09526
211.41888,1.09288
211.17781,1.09495
210.93674,1.09700
210.69567,1.09246
210.45460,1.08155
210.21353,1.07210
209.97245,1.07065
209.73138,1.07615
209.49031,1.08320
209.24924,1.08655
209.00817,1.08154
208.76710,1.06851
208.52603,1.05727
208.28496,1.05724
208.04389,1.06417
207.80282,1.06470
207.56175,1.05311
207.32068,1.03594
207.07961,1.02121
206.83854,1.01094
206.59747,1.00402
206.35640,0.99940
206.11533,0.99603
205.87426,0.99290
205.63318,0.98866
205.39211,0.98131
205.15104,0.96915
204.90997,0.95365
204.66890,0.94006
204.42783,0.93224
204.18676,0.92813
203.94569,0.92115
203.70462,0.90633
203.46355,0.88630
203.22248,0.86905
202.98141,0.85860
202.74034,0.85080
202.49927,0.84024
202.25820,0.82786
202.01713,0.81687
201.77606,0.80635
201.53499,0.79352
201.29391,0.77837
201.05284,0.76228
200.81177,0.74571
200.57070,0.73020
200.32963,0.71871
200.08856,0.71173
199.84749,0.70624
199.60642,0.69959
199.36535,0.69194
199.12428,0.68404
198.88321,0.67513
198.64214,0.66423
198.40107,0.65225
198.16000,0.64164
197.91893,0.63341
197.67786,0.62564
197.43679,0.61691
197.19572,0.60909
196.95464,0.60394
196.71357,0.59941
196.47250,0.59243
196.23143,0.58318
195.99036,0.57387
195.74929,0.56538
195.50822,0.55748
195.26715,0.55076
195.02608,0.54584
194.78501,0.54180
194.54394,0.53710
194.30287,0.53189
194.06180,0.52735
193.82073,0.52314
193.57966,0.51793
193.33859,0.51194
193.09752,0.50656
192.85645,0.50170
192.61537,0.49617
192.37430,0.49035
192.13323,0.48639
191.89216,0.48570
191.65109,0.48726
191.41002,0.48855
191.16895,0.48712
190.92788,0.48203
190.68681,0.47519
190.44574,0.47049
190.20467,0.46996
189.96360,0.47151
189.72253,0.47158
189.48146,0.46892
189.24039,0.46489
188.99932,0.46106
188.75825,0.45806
188.51718,0.45601
188.27610,0.45459
188.03503,0.45324
187.79396,0.45219
187.55289,0.45262
187.31182,0.45485
187.07075,0.45694
186.82968,0.45705
186.58861,0.45620
186.34754,0.45639
186.10647,0.45701
185.86540,0.45549
185.62433,0.45134
185.38326,0.44740
185.14219,0.44702
184.90112,0.45105
184.66005,0.45730
184.41898,0.46284
184.17791,0.46664
183.93683,0.46964
183.69576,0.47258
183.45469,0.47466
183.21362,0.47450
182.97255,0.47226
182.73148,0.47006
182.49041,0.46972
182.24934,0.47056
182.00827,0.47064
181.76720,0.46992
181.52613,0.47028
181.28506,0.47287
181.04399,0.47710
180.80292,0.48180
180.56185,0.48645
180.32078,0.49111
180.07971,0.49529
179.83864,0.49805
179.59756,0.49986
179.35649,0.50313
179.11542,0.50939
178.87435,0.51704
178.63328,0.52305
178.39221,0.52635
178.15114,0.52912
177.91007,0.53471
177.66900,0.54409
177.42793,0.55537
177.18686,0.56741
176.94579,0.58146
176.70472,0.59782
176.46365,0.61404
176.22258,0.62845
175.98151,0.64232
175.74044,0.65735
175.49937,0.67371
175.25829,0.69096
175.01722,0.70894
174.77615,0.72770
174.53508,0.74726
174.29401,0.76710
174.05294,0.78690
173.81187,0.80785
173.57080,0.83024
173.32973,0.85019
173.08866,0.86197
172.84759,0.86495
172.60652,0.86579
172.36545,0.87155
172.12438,0.88205
171.88331,0.88990
171.64224,0.88919
171.40117,0.88231
171.16010,0.87559
170.91902,0.87175
170.67795,0.86913
170.43688,0.86542
170.19581,0.86020
169.95474,0.85369
169.71367,0.84489
169.47260,0.83324
169.23153,0.82144
168.99046,0.81382
168.74939,0.81149
168.50832,0.81125
168.26725,0.80953
168.02618,0.80628
167.78511,0.80500
167.54404,0.80829
167.30297,0.81411
167.06190,0.81850
166.82083,0.82103
166.57975,0.82379
166.33868,0.82646
166.09761,0.82786
165.85654,0.82990
165.61547,0.83491
165.37440,0.84131
165.13333,0.84618
164.89226,0.85005
164.65119,0.85548
164.41012,0.86364
164.16905,0.87425
163.92798,0.88668
163.68691,0.90017
163.44584,0.91360
163.20477,0.92541
162.96370,0.93398
162.72263,0.93966
162.48156,0.94645
162.24048,0.95833
161.99941,0.97189
161.75834,0.97643
161.51727,0.96798
161.27620,0.95571
161.03513,0.94855
160.79406,0.94680
160.55299,0.94831
160.31192,0.95269
160.07085,0.95597
159.82978,0.95163
159.58871,0.94124
159.34764,0.93390
159.10657,0.93323
158.86550,0.93373
158.62443,0.93056
158.38336,0.92593
158.14229,0.92342
157.90121,0.92129
157.66014,0.91533
157.41907,0.90477
157.17800,0.89154
156.93693,0.87746
156.69586,0.86579
156.45479,0.86121
156.21372,0.86358
155.97265,0.86549
155.73158,0.86142
155.49051,0.85529
155.24944,0.85290
155.00837,0.85145
154.76730,0.84391
154.52623,0.83067
154.28516,0.81837
154.04409,0.80957
153.80302,0.80058
153.56194,0.78716
153.32087,0.76945
153.07980,0.75119
152.83873,0.73491
152.59766,0.71929
152.35659,0.70161
152.11552,0.68175
151.87445,0.66292
151.63338,0.64827
151.39231,0.63741
151.15124,0.62644
150.91017,0.61231
150.66910,0.59614
150.42803,0.58077
150.18696,0.56658
149.94589,0.55212
149.70482,0.53740
149.46375,0.52434
149.22267,0.51461
148.98160,0.50797
148.74053,0.50268
148.49946,0.49759
148.25839,0.49326
148.01732,0.49043
147.77625,0.48827
147.53518,0.48486
147.29411,0.47938
147.05304,0.47332
146.81197,0.46958
146.57090,0.46984
146.32983,0.47299
146.08876,0.47700
145.84769,0.48161
145.60662,0.48753
145.36555,0.49447
145.12448,0.50134
144.88340,0.50750
144.64233,0.51275
144.40126,0.51700
144.16019,0.52033
143.91912,0.52290
143.67805,0.52459
143.43698,0.52454
143.19591,0.52120
142.95484,0.51357
142.71377,0.50289
142.47270,0.49224
142.23163,0.48407
141.99056,0.47829
141.74949,0.47284
141.50842,0.46596
141.26735,0.45764
141.02628,0.44934
140.78521,0.44280
140.54413,0.43928
140.30306,0.43952
140.06199,0.44348
139.82092,0.44989
139.57985,0.45619
139.33878,0.46001
139.09771,0.46135
138.85664,0.46248
138.61557,0.46548
138.37450,0.47066
138.13343,0.47782
137.89236,0.48722
137.65129,0.49846
137.41022,0.51072
137.16915,0.52492
136.92808,0.54333
136.68701,0.56569
136.44594,0.58851
136.20486,0.60970
135.96379,0.63032
135.72272,0.65143
135.48165,0.67352
135.24058,0.69866
134.99951,0.72876
134.75844,0.76220
134.51737,0.79486
134.27630,0.82327
134.03523,0.84463
133.79416,0.85741
133.55309,0.86539
133.31202,0.87696
133.07095,0.89648
132.82988,0.92016
132.58881,0.94007
132.34774,0.95157
132.10667,0.95674
131.86559,0.95813
131.62452,0.95288
131.38345,0.93823
131.14238,0.91965
130.90131,0.90499
130.66024,0.89372
130.41917,0.87809
130.17810,0.85230
129.93703,0.81721
129.69596,0.77892
129.45489,0.74396
129.21382,0.71477
128.97275,0.68996
128.73168,0.66728
128.49061,0.64519
128.24954,0.62222
128.00847,0.59777
127.76740,0.57308
127.52632,0.54963
127.28525,0.52774
127.04418,0.50733
126.80311,0.48888
126.56204,0.47294
126.32097,0.45927
126.07990,0.44636
125.83883,0.43226
125.59776,0.41699
125.35669,0.40329
125.11562,0.39320
124.87455,0.38541
124.63348,0.37725
124.39241,0.36806
124.15134,0.35957
123.91027,0.35373
123.66920,0.35062
123.42812,0.34829
123.18705,0.34496
122.94598,0.34097
122.70491,0.33792
122.46384,0.33708
122.22277,0.33895
121.98170,0.34285
121.74063,0.34651
121.49956,0.34821
121.25849,0.34943
121.01742,0.35362
120.77635,0.36201
120.53528,0.37256
120.29421,0.38336
120.05314,0.39485
119.81207,0.40803
119.57100,0.42288
119.32993,0.43952
119.08885,0.45855
118.84778,0.47951
118.60671,0.50116
118.36564,0.52366
118.12457,0.54833
117.88350,0.57468
117.64243,0.59851
117.40136,0.61421
117.16029,0.62015
116.91922,0.62120
116.67815,0.62364
116.43708,0.62751
116.19601,0.62684
115.95494,0.61807
115.71387,0.60440
115.47280,0.59044
115.23173,0.57748
114.99066,0.56575
114.74958,0.55694
114.50851,0.55174
114.26744,0.54729
114.02637,0.54025
113.78530,0.53200
113.54423,0.52733
113.30316,0.52769
113.06209,0.52905
112.82102,0.52861
112.57995,0.52975
112.33888,0.53645
112.09781,0.54745
111.85674,0.55922
111.61567,0.57071
111.37460,0.58165
111.13353,0.58950
110.89246,0.59136
110.65139,0.58754
110.41031,0.58195
110.16924,0.57848
109.92817,0.57604
109.68710,0.56893
109.44603,0.55433
109.20496,0.53609
108.96389,0.51926
108.72282,0.50449
108.48175,0.49009
108.24068,0.47509
107.99961,0.45883
107.75854,0.44136
107.51747,0.42381
107.27640,0.40717
107.03533,0.39173
106.79426,0.37747
106.55319,0.36393
106.31212,0.35026
106.07104,0.33615
105.82997,0.32276
105.58890,0.31201
105.34783,0.30451
105.10676,0.29857
104.86569,0.29188
104.62462,0.28376
104.38355,0.27538
104.14248,0.26830
103.90141,0.26305
103.66034,0.25848
103.41927,0.25288
103.17820,0.24633
102.93713,0.24084
102.69606,0.23755
102.45499,0.23479
102.21392,0.23034
101.97285,0.22428
101.73177,0.21847
101.49070,0.21458
101.24963,0.21284
101.00856,0.21156
100.76749,0.20891
100.52642,0.20556
100.28535,0.20381
100.04428,0.20354
99.80321,0.20206
99.56214,0.19799
99.32107,0.19289
99.08000,0.18866
98.83893,0.18554
98.59786,0.18345
98.35679,0.18342
98.11572,0.18617
97.87465,0.19003
97.63358,0.19196
97.39250,0.19117
97.15143,0.19014
96.91036,0.19194
96.66929,0.19762
96.42822,0.20585
96.18715,0.21440
95.94608,0.22239
95.70501,0.23103
95.46394,0.24140
95.22287,0.25193
94.98180,0.25924
94.74073,0.26168
94.49966,0.26104
94.25859,0.26019
94.01752,0.26016
93.77645,0.26053
93.53538,0.26155
93.29431,0.26405
93.05323,0.26758
92.81216,0.27000
92.57109,0.26951
92.33002,0.26654
92.08895,0.26375
91.84788,0.26401
91.60681,0.26856
91.36574,0.27750
91.12467,0.29105
90.88360,0.30908
90.64253,0.33068
90.40146,0.35617
90.16039,0.38762
89.91932,0.42566
89.67825,0.46770
89.43718,0.51041
89.19611,0.54996
88.95504,0.57920
88.71396,0.59029
88.47289,0.58220
88.23182,0.56016
87.99075,0.52994
87.74968,0.49562
87.50861,0.46006
87.26754,0.42518
87.02647,0.39155
86.78540,0.35917
86.54433,0.32887
86.30326,0.30187
86.06219,0.27824
85.82112,0.25728
85.58005,0.23906
85.33898,0.22425
85.09791,0.21242
84.85684,0.20168
84.61577,0.19087
84.37469,0.18137
84.13362,0.17510
83.89255,0.17132
83.65148,0.16733
83.41041,0.16157
83.16934,0.15451
82.92827,0.14740
82.68720,0.14171
82.44613,0.13816
82.20506,0.13565
81.96399,0.13252
81.72292,0.12917
81.48185,0.12722
81.24078,0.12698
80.99971,0.12749
80.75864,0.12827
80.51757,0.12928
80.27650,0.12957
80.03542,0.12767
79.79435,0.12350
79.55328,0.11896
79.31221,0.11582
79.07114,0.11401
78.83007,0.11251
78.58900,0.11092
78.34793,0.10929
78.10686,0.10732
77.86579,0.10497
77.62472,0.10298
77.38365,0.10197
77.14258,0.10179
76.90151,0.10211
76.66044,0.10299
76.41937,0.10400
76.17830,0.10367
75.93723,0.10083
75.69615,0.09650
75.45508,0.09318
75.21401,0.09231
74.97294,0.09356
74.73187,0.09606
74.49080,0.09876
74.24973,0.10024
74.00866,0.09952
73.76759,0.09683
73.52652,0.09329
73.28545,0.09090
73.04438,0.09165
72.80331,0.09541
72.56224,0.09973
72.32117,0.10219
72.08010,0.10211
71.83903,0.10069
71.59796,0.10008
71.35688,0.10136
71.11581,0.10372
70.87474,0.10652
70.63367,0.11110
70.39260,0.11910
70.15153,0.13012
69.91046,0.14222
69.66939,0.15384
69.42832,0.16447
69.18725,0.17371
68.94618,0.18019
68.70511,0.18150
68.46404,0.17573
68.22297,0.16346
67.98190,0.14785
67.74083,0.13268
67.49976,0.12056
67.25869,0.11232
67.01761,0.10711
66.77654,0.10261
66.53547,0.09691
66.29440,0.09093
66.05333,0.08700
65.81226,0.08522
65.57119,0.08386
65.33012,0.08256
65.08905,0.08271
64.84798,0.08520
64.60691,0.08963
64.36584,0.09493
64.12477,0.09964
63.88370,0.10289
63.64263,0.10537
63.40156,0.10758
63.16049,0.10803
62.91942,0.10535
62.67834,0.10070
62.43727,0.09559
62.19620,0.08949
61.95513,0.08187
61.71406,0.07428
61.47299,0.06852
61.23192,0.06514
60.99085,0.06383
60.74978,0.06348
60.50871,0.06245
60.26764,0.06047
60.02657,0.05912
59.78550,0.05981
59.54443,0.06227
59.30336,0.06467
59.06229,0.06454
58.82122,0.06124
58.58015,0.05786
58.33907,0.05862
58.09800,0.06414
57.85693,0.07017
57.61586,0.07166
57.37479,0.06809
57.13372,0.06388
56.89265,0.06274
56.65158,0.06308
56.41051,0.06123
56.16944,0.05715
55.92837,0.05409
55.68730,0.05398
55.44623,0.05542
55.20516,0.05671
54.96409,0.05823
54.72302,0.06023
54.48195,0.06106
54.24088,0.06014
53.99980,0.05922
53.75873,0.05851
53.51766,0.05545
53.27659,0.04896
53.03552,0.04188
52.79445,0.03830
52.55338,0.04001
52.31231,0.04527
52.07124,0.05112
51.83017,0.05655
51.58910,0.06113
51.34803,0.06207
51.10696,0.05761
50.86589,0.05056
50.62482,0.04464
50.38375,0.04025
50.14268,0.03601
49.90161,0.03185
49.66053,0.02934
49.41946,0.02975
49.17839,0.03211
48.93732,0.03392
48.69625,0.03371
48.45518,0.03216
48.21411,0.03111
47.97304,0.03155
47.73197,0.03243
47.49090,0.03193
47.24983,0.03081
47.00876,0.03181
46.76769,0.03411
46.52662,0.03282
46.28555,0.02429
46.04448,0.00973
45.80341,-0.00460
45.56234,-0.01220
45.32126,-0.01185
45.08019,-0.00717
44.83912,-0.00230
44.59805,-0.00024
44.35698,-0.00174
44.11591,-0.00454
43.87484,-0.00682
43.63377,-0.01034
43.39270,-0.01723
43.15163,-0.02547
42.91056,-0.02885
42.66949,-0.02177
42.42842,-0.00627
42.18735,0.00724
41.94628,0.00929
41.70521,-0.00026
41.46414,-0.01469
41.22307,-0.02836
40.98199,-0.03990
40.74092,-0.04835
40.49985,-0.04862
40.25878,-0.03528
40.01771,-0.01107
39.77664,0.01165
39.53557,0.02008
39.29450,0.01477
39.05343,0.00880
38.81236,0.00886
38.57129,0.00971
38.33022,0.00654
38.08915,0.00156
37.84808,-0.00129
37.60701,-0.00276
37.36594,-0.00462
37.12487,-0.00598
36.88380,-0.00564
36.64272,-0.00227
36.40165,0.00155
36.16058,-0.00193
35.91951,-0.01368
35.67844,-0.01880
35.43737,-0.00363
35.19630,0.02254
34.95523,0.03814
34.71416,0.03214
34.47309,0.01154
34.23202,-0.01023
33.99095,-0.02847
33.74988,-0.04297
33.50881,-0.05004
33.26774,-0.03959
33.02667,0.00042
32.78560,0.06146
32.54453,0.10934
32.30345,0.11720
32.06238,0.08999
31.82131,0.05622
31.58024,0.03757
31.33917,0.02779
31.09810,0.01279
30.85703,-0.00273
30.61596,-0.00495
30.37489,0.00264
30.13382,0.00012
29.89275,-0.01605
29.65168,-0.02134
29.41061,0.00588
29.16954,0.05615
28.92847,0.10090
28.68740,0.12685
28.44633,0.13818
28.20526,0.12941
27.96418,0.10172
27.72311,0.08868
27.48204,0.10119
27.24097,0.11393
26.99990,0.10628
26.75883,0.07725
26.51776,0.03921
26.27669,0.01081
26.03562,-0.00325
25.79455,-0.02061
25.55348,-0.04584
25.31241,-0.06641
25.07134,-0.07693
24.83027,-0.05887
24.58920,-0.02029
24.34813,0.05981
24.10706,0.12893
23.86599,0.16720
23.62491,0.19476
23.38384,0.21999
23.14277,0.21917
22.90170,0.24804
22.66063,0.34349
22.41956,0.43655
22.17849,0.48455
21.93742,0.45975
21.69635,0.38561
21.45528,0.31779
21.21421,0.27817
20.97314,0.30842
20.73207,0.41457
20.49100,0.51862
20.24993,0.60236
20.00886,0.64686
19.76779,0.61936
19.52672,0.55522
19.28564,0.53024
19.04457,0.53202
18.80350,0.49431
18.56243,0.41954
18.32136,0.35328
18.08029,0.33517
17.83922,0.36746
17.59815,0.44601
17.35708,0.56240
17.11601,0.70392
16.87494,0.86466
16.63387,1.00481
16.39280,0.95964
16.15173,0.76377
15.91066,0.63861
15.66959,0.60518
15.42852,0.60632
15.18745,0.63027
14.94637,0.65359
14.70530,0.62744
14.46423,0.57869
14.22316,0.53572
13.98209,0.57439
13.74102,0.76948
13.49995,0.85893
13.25888,0.71515
13.01781,0.45601
12.77674,0.33290
12.53567,0.36522
12.29460,0.47523
12.05353,0.52702
11.81246,0.57947
11.57139,0.67985
11.33032,0.73644
11.08925,0.65923
10.84818,0.57246
10.60710,0.60155
10.36603,0.75195
10.12496,1.06170
9.88389,1.16714
9.64282,0.91031
9.40175,0.90194
9.16068,1.04650
8.91961,0.98502
8.67854,0.94807
8.43747,1.04287
8.19640,0.93723
7.95533,0.84495
7.71426,0.77368
7.47319,0.70342
7.23212,0.70927
6.99105,0.73487
6.74998,0.64485
6.50891,0.58552
6.26783,0.71343
6.02676,0.87805
5.78569,0.92720
5.54462,0.92346
5.30355,0.81048
5.06248,0.69624
4.82141,0.63178
4.58034,0.62395
4.33927,0.72727
4.09820,0.88708
3.85713,0.80563
3.61606,0.65676
3.37499,0.58001
3.13392,0.56371
2.89285,0.56724
2.65178,0.56021
2.41071,0.59110
2.16964,0.65925
1.92856,0.69766
1.68749,0.71187
1.44642,0.75066
1.20535,0.78117
0.96428,0.71281
0.72321,0.58247
0.48214,0.39227
0.24107,0.35180
-0.00000,0.50913
