399.69498,1.57327
399.45391,1.59106
399.21284,1.60126
398.97177,1.59909
398.73070,1.59790
398.48963,1.60521
398.24856,1.62166
398.00749,1.65227
397.76642,1.69129
397.52535,1.71641
397.28428,1.71915
397.04321,1.71393
396.80214,1.71528
396.56107,1.72362
396.32000,1.72577
396.07892,1.70723
395.83785,1.67078
395.59678,1.63269
395.35571,1.61440
395.11464,1.63450
394.87357,1.67816
394.63250,1.70117
394.39143,1.69548
394.15036,1.68758
393.90929,1.70624
393.66822,1.76960
393.42715,1.85904
393.18608,1.91091
392.94501,1.88545
392.70394,1.85368
392.46287,1.84552
392.22180,1.80996
391.98073,1.74645
391.73965,1.72191
391.49858,1.76894
391.25751,1.84716
391.01644,1.86783
390.77537,1.83008
390.53430,1.80480
390.29323,1.82048
390.05216,1.85193
389.81109,1.85927
389.57002,1.87472
389.32895,1.97190
389.08788,2.16494
388.84681,2.31735
388.60574,2.23249
388.36467,2.02885
388.12360,1.91868
387.88253,1.93553
387.64146,2.01679
387.40038,2.05723
387.15931,2.13515
386.91824,2.27128
386.67717,2.16421
386.43610,1.95088
386.19503,1.82072
385.95396,1.77649
385.71289,1.79711
385.47182,1.79247
385.23075,1.73920
384.98968,1.71227
384.74861,1.75315
384.50754,1.82987
384.26647,1.84939
384.02540,1.90941
383.78433,1.91353
383.54326,1.85352
383.30219,1.83615
383.06111,1.85408
382.82004,1.90965
382.57897,2.01685
382.33790,2.06486
382.09683,2.03309
381.85576,2.07230
381.61469,2.05853
381.37362,1.96415
381.13255,1.93405
380.89148,1.99945
380.65041,1.95539
380.40934,1.80574
380.16827,1.74559
379.92720,1.87033
379.68613,2.13693
379.44506,1.94580
379.20399,1.73542
378.96292,1.63698
378.72184,1.61702
378.48077,1.62362
378.23970,1.64708
377.99863,1.75584
377.75756,1.96854
377.51649,2.04420
377.27542,2.20817
377.03435,2.21262
376.79328,1.97765
376.55221,1.86313
376.31114,1.89900
376.07007,2.06545
375.82900,2.15701
375.58793,2.06299
375.34686,2.05326
375.10579,2.11920
374.86472,2.06921
374.62365,1.97957
374.38257,1.91092
374.14150,1.83486
373.90043,1.81021
373.65936,1.87321
373.41829,1.96518
373.17722,1.97765
372.93615,1.86187
372.69508,1.77202
372.45401,1.73665
372.21294,1.72278
371.97187,1.69390
371.73080,1.65149
371.48973,1.62277
371.24866,1.62591
371.00759,1.64632
370.76652,1.63797
370.52545,1.57808
370.28437,1.50531
370.04330,1.46660
369.80223,1.46582
369.56116,1.47231
369.32009,1.46666
369.07902,1.45773
368.83795,1.44854
368.59688,1.42414
368.35581,1.38182
368.11474,1.34072
367.87367,1.31585
367.63260,1.30653
367.39153,1.30762
367.15046,1.31684
366.90939,1.33229
366.66832,1.34843
366.42725,1.35518
366.18618,1.34496
365.94510,1.32321
365.70403,1.30298
365.46296,1.29072
365.22189,1.28419
364.98082,1.28458
364.73975,1.29410
364.49868,1.30312
364.25761,1.30101
364.01654,1.28881
363.77547,1.27297
363.53440,1.25563
363.29333,1.23883
363.05226,1.22728
362.81119,1.22201
362.57012,1.21970
362.32905,1.21756
362.08798,1.21688
361.84691,1.22228
361.60583,1.23633
361.36476,1.25480
361.12369,1.26644
360.88262,1.26017
360.64155,1.23661
360.40048,1.20998
360.15941,1.20051
359.91834,1.21360
359.67727,1.22842
359.43620,1.22338
359.19513,1.20670
358.95406,1.20178
358.71299,1.21806
358.47192,1.24396
358.23085,1.25637
357.98978,1.24391
357.74871,1.22310
357.50764,1.21730
357.26656,1.22954
357.02549,1.24346
356.78442,1.24686
356.54335,1.24789
356.30228,1.26133
356.06121,1.28316
355.82014,1.29104
355.57907,1.27658
355.33800,1.25690
355.09693,1.24764
354.85586,1.24917
354.61479,1.25754
354.37372,1.26798
354.13265,1.27092
353.89158,1.26005
353.65051,1.23900
353.40944,1.21710
353.16837,1.20362
352.92729,1.20308
352.68622,1.21620
352.44515,1.23830
352.20408,1.25403
351.96301,1.25171
351.72194,1.24284
351.48087,1.24393
351.23980,1.25262
350.99873,1.25797
350.75766,1.25751
350.51659,1.25371
350.27552,1.24992
350.03445,1.25111
349.79338,1.25809
349.55231,1.26458
349.31124,1.26816
349.07017,1.27845
348.82910,1.30228
348.58802,1.32618
348.34695,1.32936
348.10588,1.31118
347.86481,1.29190
347.62374,1.28629
347.38267,1.28877
347.14160,1.29062
346.90053,1.29227
346.65946,1.29285
346.41839,1.28773
346.17732,1.27982
345.93625,1.27984
345.69518,1.29526
345.45411,1.32202
345.21304,1.34156
344.97197,1.33430
344.73090,1.30991
344.48983,1.29775
344.24875,1.30920
344.00768,1.33170
343.76661,1.34944
343.52554,1.35977
343.28447,1.35941
343.04340,1.35288
342.80233,1.36482
342.56126,1.40544
342.32019,1.46043
342.07912,1.50960
341.83805,1.54781
341.59698,1.58460
341.35591,1.61397
341.11484,1.60989
340.87377,1.57457
340.63270,1.54216
340.39163,1.53741
340.15056,1.55112
339.90948,1.55708
339.66841,1.55814
339.42734,1.57781
339.18627,1.60837
338.94520,1.61477
338.70413,1.59955
338.46306,1.60206
338.22199,1.63755
337.98092,1.68072
337.73985,1.69986
337.49878,1.70398
337.25771,1.73698
337.01664,1.83106
336.77557,1.96904
336.53450,2.06521
336.29343,2.06798
336.05236,2.03050
335.81129,2.00097
335.57021,2.00338
335.32914,2.02420
335.08807,2.04407
334.84700,2.05217
334.60593,2.00159
334.36486,1.87311
334.12379,1.75628
333.88272,1.71380
333.64165,1.72822
333.40058,1.74932
333.15951,1.75138
332.91844,1.73584
332.67737,1.72120
332.43630,1.71823
332.19523,1.70293
331.95416,1.66021
331.71309,1.61627
331.47202,1.60099
331.23094,1.60482
330.98987,1.60076
330.74880,1.58942
330.50773,1.57780
330.26666,1.56030
330.02559,1.53091
329.78452,1.50287
329.54345,1.49212
329.30238,1.49777
329.06131,1.52381
328.82024,1.57264
328.57917,1.60984
328.33810,1.57828
328.09703,1.48997
327.85596,1.42287
327.61489,1.42152
327.37382,1.47926
327.13275,1.55248
326.89167,1.57999
326.65060,1.55412
326.40953,1.50694
326.16846,1.47301
325.92739,1.47639
325.68632,1.51848
325.44525,1.58416
325.20418,1.64456
324.96311,1.68216
324.72204,1.69545
324.48097,1.68342
324.23990,1.67050
323.99883,1.67380
323.75776,1.66168
323.51669,1.60206
323.27562,1.53849
323.03455,1.51177
322.79348,1.55097
322.55240,1.66033
322.31133,1.77983
322.07026,1.80932
321.82919,1.76057
321.58812,1.71406
321.34705,1.72861
321.10598,1.83168
320.86491,1.98943
320.62384,2.07331
320.38277,2.01987
320.14170,1.89590
319.90063,1.79150
319.65956,1.75614
319.41849,1.75487
319.17742,1.73572
318.93635,1.71029
318.69528,1.69333
318.45421,1.68204
318.21313,1.69018
317.97206,1.74539
317.73099,1.85203
317.48992,1.95342
317.24885,1.99993
317.00778,1.99427
316.76671,1.92297
316.52564,1.86420
316.28457,1.82075
316.04350,1.75735
315.80243,1.70566
315.56136,1.72357
315.32029,1.84310
315.07922,2.06933
314.83815,2.28524
314.59708,2.29773
314.35601,2.15973
314.11494,1.96841
313.87386,1.86569
313.63279,1.87667
313.39172,1.95610
313.15065,1.96945
312.90958,1.88747
312.66851,1.83422
312.42744,1.85028
312.18637,1.87657
311.94530,1.83858
311.70423,1.84308
311.46316,1.96030
311.22209,2.02863
310.98102,1.95038
310.73995,1.98781
310.49888,2.14876
310.25781,2.23565
310.01674,2.16584
309.77567,2.30038
309.53459,2.38097
309.29352,2.44245
309.05245,2.31192
308.81138,2.12194
308.57031,2.01615
308.32924,1.99606
308.08817,1.98605
307.84710,1.96133
307.60603,1.91602
307.36496,1.85899
307.12389,1.82813
306.88282,1.79444
306.64175,1.73812
306.40068,1.69096
306.15961,1.67397
305.91854,1.67397
305.67747,1.65802
305.43640,1.61251
305.19532,1.55043
304.95425,1.49448
304.71318,1.45926
304.47211,1.44556
304.23104,1.44365
303.98997,1.43773
303.74890,1.42078
303.50783,1.40306
303.26676,1.39556
303.02569,1.39647
302.78462,1.39888
302.54355,1.40208
302.30248,1.40296
302.06141,1.38635
301.82034,1.34578
301.57927,1.29514
301.33820,1.25371
301.09713,1.23441
300.85605,1.23327
300.61498,1.23140
300.37391,1.22026
300.13284,1.21126
299.89177,1.21186
299.65070,1.21589
299.40963,1.21624
299.16856,1.21073
298.92749,1.20051
298.68642,1.19077
298.44535,1.18821
298.20428,1.19025
297.96321,1.18346
297.72214,1.16325
297.48107,1.14193
297.24000,1.13198
296.99893,1.13384
296.75786,1.13802
296.51678,1.13312
296.27571,1.11380
296.03464,1.08526
295.79357,1.06069
295.55250,1.05129
295.31143,1.05735
295.07036,1.06842
294.82929,1.07264
294.58822,1.06816
294.34715,1.06108
294.10608,1.05566
293.86501,1.05338
293.62394,1.05373
293.38287,1.05292
293.14180,1.04696
292.90073,1.03696
292.65966,1.02811
292.41859,1.02363
292.17751,1.02144
291.93644,1.01747
291.69537,1.01109
291.45430,1.00595
291.21323,1.00616
290.97216,1.01189
290.73109,1.01690
290.49002,1.01501
290.24895,1.00826
290.00788,1.00207
289.76681,0.99823
289.52574,0.99552
289.28467,0.99240
289.04360,0.98798
288.80253,0.98306
288.56146,0.97956
288.32039,0.97793
288.07932,0.97767
287.83824,0.97907
287.59717,0.98169
287.35610,0.98292
287.11503,0.98056
286.87396,0.97556
286.63289,0.96992
286.39182,0.96326
286.15075,0.95440
285.90968,0.94568
285.66861,0.94216
285.42754,0.94602
285.18647,0.95357
284.94540,0.95829
284.70433,0.95703
284.46326,0.95328
284.22219,0.95275
283.98112,0.95642
283.74005,0.95937
283.49897,0.95769
283.25790,0.95352
283.01683,0.95085
282.77576,0.95046
282.53469,0.95080
282.29362,0.95074
282.05255,0.94945
281.81148,0.94608
281.57041,0.94126
281.32934,0.93820
281.08827,0.93981
280.84720,0.94412
280.60613,0.94607
280.36506,0.94435
280.12399,0.94286
279.88292,0.94455
279.64185,0.94691
279.40078,0.94505
279.15970,0.93846
278.91863,0.93282
278.67756,0.93388
278.43649,0.94010
278.19542,0.94373
277.95435,0.94071
277.71328,0.93533
277.47221,0.93329
277.23114,0.93582
276.99007,0.94103
276.74900,0.94605
276.50793,0.94743
276.26686,0.94393
276.02579,0.93990
275.78472,0.94051
275.54365,0.94473
275.30258,0.94724
275.06151,0.94571
274.82043,0.94285
274.57936,0.94163
274.33829,0.94204
274.09722,0.94243
273.85615,0.94255
273.61508,0.94474
273.37401,0.95000
273.13294,0.95414
272.89187,0.95247
272.65080,0.94781
272.40973,0.94807
272.16866,0.95662
271.92759,0.96853
271.68652,0.97597
271.44545,0.97664
271.20438,0.97570
270.96331,0.97913
270.72224,0.98678
270.48116,0.99274
270.24009,0.99273
269.99902,0.98902
269.75795,0.98713
269.51688,0.98856
269.27581,0.98849
269.03474,0.98346
268.79367,0.97893
268.55260,0.98319
268.31153,0.99543
268.07046,1.00580
267.82939,1.00862
267.58832,1.00974
267.34725,1.01708
267.10618,1.02943
266.86511,1.03758
266.62404,1.03625
266.38297,1.03031
266.14189,1.02765
265.90082,1.03027
265.65975,1.03423
265.41868,1.03707
265.17761,1.04152
264.93654,1.05135
264.69547,1.06649
264.45440,1.08247
264.21333,1.09435
263.97226,1.10187
263.73119,1.10843
263.49012,1.11624
263.24905,1.12367
263.00798,1.12875
262.76691,1.13432
262.52584,1.14551
262.28477,1.16297
262.04370,1.18071
261.80262,1.19218
261.56155,1.19901
261.32048,1.20803
261.07941,1.22171
260.83834,1.23850
260.59727,1.25669
260.35620,1.27328
260.11513,1.28558
259.87406,1.29614
259.63299,1.30958
259.39192,1.32563
259.15085,1.34066
258.90978,1.35371
258.66871,1.36734
258.42764,1.38634
258.18657,1.41682
257.94550,1.46025
257.70443,1.50769
257.46335,1.54594
257.22228,1.57143
256.98121,1.59450
256.74014,1.62680
256.49907,1.66533
256.25800,1.68880
256.01693,1.68706
255.77586,1.67298
255.53479,1.67550
255.29372,1.71038
255.05265,1.76580
254.81158,1.82333
254.57051,1.86568
254.32944,1.87202
254.08837,1.84119
253.84730,1.80388
253.60623,1.79358
253.36516,1.83938
253.12408,1.99444
252.88301,2.27576
252.64194,2.40370
252.40087,2.39465
252.15980,2.43449
251.91873,2.38509
251.67766,2.25539
251.43659,2.14235
251.19552,2.08346
250.95445,2.07041
250.71338,2.09601
250.47231,2.15453
250.23124,2.30344
249.99017,2.60878
249.74910,2.79461
249.50803,2.80011
249.26696,2.62757
249.02589,2.53627
248.78481,2.55979
248.54374,2.52026
248.30267,2.36908
248.06160,2.23550
247.82053,2.14010
247.57946,2.11866
247.33839,2.20032
247.09732,2.29827
246.85625,2.39976
246.61518,2.47110
246.37411,2.37526
246.13304,2.13917
245.89197,2.05633
245.65090,2.11777
245.40983,2.21099
245.16876,2.24788
244.92769,2.21385
244.68661,2.12371
244.44554,1.99091
244.20447,1.85067
243.96340,1.73676
243.72233,1.65425
243.48126,1.58762
243.24019,1.51865
242.99912,1.44548
242.75805,1.37835
242.51698,1.32587
242.27591,1.28628
242.03484,1.24969
241.79377,1.21078
241.55270,1.17302
241.31163,1.13905
241.07056,1.10630
240.82949,1.07540
240.58842,1.05157
240.34734,1.03233
240.10627,1.00607
239.86520,0.96905
239.62413,0.93131
239.38306,0.90170
239.14199,0.87949
238.90092,0.86013
238.65985,0.84117
238.41878,0.82262
238.17771,0.80554
237.93664,0.79082
237.69557,0.77846
237.45450,0.76767
237.21343,0.75651
236.97236,0.74343
236.73129,0.73017
236.49022,0.72029
236.24915,0.71450
236.00807,0.71057
235.76700,0.70722
235.52593,0.70461
235.28486,0.70178
235.04379,0.69693
234.80272,0.68990
234.56165,0.68269
234.32058,0.67773
234.07951,0.67607
233.83844,0.67667
233.59737,0.67714
233.35630,0.67548
233.11523,0.67147
232.87416,0.66655
232.63309,0.66193
232.39202,0.65744
232.15095,0.65231
231.90988,0.64677
231.66880,0.64291
231.42773,0.64262
231.18666,0.64464
230.94559,0.64549
230.70452,0.64363
230.46345,0.64013
230.22238,0.63537
229.98131,0.62903
229.74024,0.62326
229.49917,0.62199
229.25810,0.62636
229.01703,0.63307
228.77596,0.63778
228.53489,0.63871
228.29382,0.63678
228.05275,0.63402
227.81168,0.63252
227.57061,0.63366
227.32953,0.63697
227.08846,0.64016
226.84739,0.64090
226.60632,0.63871
226.36525,0.63511
226.12418,0.63238
225.88311,0.63232
225.64204,0.63551
225.40097,0.64077
225.15990,0.64533
224.91883,0.64705
224.67776,0.64693
224.43669,0.64728
224.19562,0.64861
223.95455,0.65057
223.71348,0.65449
223.47241,0.66202
223.23134,0.67227
222.99026,0.68291
222.74919,0.69185
222.50812,0.69575
222.26705,0.69197
222.02598,0.68423
221.78491,0.68095
221.54384,0.68605
221.30277,0.69573
221.06170,0.70497
220.82063,0.71284
220.57956,0.72045
220.33849,0.72847
220.09742,0.73776
219.85635,0.74942
219.61528,0.76301
219.37421,0.77576
219.13314,0.78404
218.89207,0.78667
218.65099,0.78738
218.40992,0.79208
218.16885,0.80320
217.92778,0.81797
217.68671,0.83266
217.44564,0.84587
217.20457,0.85794
216.96350,0.87026
216.72243,0.88334
216.48136,0.89547
216.24029,0.90513
215.99922,0.91368
215.75815,0.92441
215.51708,0.93929
215.27601,0.95662
215.03494,0.97210
214.79387,0.98286
214.55280,0.98971
214.31172,0.99489
214.07065,1.00023
213.82958,1.00745
213.58851,1.01663
213.34744,1.02534
213.10637,1.03187
212.86530,1.03687
212.62423,1.04094
212.38316,1.04451
212.14209,1.04939
211.90102,1.05666
211.65995,1.06407
211.41888,1.06747
211.17781,1.06416
210.93674,1.05639
210.69567,1.05081
210.45460,1.05340
210.21353,1.06488
209.97245,1.07896
209.73138,1.08713
209.49031,1.08679
209.24924,1.08165
209.00817,1.07677
208.76710,1.07546
208.52603,1.07589
208.28496,1.07233
208.04389,1.06503
207.80282,1.06154
207.56175,1.06415
207.32068,1.06459
207.07961,1.05349
206.83854,1.03191
206.59747,1.01030
206.35640,0.99697
206.11533,0.99097
205.87426,0.98672
205.63318,0.98159
205.39211,0.97455
205.15104,0.96261
204.90997,0.94542
204.66890,0.92886
204.42783,0.91872
204.18676,0.91470
203.94569,0.91153
203.70462,0.90417
203.46355,0.89167
203.22248,0.87654
202.98141,0.86197
202.74034,0.84952
202.49927,0.83859
202.25820,0.82803
202.01713,0.81774
201.77606,0.80768
201.53499,0.79670
201.29391,0.78385
201.05284,0.76986
200.81177,0.75611
200.57070,0.74259
200.32963,0.72833
200.08856,0.71365
199.84749,0.70042
199.60642,0.69021
199.36535,0.68335
199.12428,0.67826
198.88321,0.67168
198.64214,0.66148
198.40107,0.64860
198.16000,0.63529
197.91893,0.62264
197.67786,0.61114
197.43679,0.60171
197.19572,0.59444
196.95464,0.58835
196.71357,0.58294
196.47250,0.57777
196.23143,0.57136
195.99036,0.56329
195.74929,0.55547
195.50822,0.54928
195.26715,0.54357
195.02608,0.53708
194.78501,0.53088
194.54394,0.52715
194.30287,0.52603
194.06180,0.52450
193.82073,0.51984
193.57966,0.51344
193.33859,0.50865
193.09752,0.50549
192.85645,0.50077
192.61537,0.49346
192.37430,0.48677
192.13323,0.48380
191.89216,0.48338
191.65109,0.48167
191.41002,0.47710
191.16895,0.47179
190.92788,0.46831
190.68681,0.46700
190.44574,0.46668
190.20467,0.46639
189.96360,0.46585
189.72253,0.46483
189.48146,0.46318
189.24039,0.46126
188.99932,0.45970
188.75825,0.45891
188.51718,0.45940
188.27610,0.46166
188.03503,0.46437
187.79396,0.46412
187.55289,0.45886
187.31182,0.45067
187.07075,0.44371
186.82968,0.44044
186.58861,0.44088
186.34754,0.44388
186.10647,0.44798
185.86540,0.45160
185.62433,0.45346
185.38326,0.45309
185.14219,0.45124
184.90112,0.44941
184.66005,0.44878
184.41898,0.44939
184.17791,0.45091
183.93683,0.45359
183.69576,0.45746
183.45469,0.46081
183.21362,0.46119
182.97255,0.45842
182.73148,0.45579
182.49041,0.45681
182.24934,0.46164
182.00827,0.46736
181.76720,0.47143
181.52613,0.47343
181.28506,0.47420
181.04399,0.47504
180.80292,0.47731
180.56185,0.48105
180.32078,0.48465
180.07971,0.48677
179.83864,0.48811
179.59756,0.49087
179.35649,0.49660
179.11542,0.50453
178.87435,0.51235
178.63328,0.51914
178.39221,0.52637
178.15114,0.53517
177.91007,0.54378
177.66900,0.54969
177.42793,0.55367
177.18686,0.55982
176.94579,0.57075
176.70472,0.58495
176.46365,0.59972
176.22258,0.61451
175.98151,0.63017
175.74044,0.64722
175.49937,0.66594
175.25829,0.68599
175.01722,0.70528
174.77615,0.72239
174.53508,0.73970
174.29401,0.76036
174.05294,0.78318
173.81187,0.80353
173.57080,0.81804
173.32973,0.82688
173.08866,0.83340
172.84759,0.84226
172.60652,0.85491
172.36545,0.86689
172.12438,0.87263
171.88331,0.87230
171.64224,0.87033
171.40117,0.86875
171.16010,0.86604
170.91902,0.86074
170.67795,0.85345
170.43688,0.84642
170.19581,0.84171
169.95474,0.83873
169.71367,0.83480
169.47260,0.82943
169.23153,0.82522
168.99046,0.82331
168.74939,0.82107
168.50832,0.81617
168.26725,0.81010
168.02618,0.80588
167.78511,0.80410
167.54404,0.80284
167.30297,0.80058
167.06190,0.79808
166.82083,0.79752
166.57975,0.80013
166.33868,0.80503
166.09761,0.81111
165.85654,0.81928
165.61547,0.83012
165.37440,0.84052
165.13333,0.84731
164.89226,0.85424
164.65119,0.86834
164.41012,0.88844
164.16905,0.90358
163.92798,0.90616
163.68691,0.90100
163.44584,0.89752
163.20477,0.90103
162.96370,0.91130
162.72263,0.92436
162.48156,0.93688
162.24048,0.94851
161.99941,0.95937
161.75834,0.96769
161.51727,0.97247
161.27620,0.97618
161.03513,0.98188
160.79406,0.98900
160.55299,0.99362
160.31192,0.99201
160.07085,0.98357
159.82978,0.97142
159.58871,0.96041
159.34764,0.95350
159.10657,0.94951
158.86550,0.94397
158.62443,0.93251
158.38336,0.91623
158.14229,0.90342
157.90121,0.90124
157.66014,0.90629
157.41907,0.90827
157.17800,0.90338
156.93693,0.89670
156.69586,0.89220
156.45479,0.88870
156.21372,0.88442
155.97265,0.87898
155.73158,0.87227
155.49051,0.86457
155.24944,0.85689
155.00837,0.84967
154.76730,0.84177
154.52623,0.83231
154.28516,0.82225
154.04409,0.81168
153.80302,0.79839
153.56194,0.78175
153.32087,0.76474
153.07980,0.74998
152.83873,0.73668
152.59766,0.72229
152.35659,0.70493
152.11552,0.68451
151.87445,0.66315
151.63338,0.64351
151.39231,0.62668
151.15124,0.61222
150.91017,0.59913
150.66910,0.58595
150.42803,0.57131
150.18696,0.55561
149.94589,0.54114
149.70482,0.52984
149.46375,0.52149
149.22267,0.51448
148.98160,0.50796
148.74053,0.50175
148.49946,0.49512
148.25839,0.48784
148.01732,0.48139
147.77625,0.47708
147.53518,0.47421
147.29411,0.47169
147.05304,0.46961
146.81197,0.46846
146.57090,0.46833
146.32983,0.46951
146.08876,0.47264
145.84769,0.47788
145.60662,0.48426
145.36555,0.49018
145.12448,0.49482
144.88340,0.49906
144.64233,0.50470
144.40126,0.51249
144.16019,0.52059
143.91912,0.52556
143.67805,0.52578
143.43698,0.52285
143.19591,0.51840
142.95484,0.51190
142.71377,0.50241
142.47270,0.49054
142.23163,0.47793
141.99056,0.46612
141.74949,0.45607
141.50842,0.44843
141.26735,0.44347
141.02628,0.44025
140.78521,0.43662
140.54413,0.43178
140.30306,0.42830
140.06199,0.42907
139.82092,0.43329
139.57985,0.43797
139.33878,0.44189
139.09771,0.44603
138.85664,0.45128
138.61557,0.45786
138.37450,0.46591
138.13343,0.47516
137.89236,0.48490
137.65129,0.49541
137.41022,0.50869
137.16915,0.52689
136.92808,0.54952
136.68701,0.57245
136.44594,0.59128
136.20486,0.60647
135.96379,0.62324
135.72272,0.64583
135.48165,0.67402
135.24058,0.70473
134.99951,0.73449
134.75844,0.76106
134.51737,0.78459
134.27630,0.80675
134.03523,0.82773
133.79416,0.84660
133.55309,0.86467
133.31202,0.88442
133.07095,0.90402
132.82988,0.91680
132.58881,0.92000
132.34774,0.91964
132.10667,0.92282
131.86559,0.92869
131.62452,0.92995
131.38345,0.92184
131.14238,0.90603
130.90131,0.88714
130.66024,0.86778
130.41917,0.84748
130.17810,0.82476
129.93703,0.79886
129.69596,0.77025
129.45489,0.74106
129.21382,0.71403
128.97275,0.68992
128.73168,0.66708
128.49061,0.64338
128.24954,0.61772
128.00847,0.59049
127.76740,0.56346
127.52632,0.53841
127.28525,0.51560
127.04418,0.49488
126.80311,0.47668
126.56204,0.46057
126.32097,0.44513
126.07990,0.43032
125.83883,0.41762
125.59776,0.40706
125.35669,0.39678
125.11562,0.38647
124.87455,0.37848
124.63348,0.37415
124.39241,0.37152
124.15134,0.36826
123.91027,0.36427
123.66920,0.35974
123.42812,0.35364
123.18705,0.34582
122.94598,0.33836
122.70491,0.33360
122.46384,0.33205
122.22277,0.33240
121.98170,0.33303
121.74063,0.33414
121.49956,0.33766
121.25849,0.34418
121.01742,0.35164
120.77635,0.35819
120.53528,0.36464
120.29421,0.37237
120.05314,0.38066
119.81207,0.38852
119.57100,0.39809
119.32993,0.41327
119.08885,0.43518
118.84778,0.46079
118.60671,0.48635
118.36564,0.51048
118.12457,0.53369
117.88350,0.55688
117.64243,0.58107
117.40136,0.60619
117.16029,0.62895
116.91922,0.64357
116.67815,0.64673
116.43708,0.64036
116.19601,0.62883
115.95494,0.61560
115.71387,0.60320
115.47280,0.59337
115.23173,0.58547
114.99066,0.57719
114.74958,0.56750
114.50851,0.55767
114.26744,0.54846
114.02637,0.53882
113.78530,0.52919
113.54423,0.52322
113.30316,0.52353
113.06209,0.52783
112.82102,0.53156
112.57995,0.53300
112.33888,0.53379
112.09781,0.53621
111.85674,0.54123
111.61567,0.54854
111.37460,0.55769
111.13353,0.56828
110.89246,0.57809
110.65139,0.58363
110.41031,0.58386
110.16924,0.58019
109.92817,0.57212
109.68710,0.55777
109.44603,0.53805
109.20496,0.51603
108.96389,0.49348
108.72282,0.47118
108.48175,0.45037
108.24068,0.43156
107.99961,0.41453
107.75854,0.40008
107.51747,0.38927
107.27640,0.38069
107.03533,0.37138
106.79426,0.36052
106.55319,0.34990
106.31212,0.34091
106.07104,0.33248
105.82997,0.32233
105.58890,0.30961
105.34783,0.29646
105.10676,0.28627
104.86569,0.28025
104.62462,0.27631
104.38355,0.27119
104.14248,0.26366
103.90141,0.25561
103.66034,0.24987
103.41927,0.24667
103.17820,0.24336
102.93713,0.23810
102.69606,0.23216
102.45499,0.22769
102.21392,0.22463
101.97285,0.22139
101.73177,0.21734
101.49070,0.21319
101.24963,0.20936
101.00856,0.20557
100.76749,0.20208
100.52642,0.19971
100.28535,0.19835
100.04428,0.19668
99.80321,0.19359
99.56214,0.18944
99.32107,0.18636
99.08000,0.18670
98.83893,0.18989
98.59786,0.19195
98.35679,0.18984
98.11572,0.18480
97.87465,0.18071
97.63358,0.18043
97.39250,0.18378
97.15143,0.18833
96.91036,0.19235
96.66929,0.19659
96.42822,0.20242
96.18715,0.20920
95.94608,0.21499
95.70501,0.21974
95.46394,0.22590
95.22287,0.23485
94.98180,0.24435
94.74073,0.25114
94.49966,0.25438
94.25859,0.25514
94.01752,0.25418
93.77645,0.25214
93.53538,0.25039
93.29431,0.25047
93.05323,0.25319
92.81216,0.25807
92.57109,0.26302
92.33002,0.26586
92.08895,0.26658
91.84788,0.26767
91.60681,0.27210
91.36574,0.28121
91.12467,0.29380
90.88360,0.30773
90.64253,0.32325
90.40146,0.34411
90.16039,0.37438
89.91932,0.41361
89.67825,0.45575
89.43718,0.49372
89.19611,0.52468
88.95504,0.54914
88.71396,0.56622
88.47289,0.57147
88.23182,0.55945
87.99075,0.52929
87.74968,0.48768
87.50861,0.44468
87.26754,0.40730
87.02647,0.37736
86.78540,0.35313
86.54433,0.33166
86.30326,0.31097
86.06219,0.29050
85.82112,0.26981
85.58005,0.24840
85.33898,0.22754
85.09791,0.21023
84.85684,0.19813
84.61577,0.18941
84.37469,0.18050
84.13362,0.16975
83.89255,0.15880
83.65148,0.15031
83.41041,0.14520
83.16934,0.14246
82.92827,0.14066
82.68720,0.13910
82.44613,0.13746
82.20506,0.13521
81.96399,0.13142
81.72292,0.12555
81.48185,0.11890
81.24078,0.11439
80.99971,0.11402
80.75864,0.11697
80.51757,0.12066
80.27650,0.12269
80.03542,0.12208
79.79435,0.11956
79.55328,0.11676
79.31221,0.11481
79.07114,0.11377
78.83007,0.11314
78.58900,0.11226
78.34793,0.11035
78.10686,0.10710
77.86579,0.10337
77.62472,0.10065
77.38365,0.09969
77.14258,0.10002
76.90151,0.10040
76.66044,0.09956
76.41937,0.09743
76.17830,0.09565
75.93723,0.09582
75.69615,0.09704
75.45508,0.09681
75.21401,0.09447
74.97294,0.09181
74.73187,0.09027
74.49080,0.08956
74.24973,0.08892
74.00866,0.08853
73.76759,0.08907
73.52652,0.09040
73.28545,0.09135
73.04438,0.09165
72.80331,0.09290
72.56224,0.09621
72.32117,0.10034
72.08010,0.10345
71.83903,0.10525
71.59796,0.10628
71.35688,0.10700
71.11581,0.10824
70.87474,0.11145
70.63367,0.11764
70.39260,0.12672
70.15153,0.13746
69.91046,0.14820
69.66939,0.15819
69.42832,0.16819
69.18725,0.17808
68.94618,0.18411
68.70511,0.18104
68.46404,0.16819
68.22297,0.15113
67.98190,0.13669
67.74083,0.12717
67.49976,0.12004
67.25869,0.11230
67.01761,0.10417
66.77654,0.09778
66.53547,0.09354
66.29440,0.08992
66.05333,0.08647
65.81226,0.08447
65.57119,0.08404
65.33012,0.08336
65.08905,0.08175
64.84798,0.08213
64.60691,0.08845
64.36584,0.10015
64.12477,0.11123
63.88370,0.11585
63.64263,0.11369
63.40156,0.10834
63.16049,0.10284
62.91942,0.09835
62.67834,0.09459
62.43727,0.08981
62.19620,0.08276
61.95513,0.07512
61.71406,0.06968
61.47299,0.06669
61.23192,0.06439
60.99085,0.06217
60.74978,0.06134
60.50871,0.06352
60.26764,0.06909
60.02657,0.07583
59.78550,0.08004
59.54443,0.08023
59.30336,0.07834
59.06229,0.07637
58.82122,0.07452
58.58015,0.07280
58.33907,0.07163
58.09800,0.07086
57.85693,0.06996
57.61586,0.06838
57.37479,0.06519
57.13372,0.06026
56.89265,0.05558
56.65158,0.05341
56.41051,0.05347
56.16944,0.05394
55.92837,0.05446
55.68730,0.05670
55.44623,0.06209
55.20516,0.06933
54.96409,0.07430
54.72302,0.07335
54.48195,0.06706
54.24088,0.06045
53.99980,0.05833
53.75873,0.06024
53.51766,0.06099
53.27659,0.05679
53.03552,0.05022
52.79445,0.04808
52.55338,0.05313
52.31231,0.06036
52.07124,0.06385
51.83017,0.06234
51.58910,0.05680
51.34803,0.04880
51.10696,0.04247
50.86589,0.04195
50.62482,0.04635
50.38375,0.05146
50.14268,0.05545
49.90161,0.05915
49.66053,0.06155
49.41946,0.05988
49.17839,0.05497
48.93732,0.05091
48.69625,0.04803
48.45518,0.04298
48.21411,0.03651
47.97304,0.03337
47.73197,0.03374
47.49090,0.03256
47.24983,0.02830
47.00876,0.02463
46.76769,0.02311
46.52662,0.02123
46.28555,0.01795
46.04448,0.01544
45.80341,0.01509
45.56234,0.01593
45.32126,0.01733
45.08019,0.01990
44.83912,0.02249
44.59805,0.02159
44.35698,0.01568
44.11591,0.00789
43.87484,0.00224
43.63377,-0.00072
43.39270,-0.00259
43.15163,-0.00336
42.91056,-0.00024
42.66949,0.00815
42.42842,0.01679
42.18735,0.01792
41.94628,0.01125
41.70521,0.00443
41.46414,0.00317
41.22307,0.00628
40.98199,0.00935
40.74092,0.00925
40.49985,0.00689
40.25878,0.00723
40.01771,0.01298
39.77664,0.01706
39.53557,0.00911
39.29450,-0.00681
39.05343,-0.01396
38.81236,-0.00665
38.57129,0.00279
38.33022,0.00333
38.08915,-0.00280
37.84808,-0.01207
37.60701,-0.02529
37.36594,-0.03563
37.12487,-0.02841
36.88380,-0.00136
36.64272,0.03028
36.40165,0.05321
36.16058,0.06698
35.91951,0.07403
35.67844,0.07067
35.43737,0.05419
35.19630,0.03071
34.95523,0.01001
34.71416,-0.00122
34.47309,-0.00348
34.23202,-0.00292
33.99095,-0.00286
33.74988,0.00015
33.50881,0.01290
33.26774,0.03266
33.02667,0.04140
32.78560,0.03020
32.54453,0.01163
32.30345,-0.00529
32.06238,-0.02320
31.82131,-0.03873
31.58024,-0.04217
31.33917,-0.03593
31.09810,-0.03366
30.85703,-0.04123
30.61596,-0.04922
30.37489,-0.05010
30.13382,-0.05428
29.89275,-0.06847
29.65168,-0.07254
29.41061,-0.03989
29.16954,0.01752
28.92847,0.06661
28.68740,0.09720
28.44633,0.11535
28.20526,0.12201
27.96418,0.11677
27.72311,0.11035
27.48204,0.11066
27.24097,0.10031
26.99990,0.05457
26.75883,-0.01384
26.51776,-0.05785
26.27669,-0.04802
26.03562,0.00600
25.79455,0.07237
25.55348,0.11145
25.31241,0.09815
25.07134,0.06481
24.83027,0.04321
24.58920,0.05708
24.34813,0.12373
24.10706,0.16830
23.86599,0.14926
23.62491,0.13601
23.38384,0.12823
23.14277,0.12423
22.90170,0.15499
22.66063,0.19405
22.41956,0.20307
22.17849,0.20298
21.93742,0.19869
21.69635,0.14161
21.45528,0.06496
21.21421,0.04137
20.97314,0.05022
20.73207,0.05933
20.49100,0.09649
20.24993,0.20165
20.00886,0.32406
19.76779,0.38260
19.52672,0.39699
19.28564,0.44779
19.04457,0.55620
18.80350,0.44342
18.56243,0.29983
18.32136,0.34446
18.08029,0.49326
17.83922,0.56824
17.59815,0.59209
17.35708,0.64023
17.11601,0.51474
16.87494,0.48212
16.63387,0.52575
16.39280,0.52392
16.15173,0.60510
15.91066,0.84919
15.66959,0.87617
15.42852,0.61389
15.18745,0.48617
14.94637,0.47467
14.70530,0.52124
14.46423,0.52818
14.22316,0.53216
13.98209,0.55920
13.74102,0.53297
13.49995,0.41727
13.25888,0.52132
13.01781,0.77573
12.77674,0.83246
12.53567,0.79160
12.29460,0.78879
12.05353,0.90727
11.81246,1.12634
11.57139,0.91426
11.33032,0.67972
11.08925,0.60542
10.84818,0.55272
10.60710,0.51636
10.36603,0.55152
10.12496,0.62693
9.88389,0.64859
9.64282,0.56811
9.40175,0.52682
9.16068,0.45205
8.91961,0.32915
8.67854,0.28229
8.43747,0.32858
8.19640,0.39401
7.95533,0.47924
7.71426,0.56863
7.47319,0.64045
7.23212,0.74833
6.99105,1.01518
6.74998,1.23197
6.50891,0.78051
6.26783,0.58184
6.02676,0.62172
5.78569,0.71289
5.54462,0.80015
5.30355,0.89397
5.06248,0.75365
4.82141,0.63766
4.58034,0.64154
4.33927,0.47750
4.09820,0.41445
3.85713,0.46785
3.61606,0.57383
3.37499,0.68226
3.13392,0.70734
2.89285,0.64323
2.65178,0.60189
2.41071,0.74174
2.16964,1.05477
1.92856,0.82816
1.68749,0.60933
1.44642,0.56420
1.20535,0.67130
0.96428,0.97976
0.72321,0.95954
0.48214,0.51128
0.24107,0.30751
-0.00000,0.23768
