399.69498,1.55183
399.45391,1.55252
399.21284,1.53652
398.97177,1.51570
398.73070,1.51663
398.48963,1.54865
398.24856,1.59001
398.00749,1.60819
397.76642,1.59779
397.52535,1.58013
397.28428,1.57217
397.04321,1.57366
396.80214,1.57195
396.56107,1.55959
396.32000,1.54515
396.07892,1.54067
395.83785,1.55240
395.59678,1.57691
395.35571,1.59847
395.11464,1.60330
394.87357,1.59584
394.63250,1.58601
394.39143,1.57292
394.15036,1.55282
393.90929,1.53134
393.66822,1.51825
393.42715,1.51545
393.18608,1.51645
392.94501,1.51746
392.70394,1.52206
392.46287,1.53057
392.22180,1.53604
391.98073,1.53841
391.73965,1.54890
391.49858,1.56856
391.25751,1.57546
391.01644,1.55504
390.77537,1.53149
390.53430,1.53396
390.29323,1.55975
390.05216,1.58287
389.81109,1.58113
389.57002,1.55720
389.32895,1.52631
389.08788,1.50022
388.84681,1.49438
388.60574,1.51776
388.36467,1.55694
388.12360,1.58312
387.88253,1.57422
387.64146,1.53302
387.40038,1.48458
387.15931,1.45276
386.91824,1.44618
386.67717,1.45808
386.43610,1.47381
386.19503,1.48836
385.95396,1.50185
385.71289,1.50341
385.47182,1.48218
385.23075,1.44123
384.98968,1.40177
384.74861,1.38789
384.50754,1.40844
384.26647,1.45141
384.02540,1.48572
383.78433,1.48388
383.54326,1.45805
383.30219,1.44418
383.06111,1.45115
382.82004,1.45334
382.57897,1.43452
382.33790,1.40564
382.09683,1.37646
381.85576,1.34226
381.61469,1.30396
381.37362,1.28099
381.13255,1.28576
380.89148,1.30983
380.65041,1.33488
380.40934,1.34783
380.16827,1.34878
379.92720,1.34217
379.68613,1.32857
379.44506,1.30971
379.20399,1.29296
378.96292,1.28720
378.72184,1.29799
378.48077,1.32297
378.23970,1.34895
377.99863,1.36158
377.75756,1.36340
377.51649,1.36871
377.27542,1.38493
377.03435,1.40896
376.79328,1.43000
376.55221,1.43628
376.31114,1.43545
376.07007,1.44319
375.82900,1.45560
375.58793,1.45685
375.34686,1.44212
375.10579,1.42357
374.86472,1.41520
374.62365,1.42168
374.38257,1.43759
374.14150,1.45068
373.90043,1.45211
373.65936,1.44735
373.41829,1.44489
373.17722,1.44140
372.93615,1.43200
372.69508,1.42422
372.45401,1.42712
372.21294,1.43537
371.97187,1.43380
371.73080,1.41517
371.48973,1.38772
371.24866,1.36380
371.00759,1.35028
370.76652,1.34815
370.52545,1.35222
370.28437,1.35287
370.04330,1.34242
369.80223,1.32336
369.56116,1.31007
369.32009,1.31327
369.07902,1.32465
368.83795,1.32501
368.59688,1.31012
368.35581,1.29468
368.11474,1.29183
367.87367,1.30278
367.63260,1.31972
367.39153,1.33258
367.15046,1.33558
366.90939,1.33001
366.66832,1.32080
366.42725,1.31126
366.18618,1.30250
365.94510,1.29546
365.70403,1.29001
365.46296,1.28366
365.22189,1.27504
364.98082,1.26839
364.73975,1.27048
364.49868,1.28200
364.25761,1.29406
364.01654,1.29536
363.77547,1.28399
363.53440,1.26878
363.29333,1.25903
363.05226,1.25687
362.81119,1.25893
362.57012,1.26185
362.32905,1.26343
362.08798,1.26072
361.84691,1.25187
361.60583,1.23940
361.36476,1.22935
361.12369,1.22669
360.88262,1.23175
360.64155,1.24158
360.40048,1.25223
360.15941,1.25909
359.91834,1.25977
359.67727,1.25703
359.43620,1.25655
359.19513,1.26161
358.95406,1.26898
358.71299,1.27166
358.47192,1.26628
358.23085,1.25648
357.98978,1.24783
357.74871,1.24144
357.50764,1.23711
357.26656,1.23857
357.02549,1.24780
356.78442,1.25688
356.54335,1.25513
356.30228,1.24408
356.06121,1.23578
355.82014,1.23772
355.57907,1.24653
355.33800,1.25348
355.09693,1.25340
354.85586,1.24933
354.61479,1.24893
354.37372,1.25475
354.13265,1.26174
353.89158,1.26649
353.65051,1.27106
353.40944,1.27422
353.16837,1.26925
352.92729,1.25484
352.68622,1.24035
352.44515,1.23459
352.20408,1.23657
351.96301,1.24066
351.72194,1.24370
351.48087,1.24456
351.23980,1.24152
350.99873,1.23498
350.75766,1.23042
350.51659,1.23381
350.27552,1.24336
350.03445,1.25094
349.79338,1.25353
349.55231,1.25542
349.31124,1.25840
349.07017,1.25934
348.82910,1.25538
348.58802,1.24618
348.34695,1.23472
348.10588,1.22778
347.86481,1.23085
347.62374,1.24198
347.38267,1.25441
347.14160,1.26302
346.90053,1.26609
346.65946,1.26584
346.41839,1.26671
346.17732,1.27229
345.93625,1.28461
345.69518,1.30383
345.45411,1.32631
345.21304,1.34218
344.97197,1.34024
344.73090,1.32233
344.48983,1.30539
344.24875,1.30462
344.00768,1.32134
343.76661,1.34533
343.52554,1.36279
343.28447,1.36571
343.04340,1.35886
342.80233,1.35223
342.56126,1.34956
342.32019,1.34896
342.07912,1.34871
341.83805,1.35125
341.59698,1.36132
341.35591,1.37800
341.11484,1.39150
340.87377,1.39335
340.63270,1.38579
340.39163,1.38064
340.15056,1.38722
339.90948,1.40187
339.66841,1.41488
339.42734,1.42405
339.18627,1.43213
338.94520,1.43611
338.70413,1.43127
338.46306,1.42212
338.22199,1.41810
337.98092,1.42095
337.73985,1.42369
337.49878,1.42040
337.25771,1.41195
337.01664,1.40276
336.77557,1.39723
336.53450,1.39739
336.29343,1.40069
336.05236,1.40452
335.81129,1.41234
335.57021,1.42506
335.32914,1.43278
335.08807,1.42844
334.84700,1.41909
334.60593,1.41490
334.36486,1.41626
334.12379,1.41549
333.88272,1.40708
333.64165,1.39424
333.40058,1.38563
333.15951,1.38572
332.91844,1.38969
332.67737,1.39128
332.43630,1.39010
332.19523,1.38371
331.95416,1.36629
331.71309,1.33991
331.47202,1.31722
331.23094,1.30757
330.98987,1.30493
330.74880,1.29844
330.50773,1.29304
330.26666,1.30438
330.02559,1.33544
329.78452,1.36472
329.54345,1.36264
329.30238,1.32838
329.06131,1.29163
328.82024,1.27417
328.57917,1.27258
328.33810,1.27341
328.09703,1.27546
327.85596,1.28880
327.61489,1.31570
327.37382,1.34347
327.13275,1.35640
326.89167,1.35253
326.65060,1.34412
326.40953,1.34297
326.16846,1.35307
325.92739,1.36985
325.68632,1.38148
325.44525,1.38117
325.20418,1.37421
324.96311,1.36835
324.72204,1.36578
324.48097,1.35684
324.23990,1.33121
323.99883,1.30096
323.75776,1.29144
323.51669,1.31289
323.27562,1.34791
323.03455,1.36384
322.79348,1.35100
322.55240,1.33470
322.31133,1.33061
322.07026,1.32683
321.82919,1.31486
321.58812,1.30590
321.34705,1.30980
321.10598,1.31938
320.86491,1.32148
320.62384,1.31406
320.38277,1.30403
320.14170,1.29632
319.90063,1.29199
319.65956,1.29591
319.41849,1.31503
319.17742,1.34254
318.93635,1.35890
318.69528,1.35750
318.45421,1.35111
318.21313,1.34799
317.97206,1.34320
317.73099,1.33331
317.48992,1.32372
317.24885,1.31906
317.00778,1.31881
316.76671,1.32335
316.52564,1.33353
316.28457,1.34529
316.04350,1.35467
315.80243,1.36371
315.56136,1.37447
315.32029,1.38381
315.07922,1.38852
314.83815,1.39010
314.59708,1.39203
314.35601,1.39375
314.11494,1.38940
313.87386,1.38081
313.63279,1.37601
313.39172,1.37559
313.15065,1.37677
312.90958,1.37672
312.66851,1.37482
312.42744,1.37159
312.18637,1.37202
311.94530,1.38522
311.70423,1.40936
311.46316,1.43022
311.22209,1.44307
310.98102,1.44544
310.73995,1.43085
310.49888,1.40987
310.25781,1.40452
310.01674,1.41945
309.77567,1.43532
309.53459,1.43538
309.29352,1.42287
309.05245,1.41268
308.81138,1.41614
308.57031,1.43147
308.32924,1.44798
308.08817,1.45848
307.84710,1.46156
307.60603,1.45760
307.36496,1.45310
307.12389,1.45792
306.88282,1.47256
306.64175,1.48761
306.40068,1.49528
306.15961,1.49344
305.91854,1.48220
305.67747,1.46535
305.43640,1.45221
305.19532,1.44886
304.95425,1.44889
304.71318,1.44019
304.47211,1.41928
304.23104,1.39515
303.98997,1.38090
303.74890,1.38367
303.50783,1.39930
303.26676,1.41463
303.02569,1.41836
302.78462,1.40949
302.54355,1.39248
302.30248,1.36947
302.06141,1.34454
301.82034,1.32647
301.57927,1.32036
301.33820,1.32509
301.09713,1.33543
300.85605,1.34276
300.61498,1.34096
300.37391,1.33360
300.13284,1.32941
299.89177,1.33156
299.65070,1.33437
299.40963,1.32925
299.16856,1.31396
298.92749,1.29591
298.68642,1.28434
298.44535,1.28166
298.20428,1.28451
297.96321,1.28895
297.72214,1.29208
297.48107,1.28976
297.24000,1.27855
296.99893,1.26333
296.75786,1.25504
296.51678,1.25796
296.27571,1.26405
296.03464,1.26306
295.79357,1.25416
295.55250,1.24285
295.31143,1.23443
295.07036,1.22987
294.82929,1.22481
294.58822,1.21584
294.34715,1.20526
294.10608,1.19867
293.86501,1.19929
293.62394,1.20518
293.38287,1.21112
293.14180,1.21179
292.90073,1.20504
292.65966,1.19445
292.41859,1.18720
292.17751,1.18606
291.93644,1.18548
291.69537,1.17957
291.45430,1.17090
291.21323,1.16626
290.97216,1.16670
290.73109,1.16695
290.49002,1.16417
290.24895,1.16183
290.00788,1.16279
289.76681,1.16467
289.52574,1.16440
289.28467,1.16250
289.04360,1.16026
288.80253,1.15661
288.56146,1.15054
288.32039,1.14381
288.07932,1.13887
287.83824,1.13631
287.59717,1.13588
287.35610,1.13742
287.11503,1.13954
286.87396,1.13996
286.63289,1.13848
286.39182,1.13774
286.15075,1.13972
285.90968,1.14244
285.66861,1.14234
285.42754,1.13832
285.18647,1.13137
284.94540,1.12316
284.70433,1.11706
284.46326,1.11711
284.22219,1.12355
283.98112,1.13107
283.74005,1.13298
283.49897,1.12852
283.25790,1.12433
283.01683,1.12608
282.77576,1.13044
282.53469,1.13059
282.29362,1.12718
282.05255,1.12599
281.81148,1.12771
281.57041,1.12740
281.32934,1.12297
281.08827,1.11813
280.84720,1.11639
280.60613,1.11684
280.36506,1.11681
280.12399,1.11556
279.88292,1.11497
279.64185,1.11726
279.40078,1.12187
279.15970,1.12559
278.91863,1.12694
278.67756,1.12830
278.43649,1.13159
278.19542,1.13497
277.95435,1.13606
277.71328,1.13560
277.47221,1.13599
277.23114,1.13863
276.99007,1.14282
276.74900,1.14618
276.50793,1.14641
276.26686,1.14259
276.02579,1.13588
275.78472,1.13019
275.54365,1.12938
275.30258,1.13318
275.06151,1.13875
274.82043,1.14532
274.57936,1.15251
274.33829,1.15671
274.09722,1.15537
273.85615,1.15139
273.61508,1.14885
273.37401,1.14813
273.13294,1.14798
272.89187,1.14862
272.65080,1.15066
272.40973,1.15366
272.16866,1.15742
271.92759,1.16301
271.68652,1.17140
271.44545,1.18081
271.20438,1.18674
270.96331,1.18628
270.72224,1.18203
270.48116,1.18053
270.24009,1.18685
269.99902,1.20067
269.75795,1.21569
269.51688,1.22441
269.27581,1.22570
269.03474,1.22490
268.79367,1.22632
268.55260,1.23004
268.31153,1.23561
268.07046,1.24284
267.82939,1.25008
267.58832,1.25643
267.34725,1.26434
267.10618,1.27604
266.86511,1.28842
266.62404,1.29592
266.38297,1.29731
266.14189,1.29628
265.90082,1.29656
265.65975,1.30026
265.41868,1.30917
265.17761,1.32223
264.93654,1.33390
264.69547,1.33934
264.45440,1.33963
264.21333,1.33992
263.97226,1.34518
263.73119,1.35789
263.49012,1.37635
263.24905,1.39715
263.00798,1.42158
262.76691,1.45266
262.52584,1.48260
262.28477,1.49742
262.04370,1.49915
261.80262,1.50682
261.56155,1.53432
261.32048,1.57621
261.07941,1.61406
260.83834,1.63355
260.59727,1.63848
260.35620,1.64609
260.11513,1.66676
259.87406,1.69402
259.63299,1.71973
259.39192,1.74710
259.15085,1.77265
258.90978,1.79709
258.66871,1.83297
258.42764,1.87380
258.18657,1.89644
257.94550,1.89355
257.70443,1.87696
257.46335,1.85433
257.22228,1.82507
256.98121,1.79825
256.74014,1.78545
256.49907,1.78613
256.25800,1.79154
256.01693,1.79274
255.77586,1.78364
255.53479,1.76075
255.29372,1.72950
255.05265,1.70423
254.81158,1.69413
254.57051,1.69242
254.32944,1.68845
254.08837,1.68761
253.84730,1.70086
253.60623,1.71875
253.36516,1.71873
253.12408,1.69776
252.88301,1.67465
252.64194,1.66603
252.40087,1.67135
252.15980,1.67516
251.91873,1.66196
251.67766,1.63381
251.43659,1.61000
251.19552,1.60488
250.95445,1.61174
250.71338,1.61163
250.47231,1.59995
250.23124,1.59002
249.99017,1.58781
249.74910,1.58686
249.50803,1.58356
249.26696,1.57940
249.02589,1.57360
248.78481,1.56737
248.54374,1.57005
248.30267,1.58723
248.06160,1.60669
247.82053,1.61334
247.57946,1.61170
247.33839,1.61467
247.09732,1.62274
246.85625,1.62650
246.61518,1.62312
246.37411,1.62154
246.13304,1.62805
245.89197,1.63480
245.65090,1.63252
245.40983,1.62834
245.16876,1.63770
244.92769,1.66105
244.68661,1.67700
244.44554,1.67090
244.20447,1.66071
243.96340,1.67525
243.72233,1.72724
243.48126,1.80885
243.24019,1.89816
242.99912,1.97646
242.75805,2.03322
242.51698,1.99739
242.27591,1.85671
242.03484,1.73517
241.79377,1.64623
241.55270,1.57594
241.31163,1.51050
241.07056,1.44516
240.82949,1.38453
240.58842,1.33082
240.34734,1.28065
240.10627,1.23229
239.86520,1.18844
239.62413,1.15168
239.38306,1.12136
239.14199,1.09481
238.90092,1.06963
238.65985,1.04478
238.41878,1.02081
238.17771,0.99933
237.93664,0.98181
237.69557,0.96844
237.45450,0.95722
237.21343,0.94483
236.97236,0.93012
236.73129,0.91528
236.49022,0.90181
236.24915,0.88887
236.00807,0.87702
235.76700,0.86844
235.52593,0.86228
235.28486,0.85436
235.04379,0.84341
234.80272,0.83408
234.56165,0.83147
234.32058,0.83522
234.07951,0.84011
233.83844,0.84138
233.59737,0.83930
233.35630,0.83684
233.11523,0.83373
232.87416,0.82683
232.63309,0.81605
232.39202,0.80615
232.15095,0.80132
231.90988,0.80116
231.66880,0.80271
231.42773,0.80429
231.18666,0.80642
230.94559,0.80962
230.70452,0.81271
230.46345,0.81389
230.22238,0.81272
229.98131,0.80968
229.74024,0.80528
229.49917,0.80112
229.25810,0.79974
229.01703,0.80101
228.77596,0.80118
228.53489,0.79761
228.29382,0.79266
228.05275,0.79090
227.81168,0.79373
227.57061,0.79798
227.32953,0.79959
227.08846,0.79749
226.84739,0.79350
226.60632,0.79040
226.36525,0.79019
226.12418,0.79259
225.88311,0.79515
225.64204,0.79606
225.40097,0.79592
225.15990,0.79607
224.91883,0.79714
224.67776,0.80014
224.43669,0.80634
224.19562,0.81448
223.95455,0.82100
223.71348,0.82448
223.47241,0.82750
223.23134,0.83264
222.99026,0.83926
222.74919,0.84568
222.50812,0.85122
222.26705,0.85515
222.02598,0.85726
221.78491,0.85961
221.54384,0.86463
221.30277,0.87233
221.06170,0.88181
220.82063,0.89273
220.57956,0.90364
220.33849,0.91288
220.09742,0.92107
219.85635,0.93055
219.61528,0.94350
219.37421,0.96083
219.13314,0.98041
218.89207,0.99664
218.65099,1.00554
218.40992,1.00913
218.16885,1.01255
217.92778,1.01900
217.68671,1.02892
217.44564,1.04271
217.20457,1.06291
216.96350,1.09057
216.72243,1.11955
216.48136,1.13991
216.24029,1.14950
215.99922,1.15537
215.75815,1.16423
215.51708,1.17853
215.27601,1.19934
215.03494,1.22708
214.79387,1.25939
214.55280,1.29048
214.31172,1.31408
214.07065,1.32762
213.82958,1.33461
213.58851,1.34030
213.34744,1.34445
213.10637,1.34416
212.86530,1.34148
212.62423,1.34180
212.38316,1.34688
212.14209,1.35431
211.90102,1.36318
211.65995,1.37357
211.41888,1.38340
211.17781,1.39343
210.93674,1.40836
210.69567,1.42471
210.45460,1.42749
210.21353,1.41023
209.97245,1.38881
209.73138,1.38150
209.49031,1.39064
209.24924,1.40671
209.00817,1.42020
208.76710,1.42600
208.52603,1.42196
208.28496,1.40999
208.04389,1.39684
207.80282,1.38750
207.56175,1.38009
207.32068,1.36937
207.07961,1.35166
206.83854,1.32525
206.59747,1.29215
206.35640,1.26060
206.11533,1.24062
205.87426,1.23642
205.63318,1.24139
205.39211,1.23961
205.15104,1.22117
204.90997,1.19375
204.66890,1.17015
204.42783,1.15467
204.18676,1.14368
203.94569,1.13274
203.70462,1.11951
203.46355,1.10299
203.22248,1.08407
202.98141,1.06550
202.74034,1.04814
202.49927,1.02918
202.25820,1.00647
202.01713,0.98150
201.77606,0.95771
201.53499,0.93832
201.29391,0.92456
201.05284,0.91432
200.81177,0.90364
200.57070,0.89002
200.32963,0.87436
200.08856,0.86013
199.84749,0.85046
199.60642,0.84477
199.36535,0.83846
199.12428,0.82731
198.88321,0.81196
198.64214,0.79673
198.40107,0.78508
198.16000,0.77696
197.91893,0.76912
197.67786,0.75861
197.43679,0.74624
197.19572,0.73488
196.95464,0.72570
196.71357,0.71747
196.47250,0.70793
196.23143,0.69638
195.99036,0.68542
195.74929,0.67848
195.50822,0.67497
195.26715,0.67033
195.02608,0.66224
194.78501,0.65390
194.54394,0.64912
194.30287,0.64700
194.06180,0.64338
193.82073,0.63606
193.57966,0.62709
193.33859,0.62015
193.09752,0.61698
192.85645,0.61612
192.61537,0.61450
192.37430,0.61049
192.13323,0.60506
191.89216,0.59960
191.65109,0.59402
191.41002,0.58807
191.16895,0.58303
190.92788,0.58020
190.68681,0.57883
190.44574,0.57716
190.20467,0.57467
189.96360,0.57215
189.72253,0.57038
189.48146,0.56917
189.24039,0.56754
188.99932,0.56537
188.75825,0.56435
188.51718,0.56573
188.27610,0.56749
188.03503,0.56650
187.79396,0.56336
187.55289,0.56134
187.31182,0.56067
187.07075,0.55829
186.82968,0.55383
186.58861,0.55141
186.34754,0.55334
186.10647,0.55629
185.86540,0.55585
185.62433,0.55293
185.38326,0.55196
185.14219,0.55402
184.90112,0.55576
184.66005,0.55537
184.41898,0.55571
184.17791,0.55920
183.93683,0.56383
183.69576,0.56691
183.45469,0.56927
183.21362,0.57244
182.97255,0.57515
182.73148,0.57620
182.49041,0.57741
182.24934,0.58022
182.00827,0.58237
181.76720,0.58183
181.52613,0.58133
181.28506,0.58441
181.04399,0.58951
180.80292,0.59233
180.56185,0.59247
180.32078,0.59342
180.07971,0.59675
179.83864,0.60100
179.59756,0.60555
179.35649,0.61114
179.11542,0.61729
178.87435,0.62297
178.63328,0.62860
178.39221,0.63456
178.15114,0.64095
177.91007,0.65027
177.66900,0.66529
177.42793,0.68374
177.18686,0.70067
176.94579,0.71580
176.70472,0.73224
176.46365,0.75069
176.22258,0.77029
175.98151,0.79098
175.74044,0.81176
175.49937,0.83106
175.25829,0.84940
175.01722,0.86873
174.77615,0.89059
174.53508,0.91589
174.29401,0.94371
174.05294,0.97101
173.81187,0.99596
173.57080,1.02013
173.32973,1.04488
173.08866,1.06719
172.84759,1.08113
172.60652,1.08385
172.36545,1.07904
172.12438,1.07332
171.88331,1.07081
171.64224,1.07208
171.40117,1.07549
171.16010,1.07877
170.91902,1.08092
170.67795,1.08160
170.43688,1.07822
170.19581,1.06811
169.95474,1.05420
169.71367,1.04239
169.47260,1.03399
169.23153,1.02532
168.99046,1.01428
168.74939,1.00372
168.50832,0.99667
168.26725,0.99254
168.02618,0.99037
167.78511,0.99127
167.54404,0.99531
167.30297,0.99937
167.06190,1.00048
166.82083,0.99896
166.57975,0.99730
166.33868,0.99825
166.09761,1.00353
165.85654,1.01281
165.61547,1.02469
165.37440,1.03887
165.13333,1.05552
164.89226,1.07197
164.65119,1.08414
164.41012,1.09204
164.16905,1.09938
163.92798,1.10819
163.68691,1.11784
163.44584,1.12977
163.20477,1.14811
162.96370,1.17318
162.72263,1.19723
162.48156,1.21036
162.24048,1.21032
161.99941,1.20229
161.75834,1.19161
161.51727,1.18223
161.27620,1.17744
161.03513,1.17895
160.79406,1.18734
160.55299,1.20269
160.31192,1.22133
160.07085,1.23286
159.82978,1.22685
159.58871,1.20582
159.34764,1.18378
159.10657,1.17189
158.86550,1.17120
158.62443,1.17574
158.38336,1.17801
158.14229,1.17338
157.90121,1.16180
157.66014,1.14627
157.41907,1.13104
157.17800,1.11940
156.93693,1.11238
156.69586,1.10895
156.45479,1.10527
156.21372,1.09630
155.97265,1.08109
155.73158,1.06453
155.49051,1.05253
155.24944,1.04716
155.00837,1.04455
154.76730,1.03738
154.52623,1.02210
154.28516,1.00169
154.04409,0.98079
153.80302,0.96217
153.56194,0.94550
153.32087,0.92679
153.07980,0.90291
152.83873,0.87556
152.59766,0.84916
152.35659,0.82769
152.11552,0.81216
151.87445,0.79897
151.63338,0.78221
151.39231,0.75969
151.15124,0.73559
150.91017,0.71606
150.66910,0.70293
150.42803,0.69239
150.18696,0.67898
149.94589,0.66074
149.70482,0.64121
149.46375,0.62591
149.22267,0.61706
148.98160,0.61142
148.74053,0.60388
148.49946,0.59302
148.25839,0.58237
148.01732,0.57604
147.77625,0.57459
147.53518,0.57464
147.29411,0.57230
147.05304,0.56739
146.81197,0.56358
146.57090,0.56411
146.32983,0.56849
146.08876,0.57341
145.84769,0.57645
145.60662,0.57886
145.36555,0.58388
145.12448,0.59275
144.88340,0.60317
144.64233,0.61180
144.40126,0.61763
144.16019,0.62208
143.91912,0.62605
143.67805,0.62768
143.43698,0.62408
143.19591,0.61520
142.95484,0.60414
142.71377,0.59356
142.47270,0.58400
142.23163,0.57489
141.99056,0.56560
141.74949,0.55585
141.50842,0.54625
141.26735,0.53822
141.02628,0.53310
140.78521,0.53039
140.54413,0.52772
140.30306,0.52433
140.06199,0.52319
139.82092,0.52725
139.57985,0.53508
139.33878,0.54256
139.09771,0.54781
138.85664,0.55231
138.61557,0.55799
138.37450,0.56505
138.13343,0.57296
137.89236,0.58284
137.65129,0.59688
137.41022,0.61524
137.16915,0.63542
136.92808,0.65590
136.68701,0.67841
136.44594,0.70513
136.20486,0.73513
135.96379,0.76601
135.72272,0.79769
135.48165,0.83097
135.24058,0.86416
134.99951,0.89557
134.75844,0.92728
134.51737,0.96249
134.27630,1.00143
134.03523,1.04136
133.79416,1.07772
133.55309,1.10902
133.31202,1.14198
133.07095,1.18152
132.82988,1.21736
132.58881,1.23641
132.34774,1.24297
132.10667,1.24649
131.86559,1.24497
131.62452,1.23442
131.38345,1.21830
131.14238,1.20183
130.90131,1.18790
130.66024,1.17429
130.41917,1.15074
130.17810,1.10831
129.93703,1.05189
129.69596,0.99366
129.45489,0.94085
129.21382,0.89538
128.97275,0.85665
128.73168,0.82137
128.49061,0.78564
128.24954,0.74918
128.00847,0.71519
127.76740,0.68584
127.52632,0.66023
127.28525,0.63604
127.04418,0.61148
126.80311,0.58637
126.56204,0.56303
126.32097,0.54451
126.07990,0.53091
125.83883,0.51872
125.59776,0.50452
125.35669,0.48838
125.11562,0.47319
124.87455,0.46169
124.63348,0.45417
124.39241,0.44894
124.15134,0.44457
123.91027,0.44088
123.66920,0.43767
123.42812,0.43433
123.18705,0.43081
122.94598,0.42770
122.70491,0.42555
122.46384,0.42484
122.22277,0.42590
121.98170,0.42839
121.74063,0.43164
121.49956,0.43536
121.25849,0.43942
121.01742,0.44345
120.77635,0.44779
120.53528,0.45430
120.29421,0.46535
120.05314,0.48173
119.81207,0.50209
119.57100,0.52466
119.32993,0.54909
119.08885,0.57664
118.84778,0.60883
118.60671,0.64619
118.36564,0.68732
118.12457,0.72849
117.88350,0.76483
117.64243,0.79316
117.40136,0.81219
117.16029,0.82060
116.91922,0.81839
116.67815,0.80904
116.43708,0.79863
116.19601,0.79067
115.95494,0.78222
115.71387,0.76873
115.47280,0.75044
115.23173,0.73261
114.99066,0.72036
114.74958,0.71363
114.50851,0.70740
114.26744,0.69743
114.02637,0.68478
113.78530,0.67318
113.54423,0.66432
113.30316,0.65783
113.06209,0.65462
112.82102,0.65781
112.57995,0.66982
112.33888,0.68919
112.09781,0.71150
111.85674,0.73326
111.61567,0.75293
111.37460,0.76799
111.13353,0.77535
110.89246,0.77407
110.65139,0.76512
110.41031,0.75219
110.16924,0.74224
109.92817,0.74109
109.68710,0.74661
109.44603,0.74807
109.20496,0.73474
108.96389,0.70496
108.72282,0.66538
108.48175,0.62378
108.24068,0.58599
107.99961,0.55708
107.75854,0.54010
107.51747,0.53251
107.27640,0.52639
107.03533,0.51412
106.79426,0.49390
106.55319,0.46919
106.31212,0.44446
106.07104,0.42299
105.82997,0.40719
105.58890,0.39848
105.34783,0.39541
105.10676,0.39299
104.86569,0.38599
104.62462,0.37327
104.38355,0.35782
104.14248,0.34392
103.90141,0.33512
103.66034,0.33188
103.41927,0.32955
103.17820,0.32203
102.93713,0.30917
102.69606,0.29743
102.45499,0.29249
102.21392,0.29418
101.97285,0.29782
101.73177,0.29813
101.49070,0.29265
101.24963,0.28354
101.00856,0.27577
100.76749,0.27323
100.52642,0.27578
100.28535,0.27875
100.04428,0.27689
99.80321,0.27013
99.56214,0.26370
99.32107,0.26198
99.08000,0.26394
98.83893,0.26411
98.59786,0.25877
98.35679,0.25093
98.11572,0.24664
97.87465,0.24847
97.63358,0.25389
97.39250,0.25785
97.15143,0.25830
96.91036,0.25932
96.66929,0.26653
96.42822,0.27997
96.18715,0.29272
95.94608,0.29908
95.70501,0.30235
95.46394,0.30908
95.22287,0.31942
94.98180,0.32710
94.74073,0.32890
94.49966,0.32953
94.25859,0.33385
94.01752,0.33969
93.77645,0.34109
93.53538,0.33841
93.29431,0.33852
93.05323,0.34360
92.81216,0.34707
92.57109,0.34494
92.33002,0.34303
92.08895,0.34597
91.84788,0.35004
91.60681,0.35252
91.36574,0.35978
91.12467,0.37745
90.88360,0.40093
90.64253,0.42344
90.40146,0.45031
90.16039,0.49236
89.91932,0.54787
89.67825,0.60530
89.43718,0.66134
89.19611,0.71634
88.95504,0.75932
88.71396,0.78341
88.47289,0.79142
88.23182,0.77487
87.99075,0.72790
87.74968,0.66687
87.50861,0.60834
87.26754,0.55504
87.02647,0.50637
86.78540,0.46427
86.54433,0.42868
86.30326,0.39794
86.06219,0.37124
85.82112,0.34726
85.58005,0.32429
85.33898,0.30276
85.09791,0.28424
84.85684,0.26881
84.61577,0.25509
84.37469,0.24205
84.13362,0.23007
83.89255,0.22051
83.65148,0.21351
83.41041,0.20693
83.16934,0.19892
82.92827,0.19055
82.68720,0.18476
82.44613,0.18308
82.20506,0.18440
81.96399,0.18614
81.72292,0.18628
81.48185,0.18460
81.24078,0.18236
80.99971,0.18095
80.75864,0.18078
80.51757,0.18141
80.27650,0.18193
80.03542,0.18099
79.79435,0.17775
79.55328,0.17340
79.31221,0.17006
79.07114,0.16850
78.83007,0.16837
78.58900,0.16921
78.34793,0.16979
78.10686,0.16836
77.86579,0.16464
77.62472,0.15970
77.38365,0.15426
77.14258,0.14901
76.90151,0.14568
76.66044,0.14587
76.41937,0.14910
76.17830,0.15289
75.93723,0.15449
75.69615,0.15233
75.45508,0.14688
75.21401,0.14083
74.97294,0.13760
74.73187,0.13906
74.49080,0.14420
74.24973,0.14994
74.00866,0.15362
73.76759,0.15484
73.52652,0.15463
73.28545,0.15386
73.04438,0.15356
72.80331,0.15542
72.56224,0.16038
72.32117,0.16656
72.08010,0.17003
71.83903,0.16860
71.59796,0.16402
71.35688,0.15976
71.11581,0.15841
70.87474,0.16133
70.63367,0.16902
70.39260,0.18140
70.15153,0.19880
69.91046,0.22229
69.66939,0.25104
69.42832,0.27933
69.18725,0.29758
68.94618,0.29816
68.70511,0.28087
68.46404,0.25266
68.22297,0.22311
67.98190,0.19892
67.74083,0.18156
67.49976,0.16979
67.25869,0.16216
67.01761,0.15649
66.77654,0.15021
66.53547,0.14277
66.29440,0.13591
66.05333,0.13130
65.81226,0.12976
65.57119,0.13203
65.33012,0.13855
65.08905,0.14862
64.84798,0.16076
64.60691,0.17380
64.36584,0.18709
64.12477,0.19917
63.88370,0.20698
63.64263,0.20770
63.40156,0.20165
63.16049,0.19262
62.91942,0.18506
62.67834,0.18058
62.43727,0.17732
62.19620,0.17246
61.95513,0.16499
61.71406,0.15626
61.47299,0.14812
61.23192,0.14076
60.99085,0.13249
60.74978,0.12276
60.50871,0.11426
60.26764,0.11054
60.02657,0.11197
59.78550,0.11561
59.54443,0.11897
59.30336,0.12279
59.06229,0.13029
58.82122,0.14437
58.58015,0.16463
58.33907,0.18606
58.09800,0.20145
57.85693,0.20600
57.61586,0.19910
57.37479,0.18239
57.13372,0.15822
56.89265,0.13073
56.65158,0.10650
56.41051,0.09218
56.16944,0.09123
55.92837,0.10336
55.68730,0.12603
55.44623,0.15536
55.20516,0.18461
54.96409,0.20099
54.72302,0.19161
54.48195,0.16116
54.24088,0.12769
53.99980,0.10600
53.75873,0.10437
53.51766,0.12512
53.27659,0.16399
53.03552,0.20434
52.79445,0.21419
52.55338,0.18171
52.31231,0.13640
52.07124,0.10551
51.83017,0.10116
51.58910,0.12637
51.34803,0.16968
51.10696,0.19333
50.86589,0.16737
50.62482,0.12605
50.38375,0.10919
50.14268,0.12854
49.90161,0.17617
49.66053,0.21032
49.41946,0.18261
49.17839,0.13447
48.93732,0.11984
48.69625,0.15023
48.45518,0.20010
48.21411,0.20760
47.97304,0.16337
47.73197,0.13462
47.49090,0.15021
47.24983,0.17848
47.00876,0.16112
46.76769,0.11796
46.52662,0.10790
46.28555,0.13312
46.04448,0.14580
45.80341,0.12589
45.56234,0.11621
45.32126,0.13749
45.08019,0.15789
44.83912,0.15717
44.59805,0.16394
44.35698,0.17949
44.11591,0.17421
43.87484,0.15614
43.63377,0.15491
43.39270,0.16377
43.15163,0.16431
42.91056,0.16097
42.66949,0.16167
42.42842,0.16520
42.18735,0.17379
41.94628,0.18470
41.70521,0.18465
41.46414,0.17225
41.22307,0.16113
40.98199,0.15929
40.74092,0.16537
40.49985,0.17537
40.25878,0.18683
40.01771,0.20120
39.77664,0.21745
39.53557,0.22469
39.29450,0.21457
39.05343,0.19546
38.81236,0.18364
38.57129,0.19095
38.33022,0.22154
38.08915,0.26659
37.84808,0.30136
37.60701,0.30438
37.36594,0.28354
37.12487,0.26518
36.88380,0.26282
36.64272,0.26802
36.40165,0.26593
36.16058,0.25318
35.91951,0.23992
35.67844,0.23915
35.43737,0.25116
35.19630,0.25806
34.95523,0.24654
34.71416,0.22706
34.47309,0.21653
34.23202,0.21951
33.99095,0.23050
33.74988,0.24344
33.50881,0.25023
33.26774,0.24299
33.02667,0.22684
32.78560,0.21865
32.54453,0.22467
32.30345,0.23064
32.06238,0.22283
31.82131,0.20717
31.58024,0.19628
31.33917,0.19341
31.09810,0.19623
30.85703,0.19949
30.61596,0.19617
30.37489,0.18082
30.13382,0.15446
29.89275,0.12985
29.65168,0.12433
29.41061,0.14011
29.16954,0.16053
28.92847,0.16999
28.68740,0.16367
28.44633,0.14646
28.20526,0.13190
27.96418,0.12891
27.72311,0.12849
27.48204,0.11350
27.24097,0.08025
26.99990,0.04013
26.75883,0.00483
26.51776,-0.02152
26.27669,-0.03865
26.03562,-0.04561
25.79455,-0.04533
25.55348,-0.04331
25.31241,-0.04039
25.07134,-0.03559
24.83027,-0.02833
24.58920,-0.01840
24.34813,-0.00915
24.10706,-0.00672
23.86599,-0.01077
23.62491,-0.01381
23.38384,-0.01551
23.14277,-0.02489
22.90170,-0.04460
22.66063,-0.06522
22.41956,-0.07985
22.17849,-0.09466
21.93742,-0.11851
21.69635,-0.14496
21.45528,-0.15744
21.21421,-0.15072
20.97314,-0.13705
20.73207,-0.12920
20.49100,-0.13218
20.24993,-0.15161
20.00886,-0.18335
19.76779,-0.20543
19.52672,-0.20480
19.28564,-0.19957
19.04457,-0.21414
18.80350,-0.24043
18.56243,-0.24270
18.32136,-0.21575
18.08029,-0.19420
17.83922,-0.19762
17.59815,-0.21502
17.35708,-0.22359
17.11601,-0.20812
16.87494,-0.18498
16.63387,-0.18538
16.39280,-0.21450
16.15173,-0.24872
15.91066,-0.27097
15.66959,-0.29116
15.42852,-0.31448
15.18745,-0.31337
14.94637,-0.27426
14.70530,-0.23470
14.46423,-0.23371
14.22316,-0.26423
13.98209,-0.27867
13.74102,-0.25785
13.49995,-0.23364
13.25888,-0.23378
13.01781,-0.26038
12.77674,-0.28969
12.53567,-0.29006
12.29460,-0.27810
12.05353,-0.28238
11.81246,-0.28166
11.57139,-0.26582
11.33032,-0.26765
11.08925,-0.30054
10.84818,-0.34136
10.60710,-0.36242
10.36603,-0.35438
10.12496,-0.33020
9.88389,-0.32198
9.64282,-0.30939
9.40175,-0.29848
9.16068,-0.30774
8.91961,-0.31458
8.67854,-0.31289
8.43747,-0.31897
8.19640,-0.33686
7.95533,-0.35282
7.71426,-0.35747
7.47319,-0.34755
7.23212,-0.31875
6.99105,-0.29015
6.74998,-0.29315
6.50891,-0.32956
6.26783,-0.37023
6.02676,-0.38634
5.78569,-0.37636
5.54462,-0.37334
5.30355,-0.38650
5.06248,-0.38715
4.82141,-0.37229
4.58034,-0.35717
4.33927,-0.35667
4.09820,-0.36619
3.85713,-0.38059
3.61606,-0.37807
3.37499,-0.33834
3.13392,-0.30722
2.89285,-0.29746
2.65178,-0.29753
2.41071,-0.29869
2.16964,-0.30430
1.92856,-0.30513
1.68749,-0.30094
1.44642,-0.30894
1.20535,-0.33370
0.96428,-0.36422
0.72321,-0.40795
0.48214,-0.46673
0.24107,-0.42278
-0.00000,-0.03676
