399.69498,1.46017
399.45391,1.48022
399.21284,1.48983
398.97177,1.47965
398.73070,1.46076
398.48963,1.45052
398.24856,1.45154
398.00749,1.45593
397.76642,1.45949
397.52535,1.46357
397.28428,1.46932
397.04321,1.47559
396.80214,1.48005
396.56107,1.48370
396.32000,1.48994
396.07892,1.49519
395.83785,1.49224
395.59678,1.48717
395.35571,1.49491
395.11464,1.51706
394.87357,1.53832
394.63250,1.54458
394.39143,1.53851
394.15036,1.53016
393.90929,1.52498
393.66822,1.52524
393.42715,1.52894
393.18608,1.53083
392.94501,1.52922
392.70394,1.52635
392.46287,1.52260
392.22180,1.51462
391.98073,1.50372
391.73965,1.49472
391.49858,1.49168
391.25751,1.49882
391.01644,1.50993
390.77537,1.51048
390.53430,1.49513
390.29323,1.47139
390.05216,1.44835
389.81109,1.42895
389.57002,1.41638
389.32895,1.41883
389.08788,1.43989
388.84681,1.47358
388.60574,1.50732
388.36467,1.52037
388.12360,1.49877
387.88253,1.46040
387.64146,1.43667
387.40038,1.43606
387.15931,1.44305
386.91824,1.44469
386.67717,1.44137
386.43610,1.43283
386.19503,1.41810
385.95396,1.40509
385.71289,1.39981
385.47182,1.39694
385.23075,1.39015
384.98968,1.38291
384.74861,1.38059
384.50754,1.37795
384.26647,1.36507
384.02540,1.34197
383.78433,1.31546
383.54326,1.28951
383.30219,1.26996
383.06111,1.26711
382.82004,1.28204
382.57897,1.29962
382.33790,1.30278
382.09683,1.28996
381.85576,1.27391
381.61469,1.26389
381.37362,1.25885
381.13255,1.25361
380.89148,1.24469
380.65041,1.23635
380.40934,1.23923
380.16827,1.25785
379.92720,1.28949
379.68613,1.32686
379.44506,1.35098
379.20399,1.34427
378.96292,1.31518
378.72184,1.28624
378.48077,1.27376
378.23970,1.28035
377.99863,1.29464
377.75756,1.30584
377.51649,1.31790
377.27542,1.34031
377.03435,1.36946
376.79328,1.39079
376.55221,1.39477
376.31114,1.38558
376.07007,1.37557
375.82900,1.37299
375.58793,1.37820
375.34686,1.38796
375.10579,1.39886
374.86472,1.40651
374.62365,1.40631
374.38257,1.39931
374.14150,1.39079
373.90043,1.38294
373.65936,1.37448
373.41829,1.36509
373.17722,1.35604
372.93615,1.34731
372.69508,1.33785
372.45401,1.32832
372.21294,1.32051
371.97187,1.31621
371.73080,1.31934
371.48973,1.33186
371.24866,1.34437
371.00759,1.34080
370.76652,1.31801
370.52545,1.29061
370.28437,1.27247
370.04330,1.26408
369.80223,1.25804
369.56116,1.25117
369.32009,1.24505
369.07902,1.23818
368.83795,1.22834
368.59688,1.21901
368.35581,1.21399
368.11474,1.21133
367.87367,1.20943
367.63260,1.21127
367.39153,1.21751
367.15046,1.22256
366.90939,1.22020
366.66832,1.21021
366.42725,1.19961
366.18618,1.19512
365.94510,1.19570
365.70403,1.19699
365.46296,1.19846
365.22189,1.20129
364.98082,1.20426
364.73975,1.20556
364.49868,1.20397
364.25761,1.19736
364.01654,1.18545
363.77547,1.17272
363.53440,1.16448
363.29333,1.16054
363.05226,1.15604
362.81119,1.14966
362.57012,1.14688
362.32905,1.15183
362.08798,1.15985
361.84691,1.16301
361.60583,1.16048
361.36476,1.15658
361.12369,1.15361
360.88262,1.15336
360.64155,1.15863
360.40048,1.16733
360.15941,1.17130
359.91834,1.16636
359.67727,1.15774
359.43620,1.15182
359.19513,1.14903
358.95406,1.14622
358.71299,1.14130
358.47192,1.13572
358.23085,1.13357
357.98978,1.13822
357.74871,1.14976
357.50764,1.16377
357.26656,1.17246
357.02549,1.17068
356.78442,1.16118
356.54335,1.15085
356.30228,1.14530
356.06121,1.14630
355.82014,1.15104
355.57907,1.15296
355.33800,1.14730
355.09693,1.13613
354.85586,1.12508
354.61479,1.11748
354.37372,1.11498
354.13265,1.11877
353.89158,1.12669
353.65051,1.13476
353.40944,1.14250
353.16837,1.15103
352.92729,1.15766
352.68622,1.15804
352.44515,1.15159
352.20408,1.14254
351.96301,1.13639
351.72194,1.13531
351.48087,1.13752
351.23980,1.14218
350.99873,1.15092
350.75766,1.16108
350.51659,1.16512
350.27552,1.16122
350.03445,1.15621
349.79338,1.15557
349.55231,1.15921
349.31124,1.16583
349.07017,1.17309
348.82910,1.17546
348.58802,1.17098
348.34695,1.16614
348.10588,1.16630
347.86481,1.16884
347.62374,1.17065
347.38267,1.17512
347.14160,1.18563
346.90053,1.19815
346.65946,1.20528
346.41839,1.20362
346.17732,1.19656
345.93625,1.19179
345.69518,1.19511
345.45411,1.20474
345.21304,1.21122
344.97197,1.20858
344.73090,1.20344
344.48983,1.20523
344.24875,1.21276
344.00768,1.21774
343.76661,1.21827
343.52554,1.22149
343.28447,1.23373
343.04340,1.25305
342.80233,1.27162
342.56126,1.28251
342.32019,1.28317
342.07912,1.27552
341.83805,1.26497
341.59698,1.25813
341.35591,1.25742
341.11484,1.25998
340.87377,1.26466
340.63270,1.27527
340.39163,1.29224
340.15056,1.30655
339.90948,1.30804
339.66841,1.30066
339.42734,1.29973
339.18627,1.31147
338.94520,1.32749
338.70413,1.33771
338.46306,1.34152
338.22199,1.34731
337.98092,1.36151
337.73985,1.37854
337.49878,1.38749
337.25771,1.38568
337.01664,1.37983
336.77557,1.38057
336.53450,1.39158
336.29343,1.40475
336.05236,1.41029
335.81129,1.40746
335.57021,1.40244
335.32914,1.39803
335.08807,1.38941
334.84700,1.37082
334.60593,1.34694
334.36486,1.33166
334.12379,1.33363
333.88272,1.34633
333.64165,1.35337
333.40058,1.34500
333.15951,1.32681
332.91844,1.31184
332.67737,1.30875
332.43630,1.31669
332.19523,1.32682
331.95416,1.33058
331.71309,1.32581
331.47202,1.31174
331.23094,1.28872
330.98987,1.26626
330.74880,1.25871
330.50773,1.26955
330.26666,1.28478
330.02559,1.28858
329.78452,1.28557
329.54345,1.29184
329.30238,1.30839
329.06131,1.31861
328.82024,1.31261
328.57917,1.29976
328.33810,1.29100
328.09703,1.28686
327.85596,1.28295
327.61489,1.27594
327.37382,1.26677
327.13275,1.26296
326.89167,1.27120
326.65060,1.28493
326.40953,1.28821
326.16846,1.27638
325.92739,1.26167
325.68632,1.25276
325.44525,1.24648
325.20418,1.24232
324.96311,1.24854
324.72204,1.26751
324.48097,1.28833
324.23990,1.30081
323.99883,1.30583
323.75776,1.30637
323.51669,1.30174
323.27562,1.29540
323.03455,1.29321
322.79348,1.29318
322.55240,1.29035
322.31133,1.28685
322.07026,1.29262
321.82919,1.31688
321.58812,1.35026
321.34705,1.36481
321.10598,1.35830
320.86491,1.35111
320.62384,1.34749
320.38277,1.33958
320.14170,1.32891
319.90063,1.32895
319.65956,1.33957
319.41849,1.34001
319.17742,1.31991
318.93635,1.30041
318.69528,1.29477
318.45421,1.29192
318.21313,1.28535
317.97206,1.28628
317.73099,1.30482
317.48992,1.33097
317.24885,1.34226
317.00778,1.33401
316.76671,1.32507
316.52564,1.32852
316.28457,1.33422
316.04350,1.32645
315.80243,1.31079
315.56136,1.30406
315.32029,1.31235
315.07922,1.32956
314.83815,1.34538
314.59708,1.34731
314.35601,1.32894
314.11494,1.30475
313.87386,1.29234
313.63279,1.29388
313.39172,1.30406
313.15065,1.31996
312.90958,1.33806
312.66851,1.35196
312.42744,1.35741
312.18637,1.35996
311.94530,1.36935
311.70423,1.38145
311.46316,1.38203
311.22209,1.37176
310.98102,1.36720
310.73995,1.37645
310.49888,1.39059
310.25781,1.39927
310.01674,1.40154
309.77567,1.40006
309.53459,1.39698
309.29352,1.39402
309.05245,1.39244
308.81138,1.39469
308.57031,1.40156
308.32924,1.40699
308.08817,1.40392
307.84710,1.39539
307.60603,1.39220
307.36496,1.39923
307.12389,1.40898
306.88282,1.41113
306.64175,1.40329
306.40068,1.39245
306.15961,1.38639
305.91854,1.38693
305.67747,1.39608
305.43640,1.41399
305.19532,1.42848
304.95425,1.42390
304.71318,1.40275
304.47211,1.38369
304.23104,1.37525
303.98997,1.36973
303.74890,1.36237
303.50783,1.35656
303.26676,1.35354
303.02569,1.34927
302.78462,1.34089
302.54355,1.33435
302.30248,1.33332
302.06141,1.33175
301.82034,1.32369
301.57927,1.30983
301.33820,1.29539
301.09713,1.28437
300.85605,1.27867
300.61498,1.27902
300.37391,1.28240
300.13284,1.28157
299.89177,1.27196
299.65070,1.25811
299.40963,1.24833
299.16856,1.24510
298.92749,1.24464
298.68642,1.24169
298.44535,1.23160
298.20428,1.21403
297.96321,1.19683
297.72214,1.19056
297.48107,1.19681
297.24000,1.20490
296.99893,1.20387
296.75786,1.19451
296.51678,1.18388
296.27571,1.17395
296.03464,1.16220
295.79357,1.14914
295.55250,1.13891
295.31143,1.13369
295.07036,1.13199
294.82929,1.13130
294.58822,1.12981
294.34715,1.12702
294.10608,1.12369
293.86501,1.12085
293.62394,1.11935
293.38287,1.11839
293.14180,1.11568
292.90073,1.11080
292.65966,1.10628
292.41859,1.10371
292.17751,1.10237
291.93644,1.10199
291.69537,1.10271
291.45430,1.10292
291.21323,1.10123
290.97216,1.09945
290.73109,1.09942
290.49002,1.09879
290.24895,1.09529
290.00788,1.09126
289.76681,1.08892
289.52574,1.08598
289.28467,1.08060
289.04360,1.07580
288.80253,1.07471
288.56146,1.07626
288.32039,1.07862
288.07932,1.08064
287.83824,1.07885
287.59717,1.07094
287.35610,1.06161
287.11503,1.05698
286.87396,1.05614
286.63289,1.05409
286.39182,1.05029
286.15075,1.04913
285.90968,1.05227
285.66861,1.05534
285.42754,1.05406
285.18647,1.05033
284.94540,1.04921
284.70433,1.05270
284.46326,1.05866
284.22219,1.06345
283.98112,1.06489
283.74005,1.06430
283.49897,1.06430
283.25790,1.06394
283.01683,1.05986
282.77576,1.05325
282.53469,1.05029
282.29362,1.05404
282.05255,1.06019
281.81148,1.06228
281.57041,1.05881
281.32934,1.05295
281.08827,1.04791
280.84720,1.04571
280.60613,1.04790
280.36506,1.05344
280.12399,1.05696
279.88292,1.05351
279.64185,1.04490
279.40078,1.03798
279.15970,1.03759
278.91863,1.04294
278.67756,1.05017
278.43649,1.05602
278.19542,1.05810
277.95435,1.05492
277.71328,1.04814
277.47221,1.04198
277.23114,1.03956
276.99007,1.04134
276.74900,1.04564
276.50793,1.04896
276.26686,1.04808
276.02579,1.04426
275.78472,1.04321
275.54365,1.04878
275.30258,1.05835
275.06151,1.06582
274.82043,1.06802
274.57936,1.06665
274.33829,1.06533
274.09722,1.06660
273.85615,1.07041
273.61508,1.07429
273.37401,1.07564
273.13294,1.07412
272.89187,1.07194
272.65080,1.07208
272.40973,1.07548
272.16866,1.08003
271.92759,1.08301
271.68652,1.08469
271.44545,1.08817
271.20438,1.09554
270.96331,1.10618
270.72224,1.11775
270.48116,1.12630
270.24009,1.12801
269.99902,1.12295
269.75795,1.11605
269.51688,1.11346
269.27581,1.11728
269.03474,1.12408
268.79367,1.12973
268.55260,1.13383
268.31153,1.13776
268.07046,1.14068
267.82939,1.14110
267.58832,1.14151
267.34725,1.14675
267.10618,1.15826
266.86511,1.17211
266.62404,1.18386
266.38297,1.19328
266.14189,1.20218
265.90082,1.21007
265.65975,1.21508
265.41868,1.21831
265.17761,1.22361
264.93654,1.23300
264.69547,1.24466
264.45440,1.25610
264.21333,1.26821
263.97226,1.28500
263.73119,1.30828
263.49012,1.33367
263.24905,1.35467
263.00798,1.36910
262.76691,1.38042
262.52584,1.39332
262.28477,1.40785
262.04370,1.41969
261.80262,1.42603
261.56155,1.43000
261.32048,1.43816
261.07941,1.45313
260.83834,1.47140
260.59727,1.48819
260.35620,1.50458
260.11513,1.52938
259.87406,1.57039
259.63299,1.62158
259.39192,1.66621
259.15085,1.69482
258.90978,1.71683
258.66871,1.75186
258.42764,1.80601
258.18657,1.85877
257.94550,1.89176
257.70443,1.90303
257.46335,1.88272
257.22228,1.84032
256.98121,1.80699
256.74014,1.79749
256.49907,1.79850
256.25800,1.79138
256.01693,1.77330
255.77586,1.75026
255.53479,1.72826
255.29372,1.71757
255.05265,1.72504
254.81158,1.73934
254.57051,1.73579
254.32944,1.70700
254.08837,1.67432
253.84730,1.65799
253.60623,1.65381
253.36516,1.64574
253.12408,1.62804
252.88301,1.60610
252.64194,1.58422
252.40087,1.56497
252.15980,1.55382
251.91873,1.55207
251.67766,1.55251
251.43659,1.54906
251.19552,1.54448
250.95445,1.54310
250.71338,1.54547
250.47231,1.55246
250.23124,1.56372
249.99017,1.57292
249.74910,1.57337
249.50803,1.56604
249.26696,1.55825
249.02589,1.55469
248.78481,1.55408
248.54374,1.55404
248.30267,1.55443
248.06160,1.55630
247.82053,1.55960
247.57946,1.56331
247.33839,1.56683
247.09732,1.57106
246.85625,1.57952
246.61518,1.59370
246.37411,1.60650
246.13304,1.61040
245.89197,1.60945
245.65090,1.61320
245.40983,1.62680
245.16876,1.64933
244.92769,1.67629
244.68661,1.70409
244.44554,1.73383
244.20447,1.76611
243.96340,1.80453
243.72233,1.85471
243.48126,1.90640
243.24019,1.94655
242.99912,1.96564
242.75805,1.97155
242.51698,1.96524
242.27591,1.83801
242.03484,1.71148
241.79377,1.59195
241.55270,1.48009
241.31163,1.38965
241.07056,1.32372
240.82949,1.27586
240.58842,1.23694
240.34734,1.20098
240.10627,1.16693
239.86520,1.13571
239.62413,1.10706
239.38306,1.07947
239.14199,1.05149
238.90092,1.02322
238.65985,0.99682
238.41878,0.97415
238.17771,0.95406
237.93664,0.93416
237.69557,0.91520
237.45450,0.90043
237.21343,0.89010
236.97236,0.88007
236.73129,0.86718
236.49022,0.85305
236.24915,0.84106
236.00807,0.83200
235.76700,0.82378
235.52593,0.81457
235.28486,0.80544
235.04379,0.79901
234.80272,0.79554
234.56165,0.79222
234.32058,0.78787
234.07951,0.78547
233.83844,0.78747
233.59737,0.79124
233.35630,0.79238
233.11523,0.79070
232.87416,0.78846
232.63309,0.78555
232.39202,0.78068
232.15095,0.77489
231.90988,0.77048
231.66880,0.76855
231.42773,0.76886
231.18666,0.76984
230.94559,0.76872
230.70452,0.76474
230.46345,0.76024
230.22238,0.75669
229.98131,0.75300
229.74024,0.74926
229.49917,0.74747
229.25810,0.74770
229.01703,0.74822
228.77596,0.74968
228.53489,0.75423
228.29382,0.76113
228.05275,0.76708
227.81168,0.77018
227.57061,0.77016
227.32953,0.76657
227.08846,0.76054
226.84739,0.75545
226.60632,0.75321
226.36525,0.75239
226.12418,0.75109
225.88311,0.74975
225.64204,0.74977
225.40097,0.75143
225.15990,0.75458
224.91883,0.75904
224.67776,0.76346
224.43669,0.76615
224.19562,0.76755
223.95455,0.76993
223.71348,0.77441
223.47241,0.77993
223.23134,0.78488
222.99026,0.78863
222.74919,0.79183
222.50812,0.79569
222.26705,0.80089
222.02598,0.80766
221.78491,0.81592
221.54384,0.82435
221.30277,0.83135
221.06170,0.83816
220.82063,0.84749
220.57956,0.85857
220.33849,0.86781
220.09742,0.87451
219.85635,0.88118
219.61528,0.88942
219.37421,0.89958
219.13314,0.91145
218.89207,0.92303
218.65099,0.93235
218.40992,0.94101
218.16885,0.95228
217.92778,0.96663
217.68671,0.98260
217.44564,1.00035
217.20457,1.02124
216.96350,1.04476
216.72243,1.06754
216.48136,1.08503
216.24029,1.09505
215.99922,1.10024
215.75815,1.10601
215.51708,1.11529
215.27601,1.12808
215.03494,1.14643
214.79387,1.17361
214.55280,1.20570
214.31172,1.22993
214.07065,1.23634
213.82958,1.22909
213.58851,1.22376
213.34744,1.23473
213.10637,1.26400
212.86530,1.29947
212.62423,1.32480
212.38316,1.33229
212.14209,1.32365
211.90102,1.30547
211.65995,1.28831
211.41888,1.27972
211.17781,1.27995
210.93674,1.28883
210.69567,1.30733
210.45460,1.32886
210.21353,1.34094
209.97245,1.33817
209.73138,1.32397
209.49031,1.30524
209.24924,1.29233
209.00817,1.29320
208.76710,1.30396
208.52603,1.31198
208.28496,1.30900
208.04389,1.29821
207.80282,1.28845
207.56175,1.28392
207.32068,1.28190
207.07961,1.27673
206.83854,1.26440
206.59747,1.24686
206.35640,1.23123
206.11533,1.22178
205.87426,1.21429
205.63318,1.20070
205.39211,1.17934
205.15104,1.15614
204.90997,1.13622
204.66890,1.11913
204.42783,1.10220
204.18676,1.08465
203.94569,1.06646
203.70462,1.04740
203.46355,1.02993
203.22248,1.01926
202.98141,1.01656
202.74034,1.01412
202.49927,1.00149
202.25820,0.97708
202.01713,0.94863
201.77606,0.92474
201.53499,0.90899
201.29391,0.89877
201.05284,0.88818
200.81177,0.87290
200.57070,0.85345
200.32963,0.83438
200.08856,0.81998
199.84749,0.81115
199.60642,0.80486
199.36535,0.79618
199.12428,0.78355
198.88321,0.77053
198.64214,0.76096
198.40107,0.75476
198.16000,0.74927
197.91893,0.74215
197.67786,0.73213
197.43679,0.71974
197.19572,0.70779
196.95464,0.69847
196.71357,0.69042
196.47250,0.68076
196.23143,0.66950
195.99036,0.65956
195.74929,0.65300
195.50822,0.64885
195.26715,0.64392
195.02608,0.63566
194.78501,0.62507
194.54394,0.61604
194.30287,0.61118
194.06180,0.60916
193.82073,0.60623
193.57966,0.60036
193.33859,0.59326
193.09752,0.58805
192.85645,0.58545
192.61537,0.58318
192.37430,0.57928
192.13323,0.57500
191.89216,0.57279
191.65109,0.57237
191.41002,0.57056
191.16895,0.56528
190.92788,0.55859
190.68681,0.55429
190.44574,0.55297
190.20467,0.55156
189.96360,0.54763
189.72253,0.54239
189.48146,0.53867
189.24039,0.53756
188.99932,0.53772
188.75825,0.53743
188.51718,0.53687
188.27610,0.53717
188.03503,0.53735
187.79396,0.53530
187.55289,0.53201
187.31182,0.53104
187.07075,0.53336
186.82968,0.53586
186.58861,0.53535
186.34754,0.53258
186.10647,0.53121
185.86540,0.53337
185.62433,0.53687
185.38326,0.53790
185.14219,0.53625
184.90112,0.53506
184.66005,0.53575
184.41898,0.53702
184.17791,0.53867
183.93683,0.54235
183.69576,0.54761
183.45469,0.55122
183.21362,0.55217
182.97255,0.55293
182.73148,0.55418
182.49041,0.55390
182.24934,0.55298
182.00827,0.55549
181.76720,0.56164
181.52613,0.56655
181.28506,0.56748
181.04399,0.56718
180.80292,0.56820
180.56185,0.56961
180.32078,0.57067
180.07971,0.57277
179.83864,0.57620
179.59756,0.57949
179.35649,0.58286
179.11542,0.58864
178.87435,0.59788
178.63328,0.60925
178.39221,0.62066
178.15114,0.63082
177.91007,0.64006
177.66900,0.65001
177.42793,0.66166
177.18686,0.67484
176.94579,0.68933
176.70472,0.70483
176.46365,0.72095
176.22258,0.73846
175.98151,0.75805
175.74044,0.77834
175.49937,0.79850
175.25829,0.82056
175.01722,0.84570
174.77615,0.87217
174.53508,0.89836
174.29401,0.92320
174.05294,0.94437
173.81187,0.96124
173.57080,0.97666
173.32973,0.99189
173.08866,1.00414
172.84759,1.01174
172.60652,1.01719
172.36545,1.02338
172.12438,1.02940
171.88331,1.03128
171.64224,1.02735
171.40117,1.02148
171.16010,1.01920
170.91902,1.02193
170.67795,1.02629
170.43688,1.02785
170.19581,1.02523
169.95474,1.01976
169.71367,1.01196
169.47260,1.00066
169.23153,0.98542
168.99046,0.96844
168.74939,0.95417
168.50832,0.94625
168.26725,0.94444
168.02618,0.94617
167.78511,0.95028
167.54404,0.95606
167.30297,0.96034
167.06190,0.96045
166.82083,0.95861
166.57975,0.95861
166.33868,0.96063
166.09761,0.96341
165.85654,0.96821
165.61547,0.97654
165.37440,0.98685
165.13333,0.99647
164.89226,1.00526
164.65119,1.01587
164.41012,1.03041
164.16905,1.04759
163.92798,1.06360
163.68691,1.07570
163.44584,1.08372
163.20477,1.08976
162.96370,1.09786
162.72263,1.11166
162.48156,1.13096
162.24048,1.15079
161.99941,1.16497
161.75834,1.17067
161.51727,1.16896
161.27620,1.16243
161.03513,1.15414
160.79406,1.14778
160.55299,1.14629
160.31192,1.15009
160.07085,1.15730
159.82978,1.16390
159.58871,1.16350
159.34764,1.15152
159.10657,1.13175
158.86550,1.11355
158.62443,1.10201
158.38336,1.09591
158.14229,1.09431
157.90121,1.09870
157.66014,1.10568
157.41907,1.10525
157.17800,1.09268
156.93693,1.07496
156.69586,1.06097
156.45479,1.05358
156.21372,1.05191
155.97265,1.05410
155.73158,1.05662
155.49051,1.05474
155.24944,1.04445
155.00837,1.02437
154.76730,0.99802
154.52623,0.97315
154.28516,0.95543
154.04409,0.94351
153.80302,0.93149
153.56194,0.91520
153.32087,0.89423
153.07980,0.86968
152.83873,0.84413
152.59766,0.82222
152.35659,0.80743
152.11552,0.79751
151.87445,0.78541
151.63338,0.76582
151.39231,0.74043
151.15124,0.71571
150.91017,0.69670
150.66910,0.68382
150.42803,0.67330
150.18696,0.66008
149.94589,0.64242
149.70482,0.62387
149.46375,0.60935
149.22267,0.60043
148.98160,0.59452
148.74053,0.58812
148.49946,0.58021
148.25839,0.57233
148.01732,0.56596
147.77625,0.56140
147.53518,0.55866
147.29411,0.55753
147.05304,0.55696
146.81197,0.55602
146.57090,0.55544
146.32983,0.55679
146.08876,0.56016
145.84769,0.56415
145.60662,0.56822
145.36555,0.57358
145.12448,0.58137
144.88340,0.59055
144.64233,0.59860
144.40126,0.60440
144.16019,0.60896
143.91912,0.61262
143.67805,0.61332
143.43698,0.60892
143.19591,0.60080
142.95484,0.59281
142.71377,0.58632
142.47270,0.57844
142.23163,0.56667
141.99056,0.55323
141.74949,0.54239
141.50842,0.53544
141.26735,0.53051
141.02628,0.52567
140.78521,0.52071
140.54413,0.51650
140.30306,0.51422
140.06199,0.51451
139.82092,0.51707
139.57985,0.52136
139.33878,0.52710
139.09771,0.53351
138.85664,0.53953
138.61557,0.54555
138.37450,0.55352
138.13343,0.56442
137.89236,0.57714
137.65129,0.59083
137.41022,0.60629
137.16915,0.62410
136.92808,0.64359
136.68701,0.66467
136.44594,0.68840
136.20486,0.71432
135.96379,0.73996
135.72272,0.76506
135.48165,0.79333
135.24058,0.82712
134.99951,0.86391
134.75844,0.90026
134.51737,0.93516
134.27630,0.96894
134.03523,1.00237
133.79416,1.03605
133.55309,1.06981
133.31202,1.10456
133.07095,1.14252
132.82988,1.18157
132.58881,1.21305
132.34774,1.22990
132.10667,1.23430
131.86559,1.23353
131.62452,1.23105
131.38345,1.22263
131.14238,1.20167
130.90131,1.16934
130.66024,1.13250
130.41917,1.09380
130.17810,1.05310
129.93703,1.01250
129.69596,0.97310
129.45489,0.93278
129.21382,0.89010
128.97275,0.84593
128.73168,0.80251
128.49061,0.76337
128.24954,0.73057
128.00847,0.70158
127.76740,0.67292
127.52632,0.64582
127.28525,0.62397
127.04418,0.60707
126.80311,0.59055
126.56204,0.57110
126.32097,0.54981
126.07990,0.52999
125.83883,0.51380
125.59776,0.50063
125.35669,0.48794
125.11562,0.47458
124.87455,0.46247
124.63348,0.45368
124.39241,0.44719
124.15134,0.44050
123.91027,0.43318
123.66920,0.42690
123.42812,0.42255
123.18705,0.41926
122.94598,0.41646
122.70491,0.41547
122.46384,0.41786
122.22277,0.42272
121.98170,0.42717
121.74063,0.42965
121.49956,0.43119
121.25849,0.43327
121.01742,0.43677
120.77635,0.44304
120.53528,0.45362
120.29421,0.46833
120.05314,0.48555
119.81207,0.50381
119.57100,0.52222
119.32993,0.54080
119.08885,0.56174
118.84778,0.58823
118.60671,0.62100
118.36564,0.65748
118.12457,0.69453
117.88350,0.73010
117.64243,0.76226
117.40136,0.78888
117.16029,0.80860
116.91922,0.82019
116.67815,0.82276
116.43708,0.81702
116.19601,0.80455
115.95494,0.78697
115.71387,0.76670
115.47280,0.74678
115.23173,0.72927
114.99066,0.71431
114.74958,0.70111
114.50851,0.69009
114.26744,0.68339
114.02637,0.68238
113.78530,0.68522
113.54423,0.68742
113.30316,0.68572
113.06209,0.68143
112.82102,0.67808
112.57995,0.67706
112.33888,0.67767
112.09781,0.68003
111.85674,0.68604
111.61567,0.69788
111.37460,0.71623
111.13353,0.73907
110.89246,0.76143
110.65139,0.77789
110.41031,0.78550
110.16924,0.78212
109.92817,0.76574
109.68710,0.73803
109.44603,0.70528
109.20496,0.67465
108.96389,0.65000
108.72282,0.63140
108.48175,0.61736
108.24068,0.60501
107.99961,0.58864
107.75854,0.56275
107.51747,0.52939
107.27640,0.49839
107.03533,0.47793
106.79426,0.46778
106.55319,0.46186
106.31212,0.45517
106.07104,0.44669
105.82997,0.43613
105.58890,0.42175
105.34783,0.40338
105.10676,0.38412
104.86569,0.36795
104.62462,0.35737
104.38355,0.35271
104.14248,0.35160
103.90141,0.34977
103.66034,0.34354
103.41927,0.33219
103.17820,0.31840
102.93713,0.30690
102.69606,0.30165
102.45499,0.30296
102.21392,0.30683
101.97285,0.30772
101.73177,0.30265
101.49070,0.29307
101.24963,0.28334
101.00856,0.27741
100.76749,0.27676
100.52642,0.27926
100.28535,0.27974
100.04428,0.27446
99.80321,0.26537
99.56214,0.25827
99.32107,0.25800
99.08000,0.26450
98.83893,0.27095
98.59786,0.26926
98.35679,0.26022
98.11572,0.25240
97.87465,0.25140
97.63358,0.25571
97.39250,0.26008
97.15143,0.26083
96.91036,0.26008
96.66929,0.26373
96.42822,0.27408
96.18715,0.28557
95.94608,0.29117
95.70501,0.29331
95.46394,0.30113
95.22287,0.31779
94.98180,0.33522
94.74073,0.34260
94.49966,0.34025
94.25859,0.33847
94.01752,0.34358
93.77645,0.35041
93.53538,0.34991
93.29431,0.34402
93.05323,0.34308
92.81216,0.34874
92.57109,0.35151
92.33002,0.34803
92.08895,0.34791
91.84788,0.35664
91.60681,0.36661
91.36574,0.37187
91.12467,0.38084
90.88360,0.40132
90.64253,0.42695
90.40146,0.45117
90.16039,0.48315
89.91932,0.53217
89.67825,0.59169
89.43718,0.65049
89.19611,0.70319
88.95504,0.73968
88.71396,0.75200
88.47289,0.74927
88.23182,0.73923
87.99075,0.71504
87.74968,0.67085
87.50861,0.61269
87.26754,0.55210
87.02647,0.49871
86.78540,0.45669
86.54433,0.42443
86.30326,0.39754
86.06219,0.37225
85.82112,0.34658
85.58005,0.32122
85.33898,0.29896
85.09791,0.28138
84.85684,0.26745
84.61577,0.25514
84.37469,0.24280
84.13362,0.23011
83.89255,0.21937
83.65148,0.21354
83.41041,0.21218
83.16934,0.21123
82.92827,0.20756
82.68720,0.20212
82.44613,0.19797
82.20506,0.19667
81.96399,0.19725
81.72292,0.19760
81.48185,0.19611
81.24078,0.19284
80.99971,0.18965
80.75864,0.18848
80.51757,0.18932
80.27650,0.19054
80.03542,0.19066
79.79435,0.18934
79.55328,0.18697
79.31221,0.18410
79.07114,0.18127
78.83007,0.17903
78.58900,0.17753
78.34793,0.17616
78.10686,0.17426
77.86579,0.17191
77.62472,0.16921
77.38365,0.16585
77.14258,0.16215
76.90151,0.15946
76.66044,0.15854
76.41937,0.15859
76.17830,0.15882
75.93723,0.15972
75.69615,0.16152
75.45508,0.16257
75.21401,0.16116
74.97294,0.15826
74.73187,0.15653
74.49080,0.15699
74.24973,0.15839
74.00866,0.15963
73.76759,0.16090
73.52652,0.16194
73.28545,0.16139
73.04438,0.15915
72.80331,0.15750
72.56224,0.15882
72.32117,0.16325
72.08010,0.16908
71.83903,0.17410
71.59796,0.17670
71.35688,0.17652
71.11581,0.17469
70.87474,0.17330
70.63367,0.17519
70.39260,0.18368
70.15153,0.20087
69.91046,0.22580
69.66939,0.25506
69.42832,0.28333
69.18725,0.30234
68.94618,0.30381
68.70511,0.28721
68.46404,0.26034
68.22297,0.23130
67.98190,0.20428
67.74083,0.18152
67.49976,0.16446
67.25869,0.15291
67.01761,0.14584
66.77654,0.14274
66.53547,0.14241
66.29440,0.14231
66.05333,0.14134
65.81226,0.14164
65.57119,0.14604
65.33012,0.15552
65.08905,0.16952
64.84798,0.18670
64.60691,0.20451
64.36584,0.21943
64.12477,0.22826
63.88370,0.22951
63.64263,0.22404
63.40156,0.21376
63.16049,0.19951
62.91942,0.18209
62.67834,0.16436
62.43727,0.15019
62.19620,0.14163
61.95513,0.13795
61.71406,0.13669
61.47299,0.13513
61.23192,0.13126
60.99085,0.12517
60.74978,0.12007
60.50871,0.12064
60.26764,0.12915
60.02657,0.14354
59.78550,0.15966
59.54443,0.17393
59.30336,0.18347
59.06229,0.18572
58.82122,0.17990
58.58015,0.16832
58.33907,0.15457
58.09800,0.14153
57.85693,0.13150
57.61586,0.12622
57.37479,0.12547
57.13372,0.12772
56.89265,0.13357
56.65158,0.14624
56.41051,0.16734
56.16944,0.19296
55.92837,0.21239
55.68730,0.21207
55.44623,0.18972
55.20516,0.15789
54.96409,0.12980
54.72302,0.11236
54.48195,0.10762
54.24088,0.11475
53.99980,0.13173
53.75873,0.15701
53.51766,0.18772
53.27659,0.21146
53.03552,0.20775
52.79445,0.17582
52.55338,0.13883
52.31231,0.11739
52.07124,0.11996
51.83017,0.14638
51.58910,0.19115
51.34803,0.22794
51.10696,0.20743
50.86589,0.14783
50.62482,0.10160
50.38375,0.08637
50.14268,0.10567
49.90161,0.15863
49.66053,0.20778
49.41946,0.18594
49.17839,0.13007
48.93732,0.10407
48.69625,0.12593
48.45518,0.18002
48.21411,0.20195
47.97304,0.15519
47.73197,0.11166
47.49090,0.11517
47.24983,0.15369
47.00876,0.16761
46.76769,0.13299
46.52662,0.11267
46.28555,0.13525
46.04448,0.15836
45.80341,0.13172
45.56234,0.09861
45.32126,0.10185
45.08019,0.12499
44.83912,0.13020
44.59805,0.12858
44.35698,0.14225
44.11591,0.15149
43.87484,0.14259
43.63377,0.13806
43.39270,0.14941
43.15163,0.16540
42.91056,0.17433
42.66949,0.17177
42.42842,0.16189
42.18735,0.15650
41.94628,0.15826
41.70521,0.15896
41.46414,0.15715
41.22307,0.15611
40.98199,0.15418
40.74092,0.15082
40.49985,0.14715
40.25878,0.14084
40.01771,0.13390
39.77664,0.13478
39.53557,0.14656
39.29450,0.16615
39.05343,0.18987
38.81236,0.21141
38.57129,0.22239
38.33022,0.22266
38.08915,0.22480
37.84808,0.24105
37.60701,0.26399
37.36594,0.26919
37.12487,0.24649
36.88380,0.20907
36.64272,0.17305
36.40165,0.15381
36.16058,0.16109
35.91951,0.18453
35.67844,0.20034
35.43737,0.19864
35.19630,0.18972
34.95523,0.18773
34.71416,0.19842
34.47309,0.21367
34.23202,0.21751
33.99095,0.20453
33.74988,0.18409
33.50881,0.16571
33.26774,0.15167
33.02667,0.13904
32.78560,0.12696
32.54453,0.12285
32.30345,0.13282
32.06238,0.15130
31.82131,0.16439
31.58024,0.15971
31.33917,0.13917
31.09810,0.12074
30.85703,0.11806
30.61596,0.12210
30.37489,0.11408
30.13382,0.09172
29.89275,0.06930
29.65168,0.05848
29.41061,0.06144
29.16954,0.07450
28.92847,0.08709
28.68740,0.08403
28.44633,0.06640
28.20526,0.05581
27.96418,0.06026
27.72311,0.06178
27.48204,0.04726
27.24097,0.02336
26.99990,0.00004
26.75883,-0.01971
26.51776,-0.03337
26.27669,-0.03437
26.03562,-0.02291
25.79455,-0.01403
25.55348,-0.02234
25.31241,-0.04986
25.07134,-0.08417
24.83027,-0.10787
24.58920,-0.11665
24.34813,-0.11496
24.10706,-0.10799
23.86599,-0.10158
23.62491,-0.10250
23.38384,-0.11219
23.14277,-0.11960
22.90170,-0.11233
22.66063,-0.09417
22.41956,-0.08188
22.17849,-0.08686
21.93742,-0.10836
21.69635,-0.13187
21.45528,-0.13696
21.21421,-0.11964
20.97314,-0.09724
20.73207,-0.08825
20.49100,-0.10273
20.24993,-0.14293
20.00886,-0.19373
19.76779,-0.22517
19.52672,-0.21624
19.28564,-0.17461
19.04457,-0.13352
18.80350,-0.12265
18.56243,-0.14807
18.32136,-0.19243
18.08029,-0.23098
17.83922,-0.25124
17.59815,-0.25718
17.35708,-0.25689
17.11601,-0.25152
16.87494,-0.23509
16.63387,-0.20988
16.39280,-0.19003
16.15173,-0.18586
15.91066,-0.19249
15.66959,-0.19335
15.42852,-0.18148
15.18745,-0.16845
14.94637,-0.16531
14.70530,-0.17047
14.46423,-0.17671
14.22316,-0.18371
13.98209,-0.20258
13.74102,-0.24123
13.49995,-0.28038
13.25888,-0.28661
13.01781,-0.26891
12.77674,-0.25617
12.53567,-0.25589
12.29460,-0.26421
12.05353,-0.27533
11.81246,-0.28371
11.57139,-0.28375
11.33032,-0.27922
11.08925,-0.28282
10.84818,-0.29113
10.60710,-0.29807
10.36603,-0.30955
10.12496,-0.31281
9.88389,-0.29374
9.64282,-0.25991
9.40175,-0.23413
9.16068,-0.24817
8.91961,-0.30058
8.67854,-0.35112
8.43747,-0.37831
8.19640,-0.38976
7.95533,-0.39080
7.71426,-0.37634
7.47319,-0.34142
7.23212,-0.31639
6.99105,-0.31048
6.74998,-0.30928
6.50891,-0.29984
6.26783,-0.27933
6.02676,-0.26268
5.78569,-0.26583
5.54462,-0.28155
5.30355,-0.28815
5.06248,-0.28185
4.82141,-0.27863
4.58034,-0.29166
4.33927,-0.31872
4.09820,-0.33376
3.85713,-0.31444
3.61606,-0.28902
3.37499,-0.27554
3.13392,-0.26737
2.89285,-0.26301
2.65178,-0.25548
2.41071,-0.24800
2.16964,-0.25493
1.92856,-0.27244
1.68749,-0.28542
1.44642,-0.29058
1.20535,-0.28729
0.96428,-0.28282
0.72321,-0.31797
0.48214,-0.40507
0.24107,-0.42479
-0.00000,-0.36739
