399.69498,1.55040
399.45391,1.54821
399.21284,1.54315
398.97177,1.53538
398.73070,1.53023
398.48963,1.53111
398.24856,1.53486
398.00749,1.53637
397.76642,1.53311
397.52535,1.52738
397.28428,1.52676
397.04321,1.53617
396.80214,1.54981
396.56107,1.56060
396.32000,1.57089
396.07892,1.58073
395.83785,1.58216
395.59678,1.57412
395.35571,1.56652
395.11464,1.56441
394.87357,1.56086
394.63250,1.54817
394.39143,1.53146
394.15036,1.52508
393.90929,1.53761
393.66822,1.56226
393.42715,1.57910
393.18608,1.57325
392.94501,1.54990
392.70394,1.52507
392.46287,1.51197
392.22180,1.51494
391.98073,1.52876
391.73965,1.54345
391.49858,1.55011
391.25751,1.54426
391.01644,1.53038
390.77537,1.52272
390.53430,1.53051
390.29323,1.54698
390.05216,1.55899
389.81109,1.56429
389.57002,1.57024
389.32895,1.57854
389.08788,1.57855
388.84681,1.55912
388.60574,1.52561
388.36467,1.49804
388.12360,1.49298
387.88253,1.50767
387.64146,1.52134
387.40038,1.51800
387.15931,1.50039
386.91824,1.48597
386.67717,1.49000
386.43610,1.50984
386.19503,1.52851
385.95396,1.52944
385.71289,1.50849
385.47182,1.47258
385.23075,1.43374
384.98968,1.40233
384.74861,1.38155
384.50754,1.36880
384.26647,1.36174
384.02540,1.35834
383.78433,1.35215
383.54326,1.33895
383.30219,1.32554
383.06111,1.32278
382.82004,1.33015
382.57897,1.33303
382.33790,1.32091
382.09683,1.30403
381.85576,1.30028
381.61469,1.31093
381.37362,1.31829
381.13255,1.30837
380.89148,1.28979
380.65041,1.28110
380.40934,1.29227
380.16827,1.32153
379.92720,1.35553
379.68613,1.37557
379.44506,1.37420
379.20399,1.35959
378.96292,1.33941
378.72184,1.31602
378.48077,1.29734
378.23970,1.29266
377.99863,1.30092
377.75756,1.31688
377.51649,1.34211
377.27542,1.37634
377.03435,1.40963
376.79328,1.43242
376.55221,1.44503
376.31114,1.45546
376.07007,1.46992
375.82900,1.48641
375.58793,1.49394
375.34686,1.48603
375.10579,1.47134
374.86472,1.45816
374.62365,1.44352
374.38257,1.42566
374.14150,1.41170
373.90043,1.40850
373.65936,1.41085
373.41829,1.40527
373.17722,1.38929
372.93615,1.37727
372.69508,1.37961
372.45401,1.38662
372.21294,1.38290
371.97187,1.37275
371.73080,1.37319
371.48973,1.39065
371.24866,1.41225
371.00759,1.41950
370.76652,1.40993
370.52545,1.39279
370.28437,1.37362
370.04330,1.35625
369.80223,1.34689
369.56116,1.34590
369.32009,1.34473
369.07902,1.33645
368.83795,1.32256
368.59688,1.30914
368.35581,1.30246
368.11474,1.30614
367.87367,1.31752
367.63260,1.32796
367.39153,1.32974
367.15046,1.32502
366.90939,1.32527
366.66832,1.33596
366.42725,1.34755
366.18618,1.34518
365.94510,1.32638
365.70403,1.30401
365.46296,1.28877
365.22189,1.28278
364.98082,1.28587
364.73975,1.29452
364.49868,1.29947
364.25761,1.29341
364.01654,1.27810
363.77547,1.26231
363.53440,1.25450
363.29333,1.25580
363.05226,1.25755
362.81119,1.25002
362.57012,1.23560
362.32905,1.22676
362.08798,1.23117
361.84691,1.24298
361.60583,1.24886
361.36476,1.24394
361.12369,1.23730
360.88262,1.23723
360.64155,1.23947
360.40048,1.23508
360.15941,1.22589
359.91834,1.22089
359.67727,1.22159
359.43620,1.22342
359.19513,1.22619
358.95406,1.23304
358.71299,1.24320
358.47192,1.25213
358.23085,1.25607
357.98978,1.25570
357.74871,1.25404
357.50764,1.25099
357.26656,1.24474
357.02549,1.23602
356.78442,1.22710
356.54335,1.21943
356.30228,1.21426
356.06121,1.21215
355.82014,1.21180
355.57907,1.21131
355.33800,1.21102
355.09693,1.21312
354.85586,1.21902
354.61479,1.22723
354.37372,1.23298
354.13265,1.23351
353.89158,1.23305
353.65051,1.23566
353.40944,1.23645
353.16837,1.23025
352.92729,1.22295
352.68622,1.22512
352.44515,1.23750
352.20408,1.24944
351.96301,1.25167
351.72194,1.24584
351.48087,1.23988
351.23980,1.23873
350.99873,1.24099
350.75766,1.24181
350.51659,1.23860
350.27552,1.23470
350.03445,1.23565
349.79338,1.24292
349.55231,1.25371
349.31124,1.26522
349.07017,1.27560
348.82910,1.28099
348.58802,1.27713
348.34695,1.26617
348.10588,1.25860
347.86481,1.26491
347.62374,1.28304
347.38267,1.29643
347.14160,1.29147
346.90053,1.27445
346.65946,1.26306
346.41839,1.26636
346.17732,1.27847
345.93625,1.28848
345.69518,1.29288
345.45411,1.29526
345.21304,1.29761
344.97197,1.29975
344.73090,1.30465
344.48983,1.31536
344.24875,1.32832
344.00768,1.33746
343.76661,1.34164
343.52554,1.34234
343.28447,1.33792
343.04340,1.32557
342.80233,1.30913
342.56126,1.30023
342.32019,1.30934
342.07912,1.33554
341.83805,1.36606
341.59698,1.38627
341.35591,1.38876
341.11484,1.37532
340.87377,1.35463
340.63270,1.33960
340.39163,1.33931
340.15056,1.35483
339.90948,1.38099
339.66841,1.40669
339.42734,1.41962
339.18627,1.41754
338.94520,1.40937
338.70413,1.40039
338.46306,1.38911
338.22199,1.37699
337.98092,1.37020
337.73985,1.37415
337.49878,1.38872
337.25771,1.40770
337.01664,1.42278
336.77557,1.43266
336.53450,1.44177
336.29343,1.44691
336.05236,1.44158
335.81129,1.42877
335.57021,1.41918
335.32914,1.41651
335.08807,1.41473
334.84700,1.41204
334.60593,1.41227
334.36486,1.41453
334.12379,1.41499
333.88272,1.41647
333.64165,1.42555
333.40058,1.43538
333.15951,1.42500
332.91844,1.39004
332.67737,1.35295
332.43630,1.33512
332.19523,1.34038
331.95416,1.35693
331.71309,1.36764
331.47202,1.36381
331.23094,1.35297
330.98987,1.34577
330.74880,1.34111
330.50773,1.33401
330.26666,1.32699
330.02559,1.32646
329.78452,1.33214
329.54345,1.33491
329.30238,1.32584
329.06131,1.30472
328.82024,1.28415
328.57917,1.28112
328.33810,1.30033
328.09703,1.32828
327.85596,1.34430
327.61489,1.34148
327.37382,1.32939
327.13275,1.31738
326.89167,1.30844
326.65060,1.30702
326.40953,1.32383
326.16846,1.36309
325.92739,1.40276
325.68632,1.41053
325.44525,1.38941
325.20418,1.36340
324.96311,1.34560
324.72204,1.33546
324.48097,1.32827
324.23990,1.32199
323.99883,1.31877
323.75776,1.32255
323.51669,1.33271
323.27562,1.34045
323.03455,1.33817
322.79348,1.33324
322.55240,1.34277
322.31133,1.37205
322.07026,1.40316
321.82919,1.41212
321.58812,1.39301
321.34705,1.35359
321.10598,1.30703
320.86491,1.27384
320.62384,1.27039
320.38277,1.29654
320.14170,1.33578
319.90063,1.36976
319.65956,1.39177
319.41849,1.40070
319.17742,1.39218
318.93635,1.36521
318.69528,1.33300
318.45421,1.31383
318.21313,1.31484
317.97206,1.33122
317.73099,1.35503
317.48992,1.37920
317.24885,1.39369
317.00778,1.38852
316.76671,1.36646
316.52564,1.34335
316.28457,1.33287
316.04350,1.33631
315.80243,1.34495
315.56136,1.34740
315.32029,1.34474
315.07922,1.35314
314.83815,1.37873
314.59708,1.40492
314.35601,1.41443
314.11494,1.41384
313.87386,1.41895
313.63279,1.42864
313.39172,1.43400
313.15065,1.43891
312.90958,1.44776
312.66851,1.44823
312.42744,1.42364
312.18637,1.38449
311.94530,1.35939
311.70423,1.36237
311.46316,1.39447
311.22209,1.44764
310.98102,1.49606
310.73995,1.50807
310.49888,1.48180
310.25781,1.44416
310.01674,1.41787
309.77567,1.41038
309.53459,1.41788
309.29352,1.42645
309.05245,1.42187
308.81138,1.40820
308.57031,1.39959
308.32924,1.40058
308.08817,1.41045
307.84710,1.42795
307.60603,1.44642
307.36496,1.45813
307.12389,1.46135
306.88282,1.45480
306.64175,1.43920
306.40068,1.42621
306.15961,1.42792
305.91854,1.44060
305.67747,1.44508
305.43640,1.43408
305.19532,1.42563
304.95425,1.43618
304.71318,1.45838
304.47211,1.47035
304.23104,1.46246
303.98997,1.44685
303.74890,1.44005
303.50783,1.44517
303.26676,1.45048
303.02569,1.44195
302.78462,1.41889
302.54355,1.39348
302.30248,1.37753
302.06141,1.37219
301.82034,1.36823
301.57927,1.35770
301.33820,1.34362
301.09713,1.33395
300.85605,1.33339
300.61498,1.34162
300.37391,1.35085
300.13284,1.34844
299.89177,1.33198
299.65070,1.31526
299.40963,1.31153
299.16856,1.31917
298.92749,1.32487
298.68642,1.31858
298.44535,1.30366
298.20428,1.28826
297.96321,1.27605
297.72214,1.26860
297.48107,1.26756
297.24000,1.27087
296.99893,1.27240
296.75786,1.26860
296.51678,1.26119
296.27571,1.25084
296.03464,1.23682
295.79357,1.22095
295.55250,1.20600
295.31143,1.19448
295.07036,1.18887
294.82929,1.19020
294.58822,1.19534
294.34715,1.19806
294.10608,1.19545
293.86501,1.19191
293.62394,1.19366
293.38287,1.20037
293.14180,1.20565
292.90073,1.20551
292.65966,1.20216
292.41859,1.19917
292.17751,1.19706
291.93644,1.19380
291.69537,1.18880
291.45430,1.18454
291.21323,1.18199
290.97216,1.17837
290.73109,1.17114
290.49002,1.16249
290.24895,1.15783
290.00788,1.15976
289.76681,1.16541
289.52574,1.16874
289.28467,1.16647
289.04360,1.16102
288.80253,1.15570
288.56146,1.14957
288.32039,1.14064
288.07932,1.13214
287.83824,1.12897
287.59717,1.13090
287.35610,1.13471
287.11503,1.13890
286.87396,1.14276
286.63289,1.14433
286.39182,1.14181
286.15075,1.13620
285.90968,1.13111
285.66861,1.12906
285.42754,1.12907
285.18647,1.12892
284.94540,1.12843
284.70433,1.12809
284.46326,1.12649
284.22219,1.12233
283.98112,1.11828
283.74005,1.11896
283.49897,1.12537
283.25790,1.13290
283.01683,1.13584
282.77576,1.13346
282.53469,1.12975
282.29362,1.12804
282.05255,1.12845
281.81148,1.12978
281.57041,1.13074
281.32934,1.12934
281.08827,1.12478
280.84720,1.12085
280.60613,1.12314
280.36506,1.13116
280.12399,1.13733
279.88292,1.13590
279.64185,1.12883
279.40078,1.12121
279.15970,1.11576
278.91863,1.11315
278.67756,1.11389
278.43649,1.11689
278.19542,1.11929
277.95435,1.12010
277.71328,1.12074
277.47221,1.12171
277.23114,1.12289
276.99007,1.12595
276.74900,1.13184
276.50793,1.13678
276.26686,1.13567
276.02579,1.12959
275.78472,1.12495
275.54365,1.12588
275.30258,1.13115
275.06151,1.13742
274.82043,1.14272
274.57936,1.14648
274.33829,1.14868
274.09722,1.15015
273.85615,1.15200
273.61508,1.15456
273.37401,1.15739
273.13294,1.15918
272.89187,1.15864
272.65080,1.15739
272.40973,1.15933
272.16866,1.16572
271.92759,1.17333
271.68652,1.17829
271.44545,1.17943
271.20438,1.17815
270.96331,1.17729
270.72224,1.17909
270.48116,1.18279
270.24009,1.18630
269.99902,1.18970
269.75795,1.19397
269.51688,1.19742
269.27581,1.19720
269.03474,1.19444
268.79367,1.19461
268.55260,1.20260
268.31153,1.21702
268.07046,1.22947
267.82939,1.23318
267.58832,1.23119
267.34725,1.23265
267.10618,1.24160
266.86511,1.25363
266.62404,1.26355
266.38297,1.27177
266.14189,1.28036
265.90082,1.28839
265.65975,1.29675
265.41868,1.30982
265.17761,1.32597
264.93654,1.33547
264.69547,1.33460
264.45440,1.33475
264.21333,1.34766
263.97226,1.37074
263.73119,1.39207
263.49012,1.40496
263.24905,1.41320
263.00798,1.42335
262.76691,1.43841
262.52584,1.45586
262.28477,1.47143
262.04370,1.48623
261.80262,1.50506
261.56155,1.53032
261.32048,1.56211
261.07941,1.59837
260.83834,1.62889
260.59727,1.64094
260.35620,1.64090
260.11513,1.64884
259.87406,1.66979
259.63299,1.69250
259.39192,1.71066
259.15085,1.72873
258.90978,1.74991
258.66871,1.77594
258.42764,1.81130
258.18657,1.84497
257.94550,1.85184
257.70443,1.83863
257.46335,1.82312
257.22228,1.81239
256.98121,1.80562
256.74014,1.79993
256.49907,1.80088
256.25800,1.80905
256.01693,1.80991
255.77586,1.79404
255.53479,1.76708
255.29372,1.73200
255.05265,1.69025
254.81158,1.65336
254.57051,1.62996
254.32944,1.61798
254.08837,1.61688
253.84730,1.62820
253.60623,1.64280
253.36516,1.64487
253.12408,1.63473
252.88301,1.62847
252.64194,1.63822
252.40087,1.66110
252.15980,1.68023
251.91873,1.67974
251.67766,1.66058
251.43659,1.63426
251.19552,1.60726
250.95445,1.58233
250.71338,1.56584
250.47231,1.56336
250.23124,1.57140
249.99017,1.57930
249.74910,1.57849
249.50803,1.56937
249.26696,1.55982
249.02589,1.55573
248.78481,1.55559
248.54374,1.55364
248.30267,1.54920
248.06160,1.54919
247.82053,1.55641
247.57946,1.56194
247.33839,1.55868
247.09732,1.55442
246.85625,1.56011
246.61518,1.57523
246.37411,1.59151
246.13304,1.60438
245.89197,1.61568
245.65090,1.62619
245.40983,1.63443
245.16876,1.64050
244.92769,1.64577
244.68661,1.65733
244.44554,1.68433
244.20447,1.72787
243.96340,1.78173
243.72233,1.84184
243.48126,1.90110
243.24019,1.94793
242.99912,1.99116
242.75805,2.03264
242.51698,1.99331
242.27591,1.87093
242.03484,1.74686
241.79377,1.64191
241.55270,1.55619
241.31163,1.47898
241.07056,1.40561
240.82949,1.34297
240.58842,1.29633
240.34734,1.26095
240.10627,1.22673
239.86520,1.18890
239.62413,1.15000
239.38306,1.11322
239.14199,1.07970
238.90092,1.05189
238.65985,1.03321
238.41878,1.02282
238.17771,1.01417
237.93664,1.00080
237.69557,0.98276
237.45450,0.96468
237.21343,0.94891
236.97236,0.93338
236.73129,0.91580
236.49022,0.89796
236.24915,0.88429
236.00807,0.87698
235.76700,0.87346
235.52593,0.86934
235.28486,0.86329
235.04379,0.85736
234.80272,0.85307
234.56165,0.85025
234.32058,0.84851
234.07951,0.84635
233.83844,0.84104
233.59737,0.83226
233.35630,0.82337
233.11523,0.81730
232.87416,0.81355
232.63309,0.81098
232.39202,0.81027
232.15095,0.81163
231.90988,0.81296
231.66880,0.81306
231.42773,0.81387
231.18666,0.81679
230.94559,0.81966
230.70452,0.81917
230.46345,0.81439
230.22238,0.80724
229.98131,0.80082
229.74024,0.79758
229.49917,0.79748
229.25810,0.79821
229.01703,0.79781
228.77596,0.79644
228.53489,0.79556
228.29382,0.79589
228.05275,0.79634
227.81168,0.79524
227.57061,0.79202
227.32953,0.78742
227.08846,0.78293
226.84739,0.78028
226.60632,0.78037
226.36525,0.78258
226.12418,0.78635
225.88311,0.79200
225.64204,0.79884
225.40097,0.80422
225.15990,0.80579
224.91883,0.80361
224.67776,0.79996
224.43669,0.79751
224.19562,0.79757
223.95455,0.80044
223.71348,0.80651
223.47241,0.81542
223.23134,0.82461
222.99026,0.83170
222.74919,0.83762
222.50812,0.84410
222.26705,0.85033
222.02598,0.85599
221.78491,0.86272
221.54384,0.86928
221.30277,0.87255
221.06170,0.87463
220.82063,0.88068
220.57956,0.89099
220.33849,0.90218
220.09742,0.91352
219.85635,0.92581
219.61528,0.93708
219.37421,0.94465
219.13314,0.94946
218.89207,0.95544
218.65099,0.96609
218.40992,0.98178
218.16885,0.99958
217.92778,1.01658
217.68671,1.03264
217.44564,1.04864
217.20457,1.06419
216.96350,1.07817
216.72243,1.08936
216.48136,1.09782
216.24029,1.10742
215.99922,1.12399
215.75815,1.14923
215.51708,1.17777
215.27601,1.20145
215.03494,1.21693
214.79387,1.22675
214.55280,1.23386
214.31172,1.24016
214.07065,1.24805
213.82958,1.25925
213.58851,1.27524
213.34744,1.29874
213.10637,1.32815
212.86530,1.35218
212.62423,1.36265
212.38316,1.36796
212.14209,1.37890
211.90102,1.39249
211.65995,1.40078
211.41888,1.40538
211.17781,1.41015
210.93674,1.40917
210.69567,1.39811
210.45460,1.38437
210.21353,1.37735
209.97245,1.38042
209.73138,1.39099
209.49031,1.40144
209.24924,1.40322
209.00817,1.39582
208.76710,1.38650
208.52603,1.38228
208.28496,1.38627
208.04389,1.39414
207.80282,1.39408
207.56175,1.37574
207.32068,1.34163
207.07961,1.30632
206.83854,1.28373
206.59747,1.27929
206.35640,1.28761
206.11533,1.29115
205.87426,1.27078
205.63318,1.22913
205.39211,1.18898
205.15104,1.16654
204.90997,1.16149
204.66890,1.16281
204.42783,1.15627
204.18676,1.13641
203.94569,1.11164
203.70462,1.09275
203.46355,1.08324
203.22248,1.07881
202.98141,1.07159
202.74034,1.05638
202.49927,1.03452
202.25820,1.01080
202.01713,0.98901
201.77606,0.97054
201.53499,0.95447
201.29391,0.93875
201.05284,0.92239
200.81177,0.90615
200.57070,0.89058
200.32963,0.87477
200.08856,0.85801
199.84749,0.84175
199.60642,0.82818
199.36535,0.81793
199.12428,0.81014
198.88321,0.80341
198.64214,0.79611
198.40107,0.78714
198.16000,0.77708
197.91893,0.76803
197.67786,0.76108
197.43679,0.75343
197.19572,0.74031
196.95464,0.72213
196.71357,0.70609
196.47250,0.69757
196.23143,0.69420
195.99036,0.68969
195.74929,0.68089
195.50822,0.66987
195.26715,0.66065
195.02608,0.65516
194.78501,0.65137
194.54394,0.64564
194.30287,0.63792
194.06180,0.63181
193.82073,0.62884
193.57966,0.62570
193.33859,0.61941
193.09752,0.61255
192.85645,0.60926
192.61537,0.60839
192.37430,0.60541
192.13323,0.59950
191.89216,0.59410
191.65109,0.59121
191.41002,0.58922
191.16895,0.58573
190.92788,0.58033
190.68681,0.57488
190.44574,0.57135
190.20467,0.56985
189.96360,0.56929
189.72253,0.56909
189.48146,0.56879
189.24039,0.56728
188.99932,0.56449
188.75825,0.56239
188.51718,0.56232
188.27610,0.56254
188.03503,0.56102
187.79396,0.55939
187.55289,0.56019
187.31182,0.56198
187.07075,0.56137
186.82968,0.55866
186.58861,0.55683
186.34754,0.55617
186.10647,0.55490
185.86540,0.55328
185.62433,0.55266
185.38326,0.55240
185.14219,0.55184
184.90112,0.55293
184.66005,0.55709
184.41898,0.56136
184.17791,0.56199
183.93683,0.56029
183.69576,0.56054
183.45469,0.56368
183.21362,0.56715
182.97255,0.56947
182.73148,0.57136
182.49041,0.57362
182.24934,0.57639
182.00827,0.57906
181.76720,0.58015
181.52613,0.57892
181.28506,0.57712
181.04399,0.57718
180.80292,0.57914
180.56185,0.58142
180.32078,0.58372
180.07971,0.58734
179.83864,0.59326
179.59756,0.60129
179.35649,0.61023
179.11542,0.61841
178.87435,0.62492
178.63328,0.63029
178.39221,0.63546
178.15114,0.64158
177.91007,0.65040
177.66900,0.66223
177.42793,0.67498
177.18686,0.68745
176.94579,0.70129
176.70472,0.71760
176.46365,0.73584
176.22258,0.75659
175.98151,0.78059
175.74044,0.80596
175.49937,0.83070
175.25829,0.85498
175.01722,0.87794
174.77615,0.89736
174.53508,0.91368
174.29401,0.92981
174.05294,0.94795
173.81187,0.96918
173.57080,0.99466
173.32973,1.02381
173.08866,1.05135
172.84759,1.07124
172.60652,1.08389
172.36545,1.09348
172.12438,1.09973
171.88331,1.09860
171.64224,1.08955
171.40117,1.07738
171.16010,1.06761
170.91902,1.06231
170.67795,1.06089
170.43688,1.06218
170.19581,1.06479
169.95474,1.06564
169.71367,1.06062
169.47260,1.04959
169.23153,1.03672
168.99046,1.02392
168.74939,1.00988
168.50832,0.99592
168.26725,0.98662
168.02618,0.98429
167.78511,0.98607
167.54404,0.98757
167.30297,0.98774
167.06190,0.98862
166.82083,0.99158
166.57975,0.99594
166.33868,1.00061
166.09761,1.00593
165.85654,1.01316
165.61547,1.02175
165.37440,1.02821
165.13333,1.03129
164.89226,1.03692
164.65119,1.05255
164.41012,1.07738
164.16905,1.10199
163.92798,1.11792
163.68691,1.12447
163.44584,1.12551
163.20477,1.12508
162.96370,1.12699
162.72263,1.13551
162.48156,1.15384
162.24048,1.18075
161.99941,1.20909
161.75834,1.22784
161.51727,1.22929
161.27620,1.21496
161.03513,1.19368
160.79406,1.17697
160.55299,1.17429
160.31192,1.18671
160.07085,1.20399
159.82978,1.21111
159.58871,1.20033
159.34764,1.17731
159.10657,1.15452
158.86550,1.14104
158.62443,1.13786
158.38336,1.14024
158.14229,1.14417
157.90121,1.14780
157.66014,1.14793
157.41907,1.14171
157.17800,1.13034
156.93693,1.11727
156.69586,1.10814
156.45479,1.10805
156.21372,1.11405
155.97265,1.11378
155.73158,1.09764
155.49051,1.07080
155.24944,1.04677
155.00837,1.03360
154.76730,1.02764
154.52623,1.01806
154.28516,0.99809
154.04409,0.97163
153.80302,0.94789
153.56194,0.93258
153.32087,0.92465
153.07980,0.91761
152.83873,0.90329
152.59766,0.87887
152.35659,0.85014
152.11552,0.82476
151.87445,0.80484
151.63338,0.78693
151.39231,0.76773
151.15124,0.74775
150.91017,0.72881
150.66910,0.71146
150.42803,0.69564
150.18696,0.68060
149.94589,0.66449
149.70482,0.64644
149.46375,0.62882
149.22267,0.61518
148.98160,0.60627
148.74053,0.59948
148.49946,0.59187
148.25839,0.58324
148.01732,0.57615
147.77625,0.57287
147.53518,0.57239
147.29411,0.57141
147.05304,0.56856
146.81197,0.56635
146.57090,0.56784
146.32983,0.57251
146.08876,0.57661
145.84769,0.57785
145.60662,0.57876
145.36555,0.58341
145.12448,0.59173
144.88340,0.59962
144.64233,0.60464
144.40126,0.60849
144.16019,0.61306
143.91912,0.61736
143.67805,0.61958
143.43698,0.61962
143.19591,0.61797
142.95484,0.61310
142.71377,0.60267
142.47270,0.58738
142.23163,0.57152
141.99056,0.55888
141.74949,0.54963
141.50842,0.54171
141.26735,0.53397
141.02628,0.52723
140.78521,0.52263
140.54413,0.52053
140.30306,0.52067
140.06199,0.52245
139.82092,0.52507
139.57985,0.52844
139.33878,0.53308
139.09771,0.53867
138.85664,0.54428
138.61557,0.55066
138.37450,0.56012
138.13343,0.57337
137.89236,0.58874
137.65129,0.60513
137.41022,0.62361
137.16915,0.64487
136.92808,0.66715
136.68701,0.68856
136.44594,0.70982
136.20486,0.73242
135.96379,0.75594
135.72272,0.78027
135.48165,0.80849
135.24058,0.84409
134.99951,0.88637
134.75844,0.92979
134.51737,0.96852
134.27630,1.00239
134.03523,1.03599
133.79416,1.07083
133.55309,1.10321
133.31202,1.13238
133.07095,1.16334
132.82988,1.19760
132.58881,1.22991
132.34774,1.25586
132.10667,1.27496
131.86559,1.28700
131.62452,1.29053
131.38345,1.28162
131.14238,1.25727
130.90131,1.21930
130.66024,1.17164
130.41917,1.11832
130.17810,1.06524
129.93703,1.01729
129.69596,0.97456
129.45489,0.93490
129.21382,0.89725
128.97275,0.86058
128.73168,0.82359
128.49061,0.78679
128.24954,0.75247
128.00847,0.72152
127.76740,0.69244
127.52632,0.66444
127.28525,0.63929
127.04418,0.61834
126.80311,0.59941
126.56204,0.57969
126.32097,0.55992
126.07990,0.54271
125.83883,0.52797
125.59776,0.51299
125.35669,0.49625
125.11562,0.47933
124.87455,0.46499
124.63348,0.45447
124.39241,0.44672
124.15134,0.43997
123.91027,0.43353
123.66920,0.42812
123.42812,0.42455
123.18705,0.42242
122.94598,0.42100
122.70491,0.42057
122.46384,0.42192
122.22277,0.42488
121.98170,0.42856
121.74063,0.43245
121.49956,0.43660
121.25849,0.44130
121.01742,0.44719
120.77635,0.45483
120.53528,0.46400
120.29421,0.47445
120.05314,0.48725
119.81207,0.50428
119.57100,0.52628
119.32993,0.55233
119.08885,0.58142
118.84778,0.61333
118.60671,0.64732
118.36564,0.68147
118.12457,0.71409
117.88350,0.74407
117.64243,0.76959
117.40136,0.78892
117.16029,0.80267
116.91922,0.81227
116.67815,0.81637
116.43708,0.81243
116.19601,0.80241
115.95494,0.79236
115.71387,0.78595
115.47280,0.78077
115.23173,0.77179
114.99066,0.75687
114.74958,0.73728
114.50851,0.71528
114.26744,0.69404
114.02637,0.67778
113.78530,0.66846
113.54423,0.66347
113.30316,0.65969
113.06209,0.65840
112.82102,0.66338
112.57995,0.67503
112.33888,0.68953
112.09781,0.70363
111.85674,0.71661
111.61567,0.72755
111.37460,0.73498
111.13353,0.73958
110.89246,0.74374
110.65139,0.74876
110.41031,0.75479
110.16924,0.76139
109.92817,0.76538
109.68710,0.76041
109.44603,0.74258
109.20496,0.71410
108.96389,0.67938
108.72282,0.64221
108.48175,0.60760
108.24068,0.58123
107.99961,0.56471
107.75854,0.55324
107.51747,0.53944
107.27640,0.51995
107.03533,0.49706
106.79426,0.47377
106.55319,0.45140
106.31212,0.43196
106.07104,0.41838
105.82997,0.41150
105.58890,0.40822
105.34783,0.40257
105.10676,0.39011
104.86569,0.37258
104.62462,0.35642
104.38355,0.34671
104.14248,0.34336
103.90141,0.34193
103.66034,0.33746
103.41927,0.32818
103.17820,0.31702
102.93713,0.30871
102.69606,0.30523
102.45499,0.30467
102.21392,0.30309
101.97285,0.29751
101.73177,0.28836
101.49070,0.27912
101.24963,0.27336
101.00856,0.27260
100.76749,0.27536
100.52642,0.27709
100.28535,0.27322
100.04428,0.26426
99.80321,0.25628
99.56214,0.25496
99.32107,0.25934
99.08000,0.26181
98.83893,0.25679
98.59786,0.24857
98.35679,0.24533
98.11572,0.24849
97.87465,0.25126
97.63358,0.24821
97.39250,0.24361
97.15143,0.24559
96.91036,0.25581
96.66929,0.26721
96.42822,0.27219
96.18715,0.27271
95.94608,0.27703
95.70501,0.28834
95.46394,0.30111
95.22287,0.30942
94.98180,0.31584
94.74073,0.32457
94.49966,0.33250
94.25859,0.33487
94.01752,0.33445
93.77645,0.33597
93.53538,0.33727
93.29431,0.33484
93.05323,0.33231
92.81216,0.33475
92.57109,0.33930
92.33002,0.33997
92.08895,0.33881
91.84788,0.34239
91.60681,0.35107
91.36574,0.36061
91.12467,0.37278
90.88360,0.39315
90.64253,0.42133
90.40146,0.45369
90.16039,0.49174
89.91932,0.53801
89.67825,0.59065
89.43718,0.64785
89.19611,0.70531
88.95504,0.75017
88.71396,0.77353
88.47289,0.77724
88.23182,0.76001
87.99075,0.72248
87.74968,0.67332
87.50861,0.61790
87.26754,0.55907
87.02647,0.50455
86.78540,0.46029
86.54433,0.42482
86.30326,0.39494
86.06219,0.36928
85.82112,0.34549
85.58005,0.32143
85.33898,0.29841
85.09791,0.27854
84.85684,0.26157
84.61577,0.24656
84.37469,0.23353
84.13362,0.22233
83.89255,0.21240
83.65148,0.20390
83.41041,0.19759
83.16934,0.19324
82.92827,0.18967
82.68720,0.18643
82.44613,0.18399
82.20506,0.18211
81.96399,0.18013
81.72292,0.17841
81.48185,0.17791
81.24078,0.17872
80.99971,0.18027
80.75864,0.18189
80.51757,0.18275
80.27650,0.18219
80.03542,0.18032
79.79435,0.17775
79.55328,0.17502
79.31221,0.17242
79.07114,0.17012
78.83007,0.16864
78.58900,0.16838
78.34793,0.16815
78.10686,0.16570
77.86579,0.16079
77.62472,0.15612
77.38365,0.15407
77.14258,0.15386
76.90151,0.15282
76.66044,0.14988
76.41937,0.14634
76.17830,0.14404
75.93723,0.14400
75.69615,0.14565
75.45508,0.14661
75.21401,0.14462
74.97294,0.14013
74.73187,0.13590
74.49080,0.13380
74.24973,0.13387
74.00866,0.13574
73.76759,0.13891
73.52652,0.14185
73.28545,0.14322
73.04438,0.14404
72.80331,0.14630
72.56224,0.14990
72.32117,0.15296
72.08010,0.15471
71.83903,0.15581
71.59796,0.15661
71.35688,0.15708
71.11581,0.15803
70.87474,0.16116
70.63367,0.16868
70.39260,0.18323
70.15153,0.20652
69.91046,0.23664
69.66939,0.26668
69.42832,0.28731
69.18725,0.29257
68.94618,0.28328
68.70511,0.26440
68.46404,0.24044
68.22297,0.21446
67.98190,0.18932
67.74083,0.16805
67.49976,0.15281
67.25869,0.14364
67.01761,0.13841
66.77654,0.13470
66.53547,0.13143
66.29440,0.12876
66.05333,0.12680
65.81226,0.12582
65.57119,0.12765
65.33012,0.13515
65.08905,0.14891
64.84798,0.16606
64.60691,0.18331
64.36584,0.19940
64.12477,0.21279
63.88370,0.22007
63.64263,0.21908
63.40156,0.21092
63.16049,0.19770
62.91942,0.18093
62.67834,0.16238
62.43727,0.14501
62.19620,0.13217
61.95513,0.12527
61.71406,0.12234
61.47299,0.12018
61.23192,0.11777
60.99085,0.11711
60.74978,0.12115
60.50871,0.13112
60.26764,0.14520
60.02657,0.15916
59.78550,0.16866
59.54443,0.17150
59.30336,0.16770
59.06229,0.15828
58.82122,0.14483
58.58015,0.13045
58.33907,0.11942
58.09800,0.11474
57.85693,0.11680
57.61586,0.12503
57.37479,0.13874
57.13372,0.15607
56.89265,0.17328
56.65158,0.18462
56.41051,0.18266
56.16944,0.16446
55.92837,0.13832
55.68730,0.11613
55.44623,0.10358
55.20516,0.10103
54.96409,0.10789
54.72302,0.12523
54.48195,0.15510
54.24088,0.19260
53.99980,0.21452
53.75873,0.19788
53.51766,0.15737
53.27659,0.12043
53.03552,0.10209
52.79445,0.10873
52.55338,0.14172
52.31231,0.18855
52.07124,0.20971
51.83017,0.18043
51.58910,0.13580
51.34803,0.10856
51.10696,0.10968
50.86589,0.13941
50.62482,0.17872
50.38375,0.18294
50.14268,0.14553
49.90161,0.11396
49.66053,0.11845
49.41946,0.16067
49.17839,0.20003
48.93732,0.17466
48.69625,0.12683
48.45518,0.11967
48.21411,0.15898
47.97304,0.19636
47.73197,0.17481
47.49090,0.13932
47.24983,0.13904
47.00876,0.15581
46.76769,0.14209
46.52662,0.10986
46.28555,0.10265
46.04448,0.11770
45.80341,0.12324
45.56234,0.11978
45.32126,0.12794
45.08019,0.13778
44.83912,0.13361
44.59805,0.13206
44.35698,0.14164
44.11591,0.14767
43.87484,0.14727
43.63377,0.15301
43.39270,0.16314
43.15163,0.16979
42.91056,0.17527
42.66949,0.17832
42.42842,0.17389
42.18735,0.16642
41.94628,0.15972
41.70521,0.15237
41.46414,0.14858
41.22307,0.15205
40.98199,0.15770
40.74092,0.16194
40.49985,0.16617
40.25878,0.16725
40.01771,0.16286
39.77664,0.16162
39.53557,0.17011
39.29450,0.18179
39.05343,0.18760
38.81236,0.18959
38.57129,0.19475
38.33022,0.20406
38.08915,0.21504
37.84808,0.22747
37.60701,0.23634
37.36594,0.23198
37.12487,0.21778
36.88380,0.20522
36.64272,0.19589
36.40165,0.18970
36.16058,0.19374
35.91951,0.20812
35.67844,0.21798
35.43737,0.21138
35.19630,0.19447
34.95523,0.18186
34.71416,0.18112
34.47309,0.18831
34.23202,0.19610
33.99095,0.20182
33.74988,0.20637
33.50881,0.21313
33.26774,0.22466
33.02667,0.23398
32.78560,0.22862
32.54453,0.21083
32.30345,0.20071
32.06238,0.21137
31.82131,0.23123
31.58024,0.23693
31.33917,0.21798
31.09810,0.18725
30.85703,0.16224
30.61596,0.14935
30.37489,0.14842
30.13382,0.15938
29.89275,0.17724
29.65168,0.18889
29.41061,0.18124
29.16954,0.15343
28.92847,0.11411
28.68740,0.07308
28.44633,0.03993
28.20526,0.02304
27.96418,0.02659
27.72311,0.04412
27.48204,0.05673
27.24097,0.04725
26.99990,0.01926
26.75883,-0.00728
26.51776,-0.02171
26.27669,-0.03141
26.03562,-0.04344
25.79455,-0.05517
25.55348,-0.06347
25.31241,-0.07062
25.07134,-0.07998
24.83027,-0.08666
24.58920,-0.08451
24.34813,-0.08138
24.10706,-0.09502
23.86599,-0.12578
23.62491,-0.14829
23.38384,-0.14292
23.14277,-0.12217
22.90170,-0.11504
22.66063,-0.13097
22.41956,-0.15265
22.17849,-0.17172
21.93742,-0.19938
21.69635,-0.23623
21.45528,-0.26547
21.21421,-0.27007
20.97314,-0.25250
20.73207,-0.23526
20.49100,-0.23910
20.24993,-0.26121
20.00886,-0.28070
19.76779,-0.29664
19.52672,-0.33376
19.28564,-0.38946
19.04457,-0.40715
18.80350,-0.36946
18.56243,-0.33175
18.32136,-0.31864
18.08029,-0.33409
17.83922,-0.37231
17.59815,-0.41267
17.35708,-0.42993
17.11601,-0.42074
16.87494,-0.39553
16.63387,-0.37298
16.39280,-0.37166
16.15173,-0.38120
15.91066,-0.37920
15.66959,-0.36516
15.42852,-0.35700
15.18745,-0.36042
14.94637,-0.36678
14.70530,-0.36481
14.46423,-0.36311
14.22316,-0.36114
13.98209,-0.35030
13.74102,-0.32987
13.49995,-0.31294
13.25888,-0.30326
13.01781,-0.30259
12.77674,-0.31496
12.53567,-0.33660
12.29460,-0.35819
12.05353,-0.36067
11.81246,-0.34471
11.57139,-0.33495
11.33032,-0.33636
11.08925,-0.32950
10.84818,-0.30046
10.60710,-0.26632
10.36603,-0.25017
10.12496,-0.25852
9.88389,-0.28411
9.64282,-0.31368
9.40175,-0.33966
9.16068,-0.35986
8.91961,-0.37164
8.67854,-0.37015
8.43747,-0.34574
8.19640,-0.30497
7.95533,-0.29173
7.71426,-0.30828
7.47319,-0.31863
7.23212,-0.31549
6.99105,-0.31488
6.74998,-0.31863
6.50891,-0.31725
6.26783,-0.31557
6.02676,-0.33261
5.78569,-0.35830
5.54462,-0.35326
5.30355,-0.33468
5.06248,-0.31640
4.82141,-0.29047
4.58034,-0.26936
4.33927,-0.26742
4.09820,-0.27801
3.85713,-0.29676
3.61606,-0.32583
3.37499,-0.36194
3.13392,-0.40694
2.89285,-0.44480
2.65178,-0.43505
2.41071,-0.38076
2.16964,-0.32921
1.92856,-0.31399
1.68749,-0.33072
1.44642,-0.34777
1.20535,-0.33645
0.96428,-0.30992
0.72321,-0.33079
0.48214,-0.43194
0.24107,-0.41108
-0.00000,-0.11560
