399.69498,1.45686
399.45391,1.45372
399.21284,1.45198
398.97177,1.45443
398.73070,1.45958
398.48963,1.46259
398.24856,1.46222
398.00749,1.46055
397.76642,1.45678
397.52535,1.44917
397.28428,1.44106
397.04321,1.43770
396.80214,1.44314
396.56107,1.46002
396.32000,1.48547
396.07892,1.50700
395.83785,1.51038
395.59678,1.49620
395.35571,1.47913
395.11464,1.46975
394.87357,1.46553
394.63250,1.45987
394.39143,1.45465
394.15036,1.45689
393.90929,1.46630
393.66822,1.47528
393.42715,1.47993
393.18608,1.48222
392.94501,1.48335
392.70394,1.48180
392.46287,1.47681
392.22180,1.47056
391.98073,1.46696
391.73965,1.46876
391.49858,1.47295
391.25751,1.47105
391.01644,1.46037
390.77537,1.44953
390.53430,1.44600
390.29323,1.44691
390.05216,1.44832
389.81109,1.45247
389.57002,1.45921
389.32895,1.46282
389.08788,1.46118
388.84681,1.45792
388.60574,1.45283
388.36467,1.43944
388.12360,1.41733
387.88253,1.39891
387.64146,1.39613
387.40038,1.40718
387.15931,1.41810
386.91824,1.41833
386.67717,1.41300
386.43610,1.41138
386.19503,1.41112
385.95396,1.40267
385.71289,1.38748
385.47182,1.37545
385.23075,1.36627
384.98968,1.35191
384.74861,1.33415
384.50754,1.32257
384.26647,1.31585
384.02540,1.30145
383.78433,1.27871
383.54326,1.26278
383.30219,1.26163
383.06111,1.26677
382.82004,1.26792
382.57897,1.26701
382.33790,1.27018
382.09683,1.27386
381.85576,1.26952
381.61469,1.25768
381.37362,1.24827
381.13255,1.24990
380.89148,1.26231
380.65041,1.27571
380.40934,1.28077
380.16827,1.27920
379.92720,1.27873
379.68613,1.28204
379.44506,1.28256
379.20399,1.27320
378.96292,1.25717
378.72184,1.24456
378.48077,1.24275
378.23970,1.25115
377.99863,1.26373
377.75756,1.27404
377.51649,1.27779
377.27542,1.27753
377.03435,1.28324
376.79328,1.29977
376.55221,1.31864
376.31114,1.32934
376.07007,1.33407
375.82900,1.33966
375.58793,1.34383
375.34686,1.34333
375.10579,1.34183
374.86472,1.34375
374.62365,1.34927
374.38257,1.35258
374.14150,1.34818
373.90043,1.33946
373.65936,1.33195
373.41829,1.32459
373.17722,1.31508
372.93615,1.30635
372.69508,1.30272
372.45401,1.30326
372.21294,1.30389
371.97187,1.30374
371.73080,1.30560
371.48973,1.31101
371.24866,1.31587
371.00759,1.31497
370.76652,1.30993
370.52545,1.30558
370.28437,1.30151
370.04330,1.29326
369.80223,1.27968
369.56116,1.26476
369.32009,1.25263
369.07902,1.24454
368.83795,1.24022
368.59688,1.23906
368.35581,1.23823
368.11474,1.23302
367.87367,1.22211
367.63260,1.20984
367.39153,1.20267
367.15046,1.20383
366.90939,1.20992
366.66832,1.21277
366.42725,1.20652
366.18618,1.19332
365.94510,1.18104
365.70403,1.17626
365.46296,1.17950
365.22189,1.18576
364.98082,1.18989
364.73975,1.19015
364.49868,1.18689
364.25761,1.18131
364.01654,1.17608
363.77547,1.17331
363.53440,1.17173
363.29333,1.16918
363.05226,1.16647
362.81119,1.16601
362.57012,1.16811
362.32905,1.17080
362.08798,1.17216
361.84691,1.17164
361.60583,1.17031
361.36476,1.16985
361.12369,1.16966
360.88262,1.16612
360.64155,1.15703
360.40048,1.14632
360.15941,1.14087
359.91834,1.14283
359.67727,1.14821
359.43620,1.15265
359.19513,1.15501
358.95406,1.15527
358.71299,1.15271
358.47192,1.14707
358.23085,1.13970
357.98978,1.13309
357.74871,1.12881
357.50764,1.12623
357.26656,1.12532
357.02549,1.12801
356.78442,1.13578
356.54335,1.14691
356.30228,1.15675
356.06121,1.16061
355.82014,1.15721
355.57907,1.15017
355.33800,1.14563
355.09693,1.14660
354.85586,1.15002
354.61479,1.15111
354.37372,1.14862
354.13265,1.14436
353.89158,1.14043
353.65051,1.13834
353.40944,1.13907
353.16837,1.14258
352.92729,1.14784
352.68622,1.15388
352.44515,1.15965
352.20408,1.16379
351.96301,1.16574
351.72194,1.16578
351.48087,1.16429
351.23980,1.16246
350.99873,1.16196
350.75766,1.16218
350.51659,1.16023
350.27552,1.15556
350.03445,1.15164
349.79338,1.15172
349.55231,1.15519
349.31124,1.15996
349.07017,1.16505
348.82910,1.16962
348.58802,1.17288
348.34695,1.17493
348.10588,1.17499
347.86481,1.17046
347.62374,1.16209
347.38267,1.15727
347.14160,1.16307
346.90053,1.17747
346.65946,1.19090
346.41839,1.19684
346.17732,1.19741
345.93625,1.19916
345.69518,1.20483
345.45411,1.21097
345.21304,1.21354
344.97197,1.21136
344.73090,1.20587
344.48983,1.20092
344.24875,1.20069
344.00768,1.20623
343.76661,1.21503
343.52554,1.22360
343.28447,1.22842
343.04340,1.22723
342.80233,1.22360
342.56126,1.22619
342.32019,1.23801
342.07912,1.25119
341.83805,1.25771
341.59698,1.26051
341.35591,1.26739
341.11484,1.27935
340.87377,1.29209
340.63270,1.30298
340.39163,1.31010
340.15056,1.31046
339.90948,1.30630
339.66841,1.30596
339.42734,1.31393
339.18627,1.32570
338.94520,1.33354
338.70413,1.33609
338.46306,1.33989
338.22199,1.34994
337.98092,1.36287
337.73985,1.36899
337.49878,1.36244
337.25771,1.34972
337.01664,1.34242
336.77557,1.34496
336.53450,1.35374
336.29343,1.36277
336.05236,1.36708
335.81129,1.36250
335.57021,1.34879
335.32914,1.33289
335.08807,1.32240
334.84700,1.31913
334.60593,1.31942
334.36486,1.31781
334.12379,1.31226
333.88272,1.30473
333.64165,1.29744
333.40058,1.29174
333.15951,1.29045
332.91844,1.29661
332.67737,1.30694
332.43630,1.31194
332.19523,1.30653
331.95416,1.29629
331.71309,1.28986
331.47202,1.28961
331.23094,1.29192
330.98987,1.29240
330.74880,1.28776
330.50773,1.27503
330.26666,1.25497
330.02559,1.23431
329.78452,1.22114
329.54345,1.21892
329.30238,1.22432
329.06131,1.23000
328.82024,1.22987
328.57917,1.22235
328.33810,1.21199
328.09703,1.20756
327.85596,1.21423
327.61489,1.22773
327.37382,1.23971
327.13275,1.24882
326.89167,1.25946
326.65060,1.26934
326.40953,1.26903
326.16846,1.25824
325.92739,1.24858
325.68632,1.24553
325.44525,1.24427
325.20418,1.24228
324.96311,1.24325
324.72204,1.24968
324.48097,1.25926
324.23990,1.26718
323.99883,1.26654
323.75776,1.25179
323.51669,1.22865
323.27562,1.21299
323.03455,1.21462
322.79348,1.22772
322.55240,1.23899
322.31133,1.24339
322.07026,1.24429
321.82919,1.24343
321.58812,1.24160
321.34705,1.24219
321.10598,1.24830
320.86491,1.25880
320.62384,1.26889
320.38277,1.27322
320.14170,1.27089
319.90063,1.26540
319.65956,1.25969
319.41849,1.25466
319.17742,1.25026
318.93635,1.24595
318.69528,1.24027
318.45421,1.23362
318.21313,1.23161
317.97206,1.23916
317.73099,1.25132
317.48992,1.25731
317.24885,1.25422
317.00778,1.24927
316.76671,1.25133
316.52564,1.26319
316.28457,1.27774
316.04350,1.28183
315.80243,1.26965
315.56136,1.25181
315.32029,1.24269
315.07922,1.24530
314.83815,1.25501
314.59708,1.26679
314.35601,1.27503
314.11494,1.27815
313.87386,1.28273
313.63279,1.29326
313.39172,1.30521
313.15065,1.31338
312.90958,1.31754
312.66851,1.31590
312.42744,1.30647
312.18637,1.29569
311.94530,1.29271
311.70423,1.29874
311.46316,1.30915
311.22209,1.32098
310.98102,1.33413
310.73995,1.34622
310.49888,1.35213
310.25781,1.34950
310.01674,1.33892
309.77567,1.32643
309.53459,1.32169
309.29352,1.32741
309.05245,1.33716
308.81138,1.34471
308.57031,1.34924
308.32924,1.34930
308.08817,1.34211
307.84710,1.33202
307.60603,1.32793
307.36496,1.33312
307.12389,1.34445
306.88282,1.35726
306.64175,1.36708
306.40068,1.36894
306.15961,1.35978
305.91854,1.34274
305.67747,1.32567
305.43640,1.31460
305.19532,1.30898
304.95425,1.30452
304.71318,1.30120
304.47211,1.30399
304.23104,1.31421
303.98997,1.32330
303.74890,1.31956
303.50783,1.30467
303.26676,1.29421
303.02569,1.29762
302.78462,1.30660
302.54355,1.30506
302.30248,1.28986
302.06141,1.27311
301.82034,1.26420
301.57927,1.26068
301.33820,1.25509
301.09713,1.24649
300.85605,1.24163
300.61498,1.24375
300.37391,1.24725
300.13284,1.24530
299.89177,1.23792
299.65070,1.22946
299.40963,1.22235
299.16856,1.21665
298.92749,1.21250
298.68642,1.20908
298.44535,1.20304
298.20428,1.19232
297.96321,1.18071
297.72214,1.17395
297.48107,1.17288
297.24000,1.17305
296.99893,1.16964
296.75786,1.16243
296.51678,1.15445
296.27571,1.14734
296.03464,1.14188
295.79357,1.14047
295.55250,1.14432
295.31143,1.14890
295.07036,1.14725
294.82929,1.13835
294.58822,1.12859
294.34715,1.12461
294.10608,1.12595
293.86501,1.12609
293.62394,1.12108
293.38287,1.11422
293.14180,1.11012
292.90073,1.10869
292.65966,1.10778
292.41859,1.10680
292.17751,1.10482
291.93644,1.10043
291.69537,1.09480
291.45430,1.09048
291.21323,1.08762
290.97216,1.08440
290.73109,1.07997
290.49002,1.07498
290.24895,1.07074
290.00788,1.06864
289.76681,1.06917
289.52574,1.07178
289.28467,1.07538
289.04360,1.07804
288.80253,1.07718
288.56146,1.07218
288.32039,1.06603
288.07932,1.06232
287.83824,1.06069
287.59717,1.05767
287.35610,1.05249
287.11503,1.04865
286.87396,1.04900
286.63289,1.05259
286.39182,1.05714
286.15075,1.06121
285.90968,1.06325
285.66861,1.06172
285.42754,1.05719
285.18647,1.05231
284.94540,1.04938
284.70433,1.04862
284.46326,1.04856
284.22219,1.04780
283.98112,1.04634
283.74005,1.04526
283.49897,1.04636
283.25790,1.05179
283.01683,1.06097
282.77576,1.06809
282.53469,1.06646
282.29362,1.05687
282.05255,1.04784
281.81148,1.04575
281.57041,1.04816
281.32934,1.04873
281.08827,1.04599
280.84720,1.04382
280.60613,1.04465
280.36506,1.04658
280.12399,1.04694
279.88292,1.04533
279.64185,1.04307
279.40078,1.04250
279.15970,1.04623
278.91863,1.05423
278.67756,1.06155
278.43649,1.06244
278.19542,1.05734
277.95435,1.05233
277.71328,1.05184
277.47221,1.05549
277.23114,1.06066
276.99007,1.06502
276.74900,1.06755
276.50793,1.06877
276.26686,1.06973
276.02579,1.07032
275.78472,1.06914
275.54365,1.06571
275.30258,1.06223
275.06151,1.06139
274.82043,1.06271
274.57936,1.06295
274.33829,1.06117
274.09722,1.06003
273.85615,1.06141
273.61508,1.06455
273.37401,1.06907
273.13294,1.07536
272.89187,1.08199
272.65080,1.08684
272.40973,1.09037
272.16866,1.09383
271.92759,1.09565
271.68652,1.09429
271.44545,1.09240
271.20438,1.09396
270.96331,1.09918
270.72224,1.10537
270.48116,1.11106
270.24009,1.11618
269.99902,1.12032
269.75795,1.12369
269.51688,1.12713
269.27581,1.13010
269.03474,1.13193
268.79367,1.13447
268.55260,1.13929
268.31153,1.14486
268.07046,1.15009
267.82939,1.15656
267.58832,1.16427
267.34725,1.16996
267.10618,1.17272
266.86511,1.17601
266.62404,1.18265
266.38297,1.19208
266.14189,1.20181
265.90082,1.20862
265.65975,1.21110
265.41868,1.21270
265.17761,1.21945
264.93654,1.23457
264.69547,1.25641
264.45440,1.27942
264.21333,1.29693
263.97226,1.30702
263.73119,1.31508
263.49012,1.32649
263.24905,1.34002
263.00798,1.35128
262.76691,1.35999
262.52584,1.37080
262.28477,1.38764
262.04370,1.41008
261.80262,1.43504
261.56155,1.45931
261.32048,1.47982
261.07941,1.49618
260.83834,1.51518
260.59727,1.54553
260.35620,1.58582
260.11513,1.62314
259.87406,1.64688
259.63299,1.66046
259.39192,1.67384
259.15085,1.69329
258.90978,1.72567
258.66871,1.77405
258.42764,1.81682
258.18657,1.81657
257.94550,1.78151
257.70443,1.75249
257.46335,1.74520
257.22228,1.74781
256.98121,1.74517
256.74014,1.73303
256.49907,1.71349
256.25800,1.69086
256.01693,1.66963
255.77586,1.65052
255.53479,1.63435
255.29372,1.62318
255.05265,1.61338
254.81158,1.59884
254.57051,1.58038
254.32944,1.56404
254.08837,1.55625
253.84730,1.55768
253.60623,1.55964
253.36516,1.55324
253.12408,1.54174
252.88301,1.53552
252.64194,1.53519
252.40087,1.53119
252.15980,1.52063
251.91873,1.51007
251.67766,1.50441
251.43659,1.50233
251.19552,1.49933
250.95445,1.49368
250.71338,1.48821
250.47231,1.48476
250.23124,1.48167
249.99017,1.47768
249.74910,1.47410
249.50803,1.47278
249.26696,1.47519
249.02589,1.48162
248.78481,1.48856
248.54374,1.49060
248.30267,1.48764
248.06160,1.48625
247.82053,1.49073
247.57946,1.49567
247.33839,1.49216
247.09732,1.48110
246.85625,1.47391
246.61518,1.47933
246.37411,1.49468
246.13304,1.51142
245.89197,1.52550
245.65090,1.53864
245.40983,1.55187
245.16876,1.56380
244.92769,1.57704
244.68661,1.59950
244.44554,1.63323
244.20447,1.66845
243.96340,1.69614
243.72233,1.72094
243.48126,1.75320
243.24019,1.79635
242.99912,1.84535
242.75805,1.89041
242.51698,1.90564
242.27591,1.85228
242.03484,1.75695
241.79377,1.66186
241.55270,1.57208
241.31163,1.48844
241.07056,1.41117
240.82949,1.33731
240.58842,1.26829
240.34734,1.21023
240.10627,1.16587
239.86520,1.13116
239.62413,1.09966
239.38306,1.06761
239.14199,1.03596
238.90092,1.00803
238.65985,0.98453
238.41878,0.96275
238.17771,0.94111
237.93664,0.92201
237.69557,0.90791
237.45450,0.89715
237.21343,0.88560
236.97236,0.87138
236.73129,0.85619
236.49022,0.84272
236.24915,0.83235
236.00807,0.82461
235.76700,0.81802
235.52593,0.81184
235.28486,0.80673
235.04379,0.80303
234.80272,0.79974
234.56165,0.79578
234.32058,0.79130
234.07951,0.78727
233.83844,0.78428
233.59737,0.78163
233.35630,0.77789
233.11523,0.77322
232.87416,0.76983
232.63309,0.76891
232.39202,0.76867
232.15095,0.76694
231.90988,0.76382
231.66880,0.76055
231.42773,0.75738
231.18666,0.75411
230.94559,0.75187
230.70452,0.75241
230.46345,0.75544
230.22238,0.75803
229.98131,0.75802
229.74024,0.75651
229.49917,0.75563
229.25810,0.75558
229.01703,0.75521
228.77596,0.75408
228.53489,0.75251
228.29382,0.75084
228.05275,0.74943
227.81168,0.74817
227.57061,0.74589
227.32953,0.74180
227.08846,0.73750
226.84739,0.73597
226.60632,0.73846
226.36525,0.74335
226.12418,0.74825
225.88311,0.75196
225.64204,0.75415
225.40097,0.75497
225.15990,0.75577
224.91883,0.75810
224.67776,0.76180
224.43669,0.76576
224.19562,0.76977
223.95455,0.77357
223.71348,0.77569
223.47241,0.77568
223.23134,0.77557
222.99026,0.77765
222.74919,0.78264
222.50812,0.78999
222.26705,0.79825
222.02598,0.80584
221.78491,0.81198
221.54384,0.81667
221.30277,0.82097
221.06170,0.82698
220.82063,0.83546
220.57956,0.84450
220.33849,0.85286
220.09742,0.86229
219.85635,0.87444
219.61528,0.88854
219.37421,0.90350
219.13314,0.91883
218.89207,0.93346
218.65099,0.94651
218.40992,0.95865
218.16885,0.97066
217.92778,0.98218
217.68671,0.99328
217.44564,1.00559
217.20457,1.02054
216.96350,1.03750
216.72243,1.05484
216.48136,1.07207
216.24029,1.08902
215.99922,1.10398
215.75815,1.11504
215.51708,1.12282
215.27601,1.12949
215.03494,1.13682
214.79387,1.14744
214.55280,1.16507
214.31172,1.19038
214.07065,1.21884
213.82958,1.24437
213.58851,1.26337
213.34744,1.27481
213.10637,1.27914
212.86530,1.27999
212.62423,1.28384
212.38316,1.29394
212.14209,1.30837
211.90102,1.32396
211.65995,1.33740
211.41888,1.34511
211.17781,1.34459
210.93674,1.33708
210.69567,1.32886
210.45460,1.32734
210.21353,1.33506
209.97245,1.34715
209.73138,1.35483
209.49031,1.35314
209.24924,1.34434
209.00817,1.33332
208.76710,1.32278
208.52603,1.31321
208.28496,1.30426
208.04389,1.29453
207.80282,1.28241
207.56175,1.26947
207.32068,1.25973
207.07961,1.25381
206.83854,1.24706
206.59747,1.23529
206.35640,1.22075
206.11533,1.20885
205.87426,1.19988
205.63318,1.18855
205.39211,1.17190
205.15104,1.15285
204.90997,1.13507
204.66890,1.11967
204.42783,1.10677
204.18676,1.09529
203.94569,1.08196
203.70462,1.06510
203.46355,1.04797
203.22248,1.03398
202.98141,1.02106
202.74034,1.00438
202.49927,0.98332
202.25820,0.96118
202.01713,0.94006
201.77606,0.92050
201.53499,0.90324
201.29391,0.88872
201.05284,0.87600
200.81177,0.86338
200.57070,0.84947
200.32963,0.83386
200.08856,0.81775
199.84749,0.80360
199.60642,0.79289
199.36535,0.78388
199.12428,0.77322
198.88321,0.75996
198.64214,0.74635
198.40107,0.73454
198.16000,0.72455
197.91893,0.71544
197.67786,0.70662
197.43679,0.69739
197.19572,0.68701
196.95464,0.67578
196.71357,0.66550
196.47250,0.65825
196.23143,0.65410
195.99036,0.65014
195.74929,0.64311
195.50822,0.63332
195.26715,0.62409
195.02608,0.61771
194.78501,0.61341
194.54394,0.60895
194.30287,0.60327
194.06180,0.59719
193.82073,0.59208
193.57966,0.58867
193.33859,0.58637
193.09752,0.58324
192.85645,0.57755
192.61537,0.57026
192.37430,0.56444
192.13323,0.56139
191.89216,0.55890
191.65109,0.55455
191.41002,0.54923
191.16895,0.54547
190.92788,0.54382
190.68681,0.54237
190.44574,0.53932
190.20467,0.53534
189.96360,0.53272
189.72253,0.53244
189.48146,0.53286
189.24039,0.53165
188.99932,0.52868
188.75825,0.52588
188.51718,0.52423
188.27610,0.52276
188.03503,0.52091
187.79396,0.51972
187.55289,0.51994
187.31182,0.52084
187.07075,0.52154
186.82968,0.52174
186.58861,0.52114
186.34754,0.51983
186.10647,0.51881
185.86540,0.51870
185.62433,0.51875
185.38326,0.51833
185.14219,0.51814
184.90112,0.51899
184.66005,0.52053
184.41898,0.52241
184.17791,0.52566
183.93683,0.53090
183.69576,0.53603
183.45469,0.53845
183.21362,0.53907
182.97255,0.54088
182.73148,0.54407
182.49041,0.54617
182.24934,0.54639
182.00827,0.54649
181.76720,0.54738
181.52613,0.54814
181.28506,0.54827
181.04399,0.54858
180.80292,0.54965
180.56185,0.55167
180.32078,0.55535
180.07971,0.56102
179.83864,0.56724
179.59756,0.57235
179.35649,0.57679
179.11542,0.58183
178.87435,0.58785
178.63328,0.59506
178.39221,0.60368
178.15114,0.61309
177.91007,0.62282
177.66900,0.63370
177.42793,0.64635
177.18686,0.66018
176.94579,0.67462
176.70472,0.68969
176.46365,0.70554
176.22258,0.72251
175.98151,0.74075
175.74044,0.76004
175.49937,0.78140
175.25829,0.80660
175.01722,0.83468
174.77615,0.86191
174.53508,0.88655
174.29401,0.91024
174.05294,0.93445
173.81187,0.95871
173.57080,0.98166
173.32973,1.00076
173.08866,1.01266
172.84759,1.01722
172.60652,1.01969
172.36545,1.02542
172.12438,1.03375
171.88331,1.04017
171.64224,1.04316
171.40117,1.04480
171.16010,1.04619
170.91902,1.04658
170.67795,1.04501
170.43688,1.03988
170.19581,1.02928
169.95474,1.01396
169.71367,0.99796
169.47260,0.98519
169.23153,0.97648
168.99046,0.96941
168.74939,0.96098
168.50832,0.95143
168.26725,0.94448
168.02618,0.94296
167.78511,0.94583
167.54404,0.94990
167.30297,0.95318
167.06190,0.95561
166.82083,0.95709
166.57975,0.95666
166.33868,0.95401
166.09761,0.95111
165.85654,0.95207
165.61547,0.96016
165.37440,0.97436
165.13333,0.98983
164.89226,1.00365
164.65119,1.01786
164.41012,1.03454
164.16905,1.05102
163.92798,1.06329
163.68691,1.07185
163.44584,1.08058
163.20477,1.09229
162.96370,1.10714
162.72263,1.12228
162.48156,1.13392
162.24048,1.14184
161.99941,1.15054
161.75834,1.16477
161.51727,1.18437
161.27620,1.20248
161.03513,1.20935
160.79406,1.20132
160.55299,1.18546
160.31192,1.17221
160.07085,1.16603
159.82978,1.16445
159.58871,1.16302
159.34764,1.15930
159.10657,1.15272
158.86550,1.14264
158.62443,1.12924
158.38336,1.11460
158.14229,1.10093
157.90121,1.09026
157.66014,1.08508
157.41907,1.08541
157.17800,1.08700
156.93693,1.08462
156.69586,1.07623
156.45479,1.06340
156.21372,1.05000
155.97265,1.04051
155.73158,1.03641
155.49051,1.03403
155.24944,1.02780
155.00837,1.01555
154.76730,0.99918
154.52623,0.98151
154.28516,0.96463
154.04409,0.94915
153.80302,0.93310
153.56194,0.91336
153.32087,0.88956
153.07980,0.86455
152.83873,0.84098
152.59766,0.81969
152.35659,0.80072
152.11552,0.78357
151.87445,0.76639
151.63338,0.74689
151.39231,0.72463
151.15124,0.70199
150.91017,0.68229
150.66910,0.66670
150.42803,0.65333
150.18696,0.63927
149.94589,0.62338
149.70482,0.60698
149.46375,0.59224
149.22267,0.58073
148.98160,0.57268
148.74053,0.56676
148.49946,0.56069
148.25839,0.55295
148.01732,0.54459
147.77625,0.53861
147.53518,0.53709
147.29411,0.53922
147.05304,0.54223
146.81197,0.54416
146.57090,0.54517
146.32983,0.54644
146.08876,0.54878
145.84769,0.55255
145.60662,0.55767
145.36555,0.56334
145.12448,0.56865
144.88340,0.57368
144.64233,0.57930
144.40126,0.58566
144.16019,0.59117
143.91912,0.59387
143.67805,0.59361
143.43698,0.59185
143.19591,0.58890
142.95484,0.58326
142.71377,0.57454
142.47270,0.56464
142.23163,0.55501
141.99056,0.54509
141.74949,0.53445
141.50842,0.52446
141.26735,0.51689
141.02628,0.51183
140.78521,0.50785
140.54413,0.50399
140.30306,0.50094
140.06199,0.49987
139.82092,0.50083
139.57985,0.50350
139.33878,0.50838
139.09771,0.51577
138.85664,0.52481
138.61557,0.53483
138.37450,0.54610
138.13343,0.55829
137.89236,0.57046
137.65129,0.58328
137.41022,0.59897
137.16915,0.61819
136.92808,0.63945
136.68701,0.66184
136.44594,0.68571
136.20486,0.71031
135.96379,0.73455
135.72272,0.76058
135.48165,0.79226
135.24058,0.82924
134.99951,0.86717
134.75844,0.90432
134.51737,0.94274
134.27630,0.98296
134.03523,1.02267
133.79416,1.05976
133.55309,1.09303
133.31202,1.12306
133.07095,1.15284
132.82988,1.18314
132.58881,1.21034
132.34774,1.23227
132.10667,1.24827
131.86559,1.25436
131.62452,1.24694
131.38345,1.22719
131.14238,1.19805
130.90131,1.16270
130.66024,1.12588
130.41917,1.09046
130.17810,1.05498
129.93703,1.01714
129.69596,0.97551
129.45489,0.92991
129.21382,0.88347
128.97275,0.84124
128.73168,0.80474
128.49061,0.77056
128.24954,0.73549
128.00847,0.70048
127.76740,0.66857
127.52632,0.64098
127.28525,0.61653
127.04418,0.59351
126.80311,0.57131
126.56204,0.55047
126.32097,0.53168
126.07990,0.51503
125.83883,0.49999
125.59776,0.48606
125.35669,0.47307
125.11562,0.46122
124.87455,0.45082
124.63348,0.44179
124.39241,0.43357
124.15134,0.42601
123.91027,0.42016
123.66920,0.41689
123.42812,0.41529
123.18705,0.41363
122.94598,0.41183
122.70491,0.41136
122.46384,0.41279
122.22277,0.41505
121.98170,0.41723
121.74063,0.41973
121.49956,0.42322
121.25849,0.42759
121.01742,0.43263
120.77635,0.43911
120.53528,0.44810
120.29421,0.45957
120.05314,0.47243
119.81207,0.48640
119.57100,0.50269
119.32993,0.52257
119.08885,0.54628
118.84778,0.57392
118.60671,0.60618
118.36564,0.64327
118.12457,0.68313
117.88350,0.72153
117.64243,0.75456
117.40136,0.78062
117.16029,0.79961
116.91922,0.81136
116.67815,0.81524
116.43708,0.81061
116.19601,0.79736
115.95494,0.77685
115.71387,0.75300
115.47280,0.73121
115.23173,0.71498
114.99066,0.70369
114.74958,0.69479
114.50851,0.68702
114.26744,0.68066
114.02637,0.67611
113.78530,0.67302
113.54423,0.67023
113.30316,0.66652
113.06209,0.66242
112.82102,0.66082
112.57995,0.66442
112.33888,0.67352
112.09781,0.68716
111.85674,0.70455
111.61567,0.72463
111.37460,0.74527
111.13353,0.76280
110.89246,0.77242
110.65139,0.77157
110.41031,0.76365
110.16924,0.75388
109.92817,0.74242
109.68710,0.72578
109.44603,0.70330
109.20496,0.67762
108.96389,0.65095
108.72282,0.62475
108.48175,0.60131
108.24068,0.58246
107.99961,0.56710
107.75854,0.55144
107.51747,0.53191
107.27640,0.50817
107.03533,0.48325
106.79426,0.46084
106.55319,0.44287
106.31212,0.42933
106.07104,0.41941
105.82997,0.41195
105.58890,0.40494
105.34783,0.39578
105.10676,0.38318
104.86569,0.36834
104.62462,0.35385
104.38355,0.34211
104.14248,0.33411
103.90141,0.32903
103.66034,0.32498
103.41927,0.31993
103.17820,0.31254
102.93713,0.30338
102.69606,0.29486
102.45499,0.28913
102.21392,0.28610
101.97285,0.28379
101.73177,0.28044
101.49070,0.27568
101.24963,0.27037
101.00856,0.26618
100.76749,0.26467
100.52642,0.26526
100.28535,0.26484
100.04428,0.26077
99.80321,0.25399
99.56214,0.24806
99.32107,0.24560
99.08000,0.24632
98.83893,0.24766
98.59786,0.24705
98.35679,0.24416
98.11572,0.24072
97.87465,0.23908
97.63358,0.24123
97.39250,0.24732
97.15143,0.25405
96.91036,0.25669
96.66929,0.25533
96.42822,0.25641
96.18715,0.26552
95.94608,0.28024
95.70501,0.29208
95.46394,0.29733
95.22287,0.30184
94.98180,0.31128
94.74073,0.32274
94.49966,0.32885
94.25859,0.32861
94.01752,0.32842
93.77645,0.33188
93.53538,0.33523
93.29431,0.33415
93.05323,0.33076
92.81216,0.32937
92.57109,0.32995
92.33002,0.33056
92.08895,0.33207
91.84788,0.33617
91.60681,0.34200
91.36574,0.34957
91.12467,0.36246
90.88360,0.38301
90.64253,0.40917
90.40146,0.44005
90.16039,0.47865
89.91932,0.52494
89.67825,0.57474
89.43718,0.62841
89.19611,0.68689
88.95504,0.73893
88.71396,0.76832
88.47289,0.77089
88.23182,0.74921
87.99075,0.70643
87.74968,0.65099
87.50861,0.59171
87.26754,0.53375
87.02647,0.48212
86.78540,0.44042
86.54433,0.40720
86.30326,0.37849
86.06219,0.35209
85.82112,0.32794
85.58005,0.30651
85.33898,0.28816
85.09791,0.27255
84.85684,0.25866
84.61577,0.24569
84.37469,0.23381
84.13362,0.22398
83.89255,0.21679
83.65148,0.21133
83.41041,0.20588
83.16934,0.19965
82.92827,0.19320
82.68720,0.18769
82.44613,0.18414
82.20506,0.18257
81.96399,0.18165
81.72292,0.17990
81.48185,0.17737
81.24078,0.17531
80.99971,0.17449
80.75864,0.17441
80.51757,0.17390
80.27650,0.17240
80.03542,0.17041
79.79435,0.16868
79.55328,0.16740
79.31221,0.16647
79.07114,0.16608
78.83007,0.16649
78.58900,0.16755
78.34793,0.16828
78.10686,0.16740
77.86579,0.16432
77.62472,0.15984
77.38365,0.15549
77.14258,0.15224
76.90151,0.15008
76.66044,0.14859
76.41937,0.14729
76.17830,0.14558
75.93723,0.14312
75.69615,0.14036
75.45508,0.13854
75.21401,0.13882
74.97294,0.14117
74.73187,0.14371
74.49080,0.14436
74.24973,0.14343
74.00866,0.14353
73.76759,0.14653
73.52652,0.15160
73.28545,0.15624
73.04438,0.15864
72.80331,0.15890
72.56224,0.15855
72.32117,0.15885
72.08010,0.15991
71.83903,0.16143
71.59796,0.16355
71.35688,0.16562
71.11581,0.16570
70.87474,0.16319
70.63367,0.16086
70.39260,0.16304
70.15153,0.17261
69.91046,0.18972
69.66939,0.21197
69.42832,0.23497
69.18725,0.25330
68.94618,0.26225
68.70511,0.25965
68.46404,0.24633
68.22297,0.22590
67.98190,0.20387
67.74083,0.18528
67.49976,0.17241
67.25869,0.16471
67.01761,0.16042
66.77654,0.15794
66.53547,0.15573
66.29440,0.15232
66.05333,0.14785
65.81226,0.14474
65.57119,0.14556
65.33012,0.15038
65.08905,0.15756
64.84798,0.16621
64.60691,0.17637
64.36584,0.18667
64.12477,0.19342
63.88370,0.19327
63.64263,0.18637
63.40156,0.17608
63.16049,0.16577
62.91942,0.15664
62.67834,0.14825
62.43727,0.14023
62.19620,0.13303
61.95513,0.12764
61.71406,0.12498
61.47299,0.12490
61.23192,0.12582
60.99085,0.12648
60.74978,0.12796
60.50871,0.13284
60.26764,0.14218
60.02657,0.15423
59.78550,0.16571
59.54443,0.17366
59.30336,0.17651
59.06229,0.17397
58.82122,0.16623
58.58015,0.15415
58.33907,0.14045
58.09800,0.12915
57.85693,0.12321
57.61586,0.12301
57.37479,0.12678
57.13372,0.13195
56.89265,0.13668
56.65158,0.14070
56.41051,0.14519
56.16944,0.15189
55.92837,0.16088
55.68730,0.16844
55.44623,0.16850
55.20516,0.15845
54.96409,0.14216
54.72302,0.12644
54.48195,0.11607
54.24088,0.11317
53.99980,0.12003
53.75873,0.13916
53.51766,0.16741
53.27659,0.19152
53.03552,0.19570
52.79445,0.17807
52.55338,0.15126
52.31231,0.12831
52.07124,0.11784
51.83017,0.12481
51.58910,0.14819
51.34803,0.17526
51.10696,0.18402
50.86589,0.16800
50.62482,0.14496
50.38375,0.13217
50.14268,0.13704
49.90161,0.15861
49.66053,0.18320
49.41946,0.18408
49.17839,0.15503
48.93732,0.12746
48.69625,0.12945
48.45518,0.16601
48.21411,0.20589
47.97304,0.19224
47.73197,0.14642
47.49090,0.12785
47.24983,0.14846
47.00876,0.17257
46.76769,0.15724
46.52662,0.12674
46.28555,0.12056
46.04448,0.13453
45.80341,0.14344
45.56234,0.14526
45.32126,0.15151
45.08019,0.15444
44.83912,0.14823
44.59805,0.14727
44.35698,0.15320
44.11591,0.14938
43.87484,0.13852
43.63377,0.13702
43.39270,0.14429
43.15163,0.15124
42.91056,0.15987
42.66949,0.17088
42.42842,0.17606
42.18735,0.17337
41.94628,0.16856
41.70521,0.16475
41.46414,0.16148
41.22307,0.15711
40.98199,0.15175
40.74092,0.15045
40.49985,0.15848
40.25878,0.17534
40.01771,0.19409
39.77664,0.20509
39.53557,0.20432
39.29450,0.19950
39.05343,0.20064
38.81236,0.20816
38.57129,0.21740
38.33022,0.22696
38.08915,0.23633
37.84808,0.24244
37.60701,0.24201
37.36594,0.23479
37.12487,0.22361
36.88380,0.21056
36.64272,0.19659
36.40165,0.18542
36.16058,0.18166
35.91951,0.18309
35.67844,0.18270
35.43737,0.18042
35.19630,0.18290
34.95523,0.19054
34.71416,0.19335
34.47309,0.18503
34.23202,0.17482
33.99095,0.17543
33.74988,0.18359
33.50881,0.18451
33.26774,0.17275
33.02667,0.15520
32.78560,0.14130
32.54453,0.13674
32.30345,0.13898
32.06238,0.14047
31.82131,0.13719
31.58024,0.13053
31.33917,0.12196
31.09810,0.10991
30.85703,0.09121
30.61596,0.06633
30.37489,0.04256
30.13382,0.02726
29.89275,0.02049
29.65168,0.01433
29.41061,-0.00168
29.16954,-0.03136
28.92847,-0.06560
28.68740,-0.08806
28.44633,-0.09160
28.20526,-0.08599
27.96418,-0.08629
27.72311,-0.09808
27.48204,-0.11600
27.24097,-0.13196
26.99990,-0.14103
26.75883,-0.14500
26.51776,-0.15155
26.27669,-0.16465
26.03562,-0.17805
25.79455,-0.18737
25.55348,-0.20014
25.31241,-0.21999
25.07134,-0.23545
24.83027,-0.23948
24.58920,-0.24401
24.34813,-0.26231
24.10706,-0.29156
23.86599,-0.31844
23.62491,-0.33833
23.38384,-0.35947
23.14277,-0.38376
22.90170,-0.40047
22.66063,-0.40337
22.41956,-0.39991
22.17849,-0.40307
21.93742,-0.41472
21.69635,-0.42748
21.45528,-0.43447
21.21421,-0.43570
20.97314,-0.43926
20.73207,-0.44700
20.49100,-0.45262
20.24993,-0.45189
20.00886,-0.44491
19.76779,-0.44204
19.52672,-0.45341
19.28564,-0.47448
19.04457,-0.49669
18.80350,-0.51679
18.56243,-0.52678
18.32136,-0.52048
18.08029,-0.50647
17.83922,-0.49627
17.59815,-0.50343
17.35708,-0.54134
17.11601,-0.59855
16.87494,-0.62757
16.63387,-0.59976
16.39280,-0.55426
16.15173,-0.54029
15.91066,-0.56140
15.66959,-0.57317
15.42852,-0.54319
15.18745,-0.51790
14.94637,-0.53339
14.70530,-0.57830
14.46423,-0.61430
14.22316,-0.63013
13.98209,-0.63861
13.74102,-0.61826
13.49995,-0.59043
13.25888,-0.56672
13.01781,-0.56779
12.77674,-0.58028
12.53567,-0.56423
12.29460,-0.55988
12.05353,-0.58530
11.81246,-0.62329
11.57139,-0.64276
11.33032,-0.63567
11.08925,-0.61012
10.84818,-0.56586
10.60710,-0.54169
10.36603,-0.57136
10.12496,-0.63136
9.88389,-0.66369
9.64282,-0.67308
9.40175,-0.67053
9.16068,-0.65141
8.91961,-0.62644
8.67854,-0.61294
8.43747,-0.60326
8.19640,-0.58082
7.95533,-0.56123
7.71426,-0.54738
7.47319,-0.54033
7.23212,-0.54707
6.99105,-0.56916
6.74998,-0.58140
6.50891,-0.58531
6.26783,-0.59098
6.02676,-0.59684
5.78569,-0.59821
5.54462,-0.59581
5.30355,-0.60063
5.06248,-0.60024
4.82141,-0.56862
4.58034,-0.52034
4.33927,-0.48975
4.09820,-0.48831
3.85713,-0.50652
3.61606,-0.53258
3.37499,-0.55617
3.13392,-0.56622
2.89285,-0.56954
2.65178,-0.56764
2.41071,-0.55359
2.16964,-0.53807
1.92856,-0.52547
1.68749,-0.50215
1.44642,-0.49038
1.20535,-0.49914
0.96428,-0.51311
0.72321,-0.55691
0.48214,-0.63487
0.24107,-0.58845
-0.00000,-0.13924
