399.69498,1.56130
399.45391,1.56124
399.21284,1.55185
398.97177,1.55030
398.73070,1.56145
398.48963,1.57730
398.24856,1.58877
398.00749,1.58818
397.76642,1.57173
397.52535,1.54636
397.28428,1.52720
397.04321,1.52261
396.80214,1.52819
396.56107,1.53612
396.32000,1.54226
396.07892,1.54469
395.83785,1.54764
395.59678,1.56050
395.35571,1.57995
395.11464,1.58506
394.87357,1.56310
394.63250,1.53007
394.39143,1.51135
394.15036,1.51264
393.90929,1.52558
393.66822,1.54564
393.42715,1.57081
393.18608,1.58670
392.94501,1.57732
392.70394,1.55203
392.46287,1.53873
392.22180,1.55231
391.98073,1.57771
391.73965,1.58890
391.49858,1.57984
391.25751,1.56312
391.01644,1.54461
390.77537,1.52667
390.53430,1.51944
390.29323,1.52321
390.05216,1.52078
389.81109,1.50528
389.57002,1.49427
389.32895,1.50075
389.08788,1.51430
388.84681,1.51689
388.60574,1.50376
388.36467,1.48414
388.12360,1.47049
387.88253,1.46760
387.64146,1.46695
387.40038,1.45740
387.15931,1.44301
386.91824,1.43836
386.67717,1.44801
386.43610,1.45759
386.19503,1.44900
385.95396,1.42663
385.71289,1.41480
385.47182,1.42536
385.23075,1.44083
384.98968,1.43404
384.74861,1.40314
384.50754,1.37019
384.26647,1.34971
384.02540,1.33801
383.78433,1.32727
383.54326,1.32265
383.30219,1.33792
383.06111,1.37092
382.82004,1.39270
382.57897,1.37622
382.33790,1.33553
382.09683,1.30669
381.85576,1.30430
381.61469,1.31367
381.37362,1.31342
381.13255,1.29990
380.89148,1.28558
380.65041,1.28263
380.40934,1.29196
380.16827,1.30419
379.92720,1.31212
379.68613,1.31769
379.44506,1.32243
379.20399,1.32600
378.96292,1.33281
378.72184,1.34503
378.48077,1.36008
378.23970,1.36945
377.99863,1.37161
377.75756,1.37678
377.51649,1.38439
377.27542,1.38954
377.03435,1.39218
376.79328,1.39292
376.55221,1.39645
376.31114,1.40908
376.07007,1.42803
375.82900,1.44407
375.58793,1.45101
375.34686,1.44704
375.10579,1.43595
374.86472,1.42930
374.62365,1.43963
374.38257,1.46409
374.14150,1.47959
373.90043,1.46737
373.65936,1.43977
373.41829,1.41928
373.17722,1.40667
372.93615,1.39225
372.69508,1.37864
372.45401,1.37548
372.21294,1.38137
371.97187,1.38489
371.73080,1.38011
371.48973,1.37045
371.24866,1.35843
371.00759,1.34527
370.76652,1.33612
370.52545,1.33376
370.28437,1.33278
370.04330,1.32813
369.80223,1.32533
369.56116,1.33210
369.32009,1.34302
369.07902,1.34287
368.83795,1.32528
368.59688,1.30307
368.35581,1.29359
368.11474,1.29883
367.87367,1.30550
367.63260,1.30154
367.39153,1.28927
367.15046,1.28126
366.90939,1.28461
366.66832,1.29154
366.42725,1.29182
366.18618,1.28854
365.94510,1.29050
365.70403,1.29737
365.46296,1.30199
365.22189,1.30346
364.98082,1.30454
364.73975,1.30146
364.49868,1.28996
364.25761,1.27360
364.01654,1.25907
363.77547,1.24984
363.53440,1.24663
363.29333,1.24891
363.05226,1.25346
362.81119,1.25502
362.57012,1.24978
362.32905,1.23840
362.08798,1.22845
361.84691,1.22888
361.60583,1.23743
361.36476,1.24088
361.12369,1.23591
360.88262,1.23642
360.64155,1.24941
360.40048,1.26030
360.15941,1.25452
359.91834,1.24024
359.67727,1.23404
359.43620,1.24063
359.19513,1.25385
358.95406,1.26503
358.71299,1.27000
358.47192,1.27265
358.23085,1.27853
357.98978,1.28455
357.74871,1.28182
357.50764,1.26991
357.26656,1.25807
357.02549,1.25118
356.78442,1.24560
356.54335,1.23846
356.30228,1.23270
356.06121,1.23132
355.82014,1.23200
355.57907,1.23022
355.33800,1.22464
355.09693,1.21943
354.85586,1.22122
354.61479,1.23028
354.37372,1.23696
354.13265,1.23194
353.89158,1.21730
353.65051,1.20270
353.40944,1.19601
353.16837,1.19958
352.92729,1.20945
352.68622,1.21834
352.44515,1.22245
352.20408,1.22385
351.96301,1.22606
351.72194,1.23070
351.48087,1.23694
351.23980,1.24221
350.99873,1.24445
350.75766,1.24423
350.51659,1.24460
350.27552,1.24795
350.03445,1.25337
349.79338,1.25834
349.55231,1.26117
349.31124,1.26085
349.07017,1.25801
348.82910,1.25635
348.58802,1.25934
348.34695,1.26523
348.10588,1.26810
347.86481,1.26663
347.62374,1.26732
347.38267,1.27560
347.14160,1.28797
346.90053,1.29672
346.65946,1.30051
346.41839,1.30316
346.17732,1.30509
345.93625,1.30283
345.69518,1.29532
345.45411,1.28873
345.21304,1.28981
344.97197,1.29784
344.73090,1.30641
344.48983,1.30928
344.24875,1.30762
344.00768,1.30967
343.76661,1.31767
343.52554,1.32309
343.28447,1.31988
343.04340,1.31370
342.80233,1.31334
342.56126,1.32070
342.32019,1.33181
342.07912,1.34315
341.83805,1.35191
341.59698,1.35468
341.35591,1.35176
341.11484,1.34673
340.87377,1.34133
340.63270,1.33613
340.39163,1.33420
340.15056,1.33940
339.90948,1.35098
339.66841,1.36261
339.42734,1.36864
339.18627,1.37015
338.94520,1.37207
338.70413,1.37829
338.46306,1.38905
338.22199,1.40183
337.98092,1.41705
337.73985,1.43550
337.49878,1.45126
337.25771,1.45488
337.01664,1.44306
336.77557,1.42361
336.53450,1.40978
336.29343,1.41001
336.05236,1.41841
335.81129,1.42609
335.57021,1.43566
335.32914,1.44850
335.08807,1.45480
334.84700,1.44425
334.60593,1.41780
334.36486,1.38751
334.12379,1.36826
333.88272,1.36624
333.64165,1.37524
333.40058,1.38557
333.15951,1.39205
332.91844,1.39535
332.67737,1.39300
332.43630,1.38023
332.19523,1.36410
331.95416,1.35830
331.71309,1.36851
331.47202,1.38485
331.23094,1.39112
330.98987,1.38194
330.74880,1.36546
330.50773,1.35275
330.26666,1.34578
330.02559,1.33856
329.78452,1.32769
329.54345,1.31409
329.30238,1.30372
329.06131,1.30443
328.82024,1.31784
328.57917,1.33850
328.33810,1.35643
328.09703,1.36304
327.85596,1.35536
327.61489,1.33673
327.37382,1.31744
327.13275,1.30912
326.89167,1.31614
326.65060,1.33413
326.40953,1.35132
326.16846,1.35197
325.92739,1.33287
325.68632,1.31096
325.44525,1.30451
325.20418,1.31364
324.96311,1.32400
324.72204,1.32666
324.48097,1.32528
324.23990,1.32500
323.99883,1.32480
323.75776,1.31994
323.51669,1.30914
323.27562,1.29935
323.03455,1.29983
322.79348,1.31333
322.55240,1.33584
322.31133,1.35822
322.07026,1.36378
321.82919,1.33933
321.58812,1.30101
321.34705,1.28087
321.10598,1.29222
320.86491,1.32278
320.62384,1.35356
320.38277,1.37533
320.14170,1.38252
319.90063,1.37040
319.65956,1.35123
319.41849,1.34173
319.17742,1.33912
318.93635,1.33260
318.69528,1.32330
318.45421,1.31984
318.21313,1.32199
317.97206,1.32034
317.73099,1.31061
317.48992,1.30003
317.24885,1.30106
317.00778,1.32027
316.76671,1.34858
316.52564,1.36473
316.28457,1.36056
316.04350,1.35066
315.80243,1.34372
315.56136,1.33027
315.32029,1.31016
315.07922,1.30277
314.83815,1.31792
314.59708,1.33913
314.35601,1.34648
314.11494,1.34196
313.87386,1.33916
313.63279,1.34333
313.39172,1.34936
313.15065,1.35241
312.90958,1.35415
312.66851,1.36091
312.42744,1.37550
312.18637,1.39157
311.94530,1.40155
311.70423,1.40223
311.46316,1.39306
311.22209,1.37809
310.98102,1.36321
310.73995,1.35086
310.49888,1.34215
310.25781,1.34364
310.01674,1.35877
309.77567,1.37739
309.53459,1.38859
309.29352,1.39429
309.05245,1.40077
308.81138,1.40594
308.57031,1.40584
308.32924,1.40697
308.08817,1.41834
307.84710,1.43437
307.60603,1.44211
307.36496,1.44169
307.12389,1.44095
306.88282,1.43721
306.64175,1.42396
306.40068,1.41140
306.15961,1.41777
305.91854,1.44548
305.67747,1.47584
305.43640,1.48478
305.19532,1.46516
304.95425,1.43023
304.71318,1.40103
304.47211,1.39165
304.23104,1.40029
303.98997,1.41130
303.74890,1.40741
303.50783,1.38568
303.26676,1.36035
303.02569,1.34689
302.78462,1.34703
302.54355,1.35055
302.30248,1.34863
302.06141,1.34108
301.82034,1.33153
301.57927,1.32218
301.33820,1.31476
301.09713,1.31240
300.85605,1.31553
300.61498,1.31864
300.37391,1.31327
300.13284,1.29601
299.89177,1.27624
299.65070,1.26940
299.40963,1.27808
299.16856,1.28859
298.92749,1.28795
298.68642,1.27903
298.44535,1.27236
298.20428,1.27036
297.96321,1.26704
297.72214,1.25668
297.48107,1.24079
297.24000,1.22733
296.99893,1.22236
296.75786,1.22213
296.51678,1.21808
296.27571,1.20941
296.03464,1.20306
295.79357,1.20289
295.55250,1.20454
295.31143,1.20223
295.07036,1.19777
294.82929,1.19798
294.58822,1.20497
294.34715,1.21319
294.10608,1.21483
293.86501,1.20717
293.62394,1.19519
293.38287,1.18668
293.14180,1.18435
292.90073,1.18362
292.65966,1.17906
292.41859,1.17146
292.17751,1.16632
291.93644,1.16698
291.69537,1.17204
291.45430,1.17732
291.21323,1.17883
290.97216,1.17536
290.73109,1.16917
290.49002,1.16380
290.24895,1.16178
290.00788,1.16287
289.76681,1.16448
289.52574,1.16489
289.28467,1.16489
289.04360,1.16456
288.80253,1.16085
288.56146,1.15146
288.32039,1.13828
288.07932,1.12534
287.83824,1.11678
287.59717,1.11599
287.35610,1.12198
287.11503,1.12903
286.87396,1.13321
286.63289,1.13577
286.39182,1.13861
286.15075,1.14030
285.90968,1.13767
285.66861,1.12934
285.42754,1.11797
285.18647,1.10934
284.94540,1.10772
284.70433,1.11203
284.46326,1.11708
284.22219,1.11916
283.98112,1.11968
283.74005,1.12227
283.49897,1.12779
283.25790,1.13363
283.01683,1.13538
282.77576,1.13018
282.53469,1.12049
282.29362,1.11269
282.05255,1.11017
281.81148,1.11080
281.57041,1.11254
281.32934,1.11710
281.08827,1.12630
280.84720,1.13729
280.60613,1.14379
280.36506,1.14274
280.12399,1.13734
279.88292,1.13226
279.64185,1.12934
279.40078,1.12864
279.15970,1.12956
278.91863,1.13088
278.67756,1.13120
278.43649,1.12892
278.19542,1.12339
277.95435,1.11623
277.71328,1.11075
277.47221,1.10983
277.23114,1.11429
276.99007,1.12210
276.74900,1.13025
276.50793,1.13750
276.26686,1.14274
276.02579,1.14267
275.78472,1.13608
275.54365,1.12796
275.30258,1.12388
275.06151,1.12355
274.82043,1.12347
274.57936,1.12369
274.33829,1.12803
274.09722,1.13804
273.85615,1.14935
273.61508,1.15485
273.37401,1.15199
273.13294,1.14635
272.89187,1.14553
272.65080,1.15124
272.40973,1.15904
272.16866,1.16517
271.92759,1.16999
271.68652,1.17371
271.44545,1.17561
271.20438,1.17741
270.96331,1.18026
270.72224,1.18052
270.48116,1.17619
270.24009,1.17278
269.99902,1.17465
269.75795,1.17760
269.51688,1.17670
269.27581,1.17494
269.03474,1.17853
268.79367,1.18855
268.55260,1.20174
268.31153,1.21581
268.07046,1.22905
267.82939,1.23841
267.58832,1.24295
267.34725,1.24490
267.10618,1.24580
266.86511,1.24548
266.62404,1.24454
266.38297,1.24543
266.14189,1.25126
265.90082,1.26270
265.65975,1.27519
265.41868,1.28302
265.17761,1.28709
264.93654,1.29370
264.69547,1.30565
264.45440,1.31922
264.21333,1.33004
263.97226,1.33785
263.73119,1.34637
263.49012,1.36054
263.24905,1.38213
263.00798,1.40850
262.76691,1.43570
262.52584,1.45908
262.28477,1.47304
262.04370,1.47848
261.80262,1.48590
261.56155,1.50343
261.32048,1.52964
261.07941,1.56028
260.83834,1.59324
260.59727,1.62505
260.35620,1.64947
260.11513,1.66166
259.87406,1.66209
259.63299,1.65937
259.39192,1.66854
259.15085,1.69927
258.90978,1.74537
258.66871,1.78999
258.42764,1.82308
258.18657,1.84621
257.94550,1.86182
257.70443,1.87050
257.46335,1.87535
257.22228,1.88026
256.98121,1.88555
256.74014,1.88714
256.49907,1.87641
256.25800,1.84800
256.01693,1.81279
255.77586,1.79184
255.53479,1.79650
255.29372,1.81313
255.05265,1.80574
254.81158,1.75835
254.57051,1.69513
254.32944,1.64402
254.08837,1.62060
253.84730,1.62570
253.60623,1.64119
253.36516,1.64421
253.12408,1.63301
252.88301,1.62373
252.64194,1.62505
252.40087,1.63044
252.15980,1.62780
251.91873,1.61197
251.67766,1.59193
251.43659,1.58211
251.19552,1.58725
250.95445,1.59688
250.71338,1.59420
250.47231,1.57464
250.23124,1.54983
249.99017,1.53373
249.74910,1.53423
249.50803,1.54924
249.26696,1.56624
249.02589,1.57100
248.78481,1.56118
248.54374,1.54797
248.30267,1.54416
248.06160,1.55022
247.82053,1.55556
247.57946,1.55747
247.33839,1.56352
247.09732,1.57334
246.85625,1.57662
246.61518,1.56884
246.37411,1.55759
246.13304,1.55216
245.89197,1.55468
245.65090,1.56089
245.40983,1.56576
245.16876,1.57067
244.92769,1.58172
244.68661,1.60286
244.44554,1.63874
244.20447,1.69502
243.96340,1.76859
243.72233,1.83758
243.48126,1.87583
243.24019,1.88864
242.99912,1.90385
242.75805,1.92497
242.51698,1.90831
242.27591,1.80589
242.03484,1.69605
241.79377,1.60433
241.55270,1.52522
241.31163,1.45296
241.07056,1.38488
240.82949,1.32586
240.58842,1.28150
240.34734,1.24755
240.10627,1.21208
239.86520,1.16936
239.62413,1.12577
239.38306,1.08951
239.14199,1.06205
238.90092,1.04086
238.65985,1.02383
238.41878,1.00843
238.17771,0.99123
237.93664,0.97145
237.69557,0.95247
237.45450,0.93719
237.21343,0.92418
236.97236,0.91038
236.73129,0.89556
236.49022,0.88183
236.24915,0.87070
236.00807,0.86267
235.76700,0.85797
235.52593,0.85634
235.28486,0.85699
235.04379,0.85838
234.80272,0.85748
234.56165,0.85190
234.32058,0.84300
234.07951,0.83410
233.83844,0.82659
233.59737,0.82059
233.35630,0.81673
233.11523,0.81447
232.87416,0.81195
232.63309,0.80868
232.39202,0.80588
232.15095,0.80424
231.90988,0.80334
231.66880,0.80322
231.42773,0.80502
231.18666,0.80984
230.94559,0.81617
230.70452,0.81916
230.46345,0.81517
230.22238,0.80709
229.98131,0.80068
229.74024,0.79730
229.49917,0.79464
229.25810,0.79258
229.01703,0.79243
228.77596,0.79196
228.53489,0.78817
228.29382,0.78437
228.05275,0.78644
227.81168,0.79276
227.57061,0.79604
227.32953,0.79447
227.08846,0.79205
226.84739,0.79041
226.60632,0.78903
226.36525,0.78932
226.12418,0.79254
225.88311,0.79716
225.64204,0.80125
225.40097,0.80404
225.15990,0.80449
224.91883,0.80184
224.67776,0.79775
224.43669,0.79468
224.19562,0.79309
223.95455,0.79273
223.71348,0.79531
223.47241,0.80288
223.23134,0.81386
222.99026,0.82324
222.74919,0.82769
222.50812,0.82942
222.26705,0.83386
222.02598,0.84341
221.78491,0.85431
221.54384,0.86161
221.30277,0.86590
221.06170,0.87190
220.82063,0.88243
220.57956,0.89653
220.33849,0.91070
220.09742,0.92074
219.85635,0.92504
219.61528,0.92632
219.37421,0.92877
219.13314,0.93542
218.89207,0.94768
218.65099,0.96430
218.40992,0.98172
218.16885,0.99710
217.92778,1.00959
217.68671,1.01936
217.44564,1.02818
217.20457,1.03990
216.96350,1.05771
216.72243,1.08136
216.48136,1.10620
216.24029,1.12529
215.99922,1.13546
215.75815,1.13960
215.51708,1.14146
215.27601,1.14406
215.03494,1.15215
214.79387,1.16846
214.55280,1.18901
214.31172,1.20851
214.07065,1.22567
213.82958,1.23985
213.58851,1.25035
213.34744,1.25995
213.10637,1.27293
212.86530,1.29049
212.62423,1.30980
212.38316,1.32674
212.14209,1.33937
211.90102,1.34832
211.65995,1.35339
211.41888,1.35260
211.17781,1.34732
210.93674,1.34227
210.69567,1.34197
210.45460,1.34951
210.21353,1.36057
209.97245,1.36270
209.73138,1.34809
209.49031,1.32516
209.24924,1.31084
209.00817,1.31294
208.76710,1.32604
208.52603,1.33846
208.28496,1.33980
208.04389,1.32885
207.80282,1.31177
207.56175,1.29456
207.32068,1.28177
207.07961,1.27703
206.83854,1.27965
206.59747,1.28055
206.35640,1.26692
206.11533,1.23656
205.87426,1.20203
205.63318,1.17665
205.39211,1.16486
205.15104,1.16397
204.90997,1.16592
204.66890,1.15931
204.42783,1.13907
204.18676,1.11130
203.94569,1.08587
203.70462,1.06847
203.46355,1.05808
203.22248,1.04978
202.98141,1.03940
202.74034,1.02459
202.49927,1.00482
202.25820,0.98325
202.01713,0.96467
201.77606,0.95024
201.53499,0.93605
201.29391,0.91807
201.05284,0.89770
200.81177,0.88025
200.57070,0.86917
200.32963,0.86270
200.08856,0.85483
199.84749,0.84058
199.60642,0.82162
199.36535,0.80466
199.12428,0.79460
198.88321,0.78945
198.64214,0.78227
198.40107,0.76984
198.16000,0.75641
197.91893,0.74719
197.67786,0.74192
197.43679,0.73550
197.19572,0.72448
196.95464,0.71153
196.71357,0.70117
196.47250,0.69423
196.23143,0.68801
195.99036,0.68041
195.74929,0.67222
195.50822,0.66532
195.26715,0.66037
195.02608,0.65624
194.78501,0.65092
194.54394,0.64344
194.30287,0.63491
194.06180,0.62707
193.82073,0.62043
193.57966,0.61467
193.33859,0.61045
193.09752,0.60889
192.85645,0.60887
192.61537,0.60726
192.37430,0.60281
192.13323,0.59789
191.89216,0.59473
191.65109,0.59218
191.41002,0.58792
191.16895,0.58254
190.92788,0.57876
190.68681,0.57716
190.44574,0.57536
190.20467,0.57188
189.96360,0.56804
189.72253,0.56505
189.48146,0.56197
189.24039,0.55801
188.99932,0.55455
188.75825,0.55376
188.51718,0.55584
188.27610,0.55828
188.03503,0.55803
187.79396,0.55488
187.55289,0.55187
187.31182,0.55182
187.07075,0.55429
186.82968,0.55636
186.58861,0.55618
186.34754,0.55482
186.10647,0.55411
185.86540,0.55416
185.62433,0.55438
185.38326,0.55563
185.14219,0.55850
184.90112,0.56093
184.66005,0.56084
184.41898,0.56050
184.17791,0.56355
183.93683,0.56871
183.69576,0.57139
183.45469,0.57116
183.21362,0.57197
182.97255,0.57481
182.73148,0.57681
182.49041,0.57721
182.24934,0.57770
182.00827,0.57819
181.76720,0.57745
181.52613,0.57635
181.28506,0.57658
181.04399,0.57713
180.80292,0.57636
180.56185,0.57580
180.32078,0.57818
180.07971,0.58335
179.83864,0.58886
179.59756,0.59356
179.35649,0.59862
179.11542,0.60589
178.87435,0.61619
178.63328,0.62770
178.39221,0.63710
178.15114,0.64362
177.91007,0.64970
177.66900,0.65748
177.42793,0.66773
177.18686,0.68110
176.94579,0.69731
176.70472,0.71460
176.46365,0.73182
176.22258,0.74951
175.98151,0.76881
175.74044,0.79022
175.49937,0.81235
175.25829,0.83238
175.01722,0.85039
174.77615,0.87089
174.53508,0.89705
174.29401,0.92636
174.05294,0.95322
173.81187,0.97336
173.57080,0.98773
173.32973,1.00152
173.08866,1.01642
172.84759,1.02826
172.60652,1.03510
172.36545,1.04027
172.12438,1.04673
171.88331,1.05498
171.64224,1.06332
171.40117,1.06714
171.16010,1.06362
170.91902,1.05570
170.67795,1.04587
170.43688,1.03198
170.19581,1.01406
169.95474,0.99802
169.71367,0.98923
169.47260,0.98773
169.23153,0.99008
168.99046,0.99258
168.74939,0.99235
168.50832,0.98798
168.26725,0.98016
168.02618,0.97024
167.78511,0.95939
167.54404,0.94978
167.30297,0.94467
167.06190,0.94586
166.82083,0.95224
166.57975,0.96114
166.33868,0.96975
166.09761,0.97570
165.85654,0.97853
165.61547,0.98071
165.37440,0.98544
165.13333,0.99378
164.89226,1.00398
164.65119,1.01324
164.41012,1.02143
164.16905,1.03239
163.92798,1.04845
163.68691,1.06583
163.44584,1.07946
163.20477,1.08950
162.96370,1.09995
162.72263,1.11387
162.48156,1.13179
162.24048,1.15156
161.99941,1.16782
161.75834,1.17500
161.51727,1.17270
161.27620,1.16585
161.03513,1.16043
160.79406,1.15904
160.55299,1.16017
160.31192,1.16243
160.07085,1.16579
159.82978,1.16623
159.58871,1.15549
159.34764,1.13208
159.10657,1.10622
158.86550,1.09122
158.62443,1.09304
158.38336,1.10544
158.14229,1.11366
157.90121,1.10772
157.66014,1.09235
157.41907,1.07860
157.17800,1.07082
156.93693,1.06638
156.69586,1.06250
156.45479,1.05940
156.21372,1.05767
155.97265,1.05476
155.73158,1.04634
155.49051,1.03158
155.24944,1.01458
155.00837,0.99982
154.76730,0.98858
154.52623,0.97873
154.28516,0.96598
154.04409,0.94731
153.80302,0.92412
153.56194,0.90150
153.32087,0.88406
153.07980,0.87128
152.83873,0.85694
152.59766,0.83515
152.35659,0.80708
152.11552,0.77927
151.87445,0.75698
151.63338,0.74106
151.39231,0.72900
151.15124,0.71660
150.91017,0.70043
150.66910,0.68075
150.42803,0.66163
150.18696,0.64714
149.94589,0.63711
149.70482,0.62728
149.46375,0.61465
149.22267,0.60138
148.98160,0.59150
148.74053,0.58574
148.49946,0.58108
148.25839,0.57412
148.01732,0.56487
147.77625,0.55708
147.53518,0.55423
147.29411,0.55551
147.05304,0.55672
146.81197,0.55552
146.57090,0.55391
146.32983,0.55485
146.08876,0.55846
145.84769,0.56289
145.60662,0.56741
145.36555,0.57273
145.12448,0.57899
144.88340,0.58546
144.64233,0.59189
144.40126,0.59847
144.16019,0.60456
143.91912,0.60856
143.67805,0.60912
143.43698,0.60642
143.19591,0.60191
142.95484,0.59635
142.71377,0.58871
142.47270,0.57811
142.23163,0.56606
141.99056,0.55541
141.74949,0.54712
141.50842,0.53968
141.26735,0.53179
141.02628,0.52414
140.78521,0.51803
140.54413,0.51402
140.30306,0.51243
140.06199,0.51373
139.82092,0.51752
139.57985,0.52234
139.33878,0.52676
139.09771,0.53091
138.85664,0.53691
138.61557,0.54662
138.37450,0.55880
138.13343,0.57035
137.89236,0.58107
137.65129,0.59384
137.41022,0.60952
137.16915,0.62612
136.92808,0.64398
136.68701,0.66625
136.44594,0.69275
136.20486,0.71862
135.96379,0.74176
135.72272,0.76623
135.48165,0.79525
135.24058,0.82660
134.99951,0.85702
134.75844,0.88707
134.51737,0.92054
134.27630,0.96052
134.03523,1.00470
133.79416,1.04434
133.55309,1.07329
133.31202,1.09594
133.07095,1.11927
132.82988,1.14320
132.58881,1.16476
132.34774,1.18328
132.10667,1.19856
131.86559,1.20924
131.62452,1.21042
131.38345,1.19723
131.14238,1.17330
130.90131,1.14781
130.66024,1.12536
130.41917,1.10173
130.17810,1.06842
129.93703,1.02196
129.69596,0.96875
129.45489,0.91860
129.21382,0.87599
128.97275,0.83865
128.73168,0.80224
128.49061,0.76488
128.24954,0.72841
128.00847,0.69637
127.76740,0.67030
127.52632,0.64797
127.28525,0.62575
127.04418,0.60207
126.80311,0.57814
126.56204,0.55579
126.32097,0.53575
126.07990,0.51811
125.83883,0.50321
125.59776,0.49115
125.35669,0.48066
125.11562,0.47008
124.87455,0.45908
124.63348,0.44855
124.39241,0.43943
124.15134,0.43227
123.91027,0.42675
123.66920,0.42182
123.42812,0.41738
123.18705,0.41478
122.94598,0.41473
122.70491,0.41623
122.46384,0.41852
122.22277,0.42226
121.98170,0.42747
121.74063,0.43274
121.49956,0.43749
121.25849,0.44300
121.01742,0.45032
120.77635,0.45892
120.53528,0.46790
120.29421,0.47726
120.05314,0.48716
119.81207,0.49726
119.57100,0.50837
119.32993,0.52380
119.08885,0.54706
118.84778,0.57801
118.60671,0.61180
118.36564,0.64282
118.12457,0.66980
117.88350,0.69616
117.64243,0.72535
117.40136,0.75677
117.16029,0.78666
116.91922,0.81113
116.67815,0.82652
116.43708,0.82954
116.19601,0.81984
115.95494,0.80036
115.71387,0.77394
115.47280,0.74327
115.23173,0.71315
114.99066,0.68894
114.74958,0.67334
114.50851,0.66638
114.26744,0.66683
114.02637,0.67198
113.78530,0.67789
113.54423,0.68130
113.30316,0.68070
113.06209,0.67553
112.82102,0.66645
112.57995,0.65747
112.33888,0.65526
112.09781,0.66389
111.85674,0.68153
111.61567,0.70447
111.37460,0.73109
111.13353,0.75733
110.89246,0.77341
110.65139,0.77219
110.41031,0.75571
110.16924,0.73113
109.92817,0.70726
109.68710,0.69171
109.44603,0.68585
109.20496,0.68331
108.96389,0.67498
108.72282,0.65604
108.48175,0.62870
108.24068,0.59773
107.99961,0.56656
107.75854,0.53860
107.51747,0.51723
107.27640,0.50261
107.03533,0.49108
106.79426,0.47809
106.55319,0.46067
106.31212,0.43962
106.07104,0.41932
105.82997,0.40414
105.58890,0.39574
105.34783,0.39300
105.10676,0.39270
104.86569,0.39030
104.62462,0.38199
104.38355,0.36808
104.14248,0.35285
103.90141,0.34060
103.66034,0.33353
103.41927,0.33137
103.17820,0.33099
102.93713,0.32782
102.69606,0.31920
102.45499,0.30701
102.21392,0.29609
101.97285,0.29033
101.73177,0.29025
101.49070,0.29246
101.24963,0.29149
101.00856,0.28483
100.76749,0.27608
100.52642,0.27114
100.28535,0.27257
100.04428,0.27704
99.80321,0.27731
99.56214,0.26992
99.32107,0.26006
99.08000,0.25567
98.83893,0.25870
98.59786,0.26335
98.35679,0.26321
98.11572,0.25908
97.87465,0.25648
97.63358,0.25801
97.39250,0.26079
97.15143,0.26111
96.91036,0.26020
96.66929,0.26286
96.42822,0.27112
96.18715,0.28120
95.94608,0.28814
95.70501,0.29302
95.46394,0.30112
95.22287,0.31363
94.98180,0.32562
94.74073,0.33294
94.49966,0.33707
94.25859,0.34122
94.01752,0.34469
93.77645,0.34419
93.53538,0.34061
93.29431,0.34008
93.05323,0.34473
92.81216,0.34764
92.57109,0.34334
92.33002,0.33841
92.08895,0.34084
91.84788,0.34738
91.60681,0.35102
91.36574,0.35619
91.12467,0.37190
90.88360,0.39559
90.64253,0.41845
90.40146,0.44421
90.16039,0.48290
89.91932,0.53290
89.67825,0.58515
89.43718,0.63618
89.19611,0.68294
88.95504,0.71878
88.71396,0.74293
88.47289,0.75516
88.23182,0.74757
87.99075,0.71603
87.74968,0.66547
87.50861,0.60471
87.26754,0.54453
87.02647,0.49325
86.78540,0.45161
86.54433,0.41660
86.30326,0.38747
86.06219,0.36427
85.82112,0.34487
85.58005,0.32648
85.33898,0.30710
85.09791,0.28643
84.85684,0.26685
84.61577,0.25090
84.37469,0.23821
84.13362,0.22722
83.89255,0.21793
83.65148,0.21075
83.41041,0.20545
83.16934,0.20188
82.92827,0.19974
82.68720,0.19792
82.44613,0.19556
82.20506,0.19323
81.96399,0.19191
81.72292,0.19142
81.48185,0.19038
81.24078,0.18813
80.99971,0.18589
80.75864,0.18514
80.51757,0.18543
80.27650,0.18520
80.03542,0.18393
79.79435,0.18252
79.55328,0.18192
79.31221,0.18220
79.07114,0.18293
78.83007,0.18344
78.58900,0.18301
78.34793,0.18138
78.10686,0.17876
77.86579,0.17532
77.62472,0.17106
77.38365,0.16639
77.14258,0.16276
76.90151,0.16200
76.66044,0.16431
76.41937,0.16742
76.17830,0.16907
75.93723,0.16942
75.69615,0.16921
75.45508,0.16747
75.21401,0.16319
74.97294,0.15754
74.73187,0.15261
74.49080,0.14969
74.24973,0.14906
74.00866,0.15057
73.76759,0.15400
73.52652,0.15891
73.28545,0.16359
73.04438,0.16508
72.80331,0.16209
72.56224,0.15692
72.32117,0.15308
72.08010,0.15210
71.83903,0.15348
71.59796,0.15651
71.35688,0.16065
71.11581,0.16532
70.87474,0.17060
70.63367,0.17798
70.39260,0.18952
70.15153,0.20621
69.91046,0.22689
69.66939,0.24823
69.42832,0.26588
69.18725,0.27647
68.94618,0.27852
68.70511,0.27192
68.46404,0.25755
68.22297,0.23747
67.98190,0.21484
67.74083,0.19359
67.49976,0.17733
67.25869,0.16743
67.01761,0.16181
66.77654,0.15648
66.53547,0.14943
66.29440,0.14266
66.05333,0.13933
65.81226,0.13989
65.57119,0.14248
65.33012,0.14638
65.08905,0.15251
64.84798,0.16111
64.60691,0.17100
64.36584,0.18076
64.12477,0.18889
63.88370,0.19339
63.64263,0.19259
63.40156,0.18685
63.16049,0.17896
62.91942,0.17269
62.67834,0.17012
62.43727,0.17006
62.19620,0.17006
61.95513,0.16967
61.71406,0.16991
61.47299,0.17033
61.23192,0.16902
60.99085,0.16480
60.74978,0.15793
60.50871,0.14930
60.26764,0.14027
60.02657,0.13244
59.78550,0.12634
59.54443,0.12066
59.30336,0.11416
59.06229,0.10764
58.82122,0.10322
58.58015,0.10292
58.33907,0.10873
58.09800,0.12311
57.85693,0.14764
57.61586,0.18016
57.37479,0.21118
57.13372,0.22335
56.89265,0.20521
56.65158,0.16753
56.41051,0.13164
56.16944,0.11099
55.92837,0.10767
55.68730,0.11809
55.44623,0.13897
55.20516,0.16746
54.96409,0.19543
54.72302,0.20705
54.48195,0.19290
54.24088,0.16439
53.99980,0.13833
53.75873,0.12432
53.51766,0.12682
53.27659,0.14613
53.03552,0.17506
52.79445,0.19641
52.55338,0.19058
52.31231,0.15949
52.07124,0.12682
51.83017,0.11143
51.58910,0.12257
51.34803,0.16347
51.10696,0.21428
50.86589,0.21713
50.62482,0.16503
50.38375,0.11952
50.14268,0.11191
49.90161,0.14633
49.66053,0.19996
49.41946,0.20598
49.17839,0.15449
48.93732,0.11487
48.69625,0.11697
48.45518,0.15043
48.21411,0.17064
47.97304,0.14676
47.73197,0.12084
47.49090,0.12947
47.24983,0.16108
47.00876,0.16732
46.76769,0.14217
46.52662,0.13425
46.28555,0.15637
46.04448,0.16704
45.80341,0.14734
45.56234,0.14220
45.32126,0.16519
45.08019,0.17384
44.83912,0.15537
44.59805,0.15167
44.35698,0.16801
44.11591,0.17067
43.87484,0.15583
43.63377,0.14750
43.39270,0.15039
43.15163,0.15915
42.91056,0.17088
42.66949,0.17753
42.42842,0.17533
42.18735,0.17251
41.94628,0.17291
41.70521,0.17330
41.46414,0.17516
41.22307,0.18104
40.98199,0.18933
40.74092,0.19694
40.49985,0.20072
40.25878,0.20100
40.01771,0.20284
39.77664,0.20543
39.53557,0.20202
39.29450,0.19433
39.05343,0.19078
38.81236,0.19518
38.57129,0.20805
38.33022,0.22863
38.08915,0.25315
37.84808,0.27420
37.60701,0.28180
37.36594,0.26982
37.12487,0.24392
36.88380,0.21870
36.64272,0.20552
36.40165,0.20174
36.16058,0.19419
35.91951,0.17926
35.67844,0.17185
35.43737,0.18341
35.19630,0.20387
34.95523,0.21429
34.71416,0.20740
34.47309,0.19159
34.23202,0.18141
33.99095,0.18254
33.74988,0.18842
33.50881,0.19397
33.26774,0.20467
33.02667,0.22541
32.78560,0.24605
32.54453,0.25672
32.30345,0.25778
32.06238,0.24981
31.82131,0.23236
31.58024,0.20762
31.33917,0.18060
31.09810,0.15308
30.85703,0.12538
30.61596,0.10408
30.37489,0.09664
30.13382,0.09857
29.89275,0.09552
29.65168,0.07881
29.41061,0.05311
29.16954,0.02523
28.92847,-0.00379
28.68740,-0.02657
28.44633,-0.02263
28.20526,0.01349
27.96418,0.05217
27.72311,0.06606
27.48204,0.06188
27.24097,0.05896
26.99990,0.05752
26.75883,0.04853
26.51776,0.03303
26.27669,0.01471
26.03562,-0.01149
25.79455,-0.05221
25.55348,-0.09798
25.31241,-0.12298
25.07134,-0.11584
24.83027,-0.09929
24.58920,-0.09730
24.34813,-0.11323
24.10706,-0.14514
23.86599,-0.19492
23.62491,-0.25651
23.38384,-0.30659
23.14277,-0.32999
22.90170,-0.33468
22.66063,-0.32715
22.41956,-0.29826
22.17849,-0.24754
21.93742,-0.20281
21.69635,-0.18746
21.45528,-0.20859
21.21421,-0.24785
20.97314,-0.26757
20.73207,-0.26701
20.49100,-0.28025
20.24993,-0.31279
20.00886,-0.33390
19.76779,-0.33378
19.52672,-0.34011
19.28564,-0.37035
19.04457,-0.40859
18.80350,-0.42588
18.56243,-0.40782
18.32136,-0.37206
18.08029,-0.34362
17.83922,-0.33283
17.59815,-0.33003
17.35708,-0.32640
17.11601,-0.34170
16.87494,-0.38469
16.63387,-0.42531
16.39280,-0.44690
16.15173,-0.45708
15.91066,-0.46092
15.66959,-0.45304
15.42852,-0.43030
15.18745,-0.41394
14.94637,-0.42646
14.70530,-0.45787
14.46423,-0.47134
14.22316,-0.45012
13.98209,-0.41956
13.74102,-0.41260
13.49995,-0.44293
13.25888,-0.48816
13.01781,-0.49315
12.77674,-0.46608
12.53567,-0.45046
12.29460,-0.45295
12.05353,-0.44978
11.81246,-0.44058
11.57139,-0.41984
11.33032,-0.39826
11.08925,-0.39724
10.84818,-0.42333
10.60710,-0.47302
10.36603,-0.51048
10.12496,-0.53005
9.88389,-0.55584
9.64282,-0.55125
9.40175,-0.51548
9.16068,-0.48883
8.91961,-0.48098
8.67854,-0.45593
8.43747,-0.41470
8.19640,-0.39483
7.95533,-0.41882
7.71426,-0.48358
7.47319,-0.52975
7.23212,-0.52072
6.99105,-0.50227
6.74998,-0.45637
6.50891,-0.44450
6.26783,-0.46014
6.02676,-0.47684
5.78569,-0.46922
5.54462,-0.46724
5.30355,-0.47544
5.06248,-0.47782
4.82141,-0.46900
4.58034,-0.47418
4.33927,-0.50590
4.09820,-0.52331
3.85713,-0.50874
3.61606,-0.51315
3.37499,-0.51521
3.13392,-0.50661
2.89285,-0.50762
2.65178,-0.50370
2.41071,-0.47210
2.16964,-0.47930
1.92856,-0.51889
1.68749,-0.49318
1.44642,-0.45450
1.20535,-0.41539
0.96428,-0.40051
0.72321,-0.42434
0.48214,-0.44088
0.24107,-0.38441
-0.00000,-0.13092
