399.69498,1.41614
399.45391,1.42139
399.21284,1.42504
398.97177,1.42339
398.73070,1.41679
398.48963,1.40918
398.24856,1.40252
398.00749,1.39666
397.76642,1.39208
397.52535,1.38998
397.28428,1.39233
397.04321,1.40030
396.80214,1.40909
396.56107,1.40918
396.32000,1.39803
396.07892,1.38527
395.83785,1.38095
395.59678,1.38473
395.35571,1.38954
395.11464,1.39108
394.87357,1.38902
394.63250,1.38371
394.39143,1.37674
394.15036,1.37214
393.90929,1.37348
393.66822,1.37964
393.42715,1.38543
393.18608,1.38753
392.94501,1.38745
392.70394,1.38726
392.46287,1.38717
392.22180,1.38693
391.98073,1.38460
391.73965,1.37690
391.49858,1.36615
391.25751,1.36032
391.01644,1.36206
390.77537,1.36589
390.53430,1.36783
390.29323,1.37040
390.05216,1.37489
389.81109,1.37703
389.57002,1.37449
389.32895,1.36874
389.08788,1.35991
388.84681,1.34841
388.60574,1.33822
388.36467,1.33358
388.12360,1.33462
387.88253,1.33733
387.64146,1.33662
387.40038,1.32907
387.15931,1.31478
386.91824,1.29787
386.67717,1.28503
386.43610,1.28071
386.19503,1.28265
385.95396,1.28583
385.71289,1.28853
385.47182,1.29048
385.23075,1.28972
384.98968,1.28440
384.74861,1.27529
384.50754,1.26494
384.26647,1.25528
384.02540,1.24621
383.78433,1.23389
383.54326,1.21579
383.30219,1.19913
383.06111,1.19381
382.82004,1.19872
382.57897,1.20276
382.33790,1.19898
382.09683,1.19060
381.85576,1.18124
381.61469,1.17072
381.37362,1.16120
381.13255,1.15694
380.89148,1.15801
380.65041,1.16040
380.40934,1.15956
380.16827,1.15366
379.92720,1.14518
379.68613,1.14019
379.44506,1.14368
379.20399,1.15182
378.96292,1.15541
378.72184,1.15314
378.48077,1.15291
378.23970,1.15948
377.99863,1.16815
377.75756,1.17383
377.51649,1.18039
377.27542,1.19526
377.03435,1.21742
376.79328,1.23670
376.55221,1.24621
376.31114,1.24974
376.07007,1.25465
375.82900,1.26239
375.58793,1.26863
375.34686,1.27033
375.10579,1.26953
374.86472,1.26997
374.62365,1.27197
374.38257,1.27281
374.14150,1.27226
373.90043,1.27280
373.65936,1.27349
373.41829,1.27008
373.17722,1.26351
372.93615,1.26050
372.69508,1.26336
372.45401,1.26667
372.21294,1.26630
371.97187,1.26499
371.73080,1.26698
371.48973,1.27200
371.24866,1.27714
371.00759,1.28116
370.76652,1.28294
370.52545,1.27929
370.28437,1.26822
370.04330,1.25243
369.80223,1.23834
369.56116,1.23240
369.32009,1.23555
369.07902,1.24115
368.83795,1.24182
368.59688,1.23695
368.35581,1.23066
368.11474,1.22560
367.87367,1.22194
367.63260,1.21956
367.39153,1.21828
367.15046,1.21670
366.90939,1.21238
366.66832,1.20464
366.42725,1.19691
366.18618,1.19338
365.94510,1.19324
365.70403,1.19226
365.46296,1.18881
365.22189,1.18464
364.98082,1.18154
364.73975,1.18021
364.49868,1.18015
364.25761,1.17899
364.01654,1.17444
363.77547,1.16713
363.53440,1.16039
363.29333,1.15743
363.05226,1.15841
362.81119,1.16080
362.57012,1.16254
362.32905,1.16368
362.08798,1.16481
361.84691,1.16535
361.60583,1.16381
361.36476,1.15890
361.12369,1.15132
360.88262,1.14462
360.64155,1.14173
360.40048,1.14057
360.15941,1.13711
359.91834,1.13255
359.67727,1.13126
359.43620,1.13241
359.19513,1.13109
358.95406,1.12713
358.71299,1.12615
358.47192,1.13130
358.23085,1.13875
357.98978,1.14165
357.74871,1.13744
357.50764,1.13001
357.26656,1.12408
357.02549,1.12036
356.78442,1.11793
356.54335,1.11690
356.30228,1.11684
356.06121,1.11590
355.82014,1.11343
355.57907,1.11177
355.33800,1.11400
355.09693,1.11991
354.85586,1.12498
354.61479,1.12514
354.37372,1.12217
354.13265,1.12091
353.89158,1.12215
353.65051,1.12196
353.40944,1.11761
353.16837,1.11119
352.92729,1.10720
352.68622,1.10816
352.44515,1.11286
352.20408,1.11773
351.96301,1.11974
351.72194,1.11779
351.48087,1.11278
351.23980,1.10738
350.99873,1.10432
350.75766,1.10415
350.51659,1.10579
350.27552,1.10813
350.03445,1.10996
349.79338,1.11063
349.55231,1.11156
349.31124,1.11449
349.07017,1.11813
348.82910,1.11921
348.58802,1.11630
348.34695,1.11114
348.10588,1.10705
347.86481,1.10674
347.62374,1.11116
347.38267,1.11941
347.14160,1.12879
346.90053,1.13577
346.65946,1.13815
346.41839,1.13589
346.17732,1.13092
345.93625,1.12761
345.69518,1.13017
345.45411,1.13759
345.21304,1.14383
344.97197,1.14503
344.73090,1.14395
344.48983,1.14533
344.24875,1.14993
344.00768,1.15483
343.76661,1.15772
343.52554,1.15878
343.28447,1.15913
343.04340,1.15973
342.80233,1.16147
342.56126,1.16421
342.32019,1.16704
342.07912,1.17115
341.83805,1.17871
341.59698,1.18725
341.35591,1.19090
341.11484,1.18981
340.87377,1.18998
340.63270,1.19416
340.39163,1.20055
340.15056,1.20824
339.90948,1.21781
339.66841,1.22717
339.42734,1.23165
339.18627,1.23025
338.94520,1.22812
338.70413,1.23093
338.46306,1.23972
338.22199,1.25031
337.98092,1.25635
337.73985,1.25463
337.49878,1.24730
337.25771,1.23964
337.01664,1.23661
336.77557,1.23964
336.53450,1.24562
336.29343,1.25008
336.05236,1.25082
335.81129,1.24759
335.57021,1.24134
335.32914,1.23559
335.08807,1.23288
334.84700,1.23274
334.60593,1.23533
334.36486,1.24092
334.12379,1.24606
333.88272,1.24536
333.64165,1.23690
333.40058,1.22228
333.15951,1.20476
332.91844,1.18996
332.67737,1.18266
332.43630,1.18146
332.19523,1.18097
331.95416,1.17894
331.71309,1.17674
331.47202,1.17394
331.23094,1.16726
330.98987,1.15666
330.74880,1.14729
330.50773,1.14285
330.26666,1.14299
330.02559,1.14661
329.78452,1.15138
329.54345,1.15234
329.30238,1.14779
329.06131,1.14420
328.82024,1.14757
328.57917,1.15387
328.33810,1.15478
328.09703,1.15000
327.85596,1.14686
327.61489,1.14976
327.37382,1.15617
327.13275,1.16065
326.89167,1.16013
326.65060,1.15651
326.40953,1.15310
326.16846,1.14978
325.92739,1.14491
325.68632,1.14120
325.44525,1.14365
325.20418,1.15059
324.96311,1.15383
324.72204,1.14980
324.48097,1.14339
324.23990,1.13943
323.99883,1.13762
323.75776,1.13725
323.51669,1.14079
323.27562,1.14908
323.03455,1.15666
322.79348,1.15742
322.55240,1.15321
322.31133,1.15056
322.07026,1.15238
321.82919,1.15725
321.58812,1.16293
321.34705,1.16694
321.10598,1.16598
320.86491,1.15970
320.62384,1.15354
320.38277,1.15299
320.14170,1.15655
319.90063,1.15899
319.65956,1.15961
319.41849,1.16076
319.17742,1.15996
318.93635,1.15175
318.69528,1.13775
318.45421,1.12758
318.21313,1.12912
317.97206,1.14064
317.73099,1.15242
317.48992,1.15680
317.24885,1.15452
317.00778,1.14905
316.76671,1.14175
316.52564,1.13488
316.28457,1.13318
316.04350,1.14004
315.80243,1.15407
315.56136,1.16997
315.32029,1.18297
315.07922,1.19122
314.83815,1.19362
314.59708,1.19014
314.35601,1.18563
314.11494,1.18635
313.87386,1.19204
313.63279,1.19662
313.39172,1.19640
313.15065,1.19373
312.90958,1.19349
312.66851,1.19897
312.42744,1.21006
312.18637,1.22273
311.94530,1.23096
311.70423,1.23065
311.46316,1.22294
311.22209,1.21511
310.98102,1.21510
310.73995,1.22315
310.49888,1.23280
310.25781,1.23832
310.01674,1.23727
309.77567,1.23117
309.53459,1.22577
309.29352,1.22627
309.05245,1.23319
308.81138,1.24253
308.57031,1.24874
308.32924,1.24820
308.08817,1.24237
307.84710,1.23660
307.60603,1.23497
307.36496,1.23747
307.12389,1.24256
306.88282,1.24895
306.64175,1.25422
306.40068,1.25518
306.15961,1.25107
305.91854,1.24482
305.67747,1.23978
305.43640,1.23705
305.19532,1.23596
304.95425,1.23556
304.71318,1.23596
304.47211,1.23811
304.23104,1.24078
303.98997,1.23992
303.74890,1.23434
303.50783,1.22825
303.26676,1.22583
303.02569,1.22705
302.78462,1.22881
302.54355,1.22826
302.30248,1.22525
302.06141,1.22169
301.82034,1.21863
301.57927,1.21525
301.33820,1.21175
301.09713,1.20966
300.85605,1.20881
300.61498,1.20703
300.37391,1.20228
300.13284,1.19474
299.89177,1.18694
299.65070,1.18177
299.40963,1.18040
299.16856,1.18193
298.92749,1.18417
298.68642,1.18336
298.44535,1.17670
298.20428,1.16747
297.96321,1.16269
297.72214,1.16529
297.48107,1.17208
297.24000,1.17728
296.99893,1.17609
296.75786,1.16714
296.51678,1.15437
296.27571,1.14435
296.03464,1.13951
295.79357,1.13629
295.55250,1.13164
295.31143,1.12831
295.07036,1.13007
294.82929,1.13475
294.58822,1.13645
294.34715,1.13394
294.10608,1.13136
293.86501,1.13060
293.62394,1.12816
293.38287,1.12100
293.14180,1.11175
292.90073,1.10531
292.65966,1.10230
292.41859,1.09932
292.17751,1.09453
291.93644,1.09011
291.69537,1.08910
291.45430,1.09162
291.21323,1.09466
290.97216,1.09526
290.73109,1.09376
290.49002,1.09228
290.24895,1.09090
290.00788,1.08775
289.76681,1.08258
289.52574,1.07729
289.28467,1.07323
289.04360,1.07036
288.80253,1.06874
288.56146,1.06865
288.32039,1.06941
288.07932,1.06941
287.83824,1.06777
287.59717,1.06515
287.35610,1.06255
287.11503,1.05988
286.87396,1.05644
286.63289,1.05278
286.39182,1.05079
286.15075,1.05131
285.90968,1.05219
285.66861,1.05046
285.42754,1.04656
285.18647,1.04413
284.94540,1.04488
284.70433,1.04617
284.46326,1.04473
284.22219,1.04036
283.98112,1.03516
283.74005,1.03111
283.49897,1.02927
283.25790,1.02962
283.01683,1.03157
282.77576,1.03507
282.53469,1.03998
282.29362,1.04400
282.05255,1.04352
281.81148,1.03778
281.57041,1.03029
281.32934,1.02521
281.08827,1.02373
280.84720,1.02415
280.60613,1.02390
280.36506,1.02182
280.12399,1.01915
279.88292,1.01765
279.64185,1.01741
279.40078,1.01832
279.15970,1.02146
278.91863,1.02628
278.67756,1.02939
278.43649,1.02925
278.19542,1.02861
277.95435,1.02920
277.71328,1.02857
277.47221,1.02516
277.23114,1.02217
276.99007,1.02352
276.74900,1.02912
276.50793,1.03545
276.26686,1.03868
276.02579,1.03703
275.78472,1.03176
275.54365,1.02665
275.30258,1.02534
275.06151,1.02813
274.82043,1.03176
274.57936,1.03308
274.33829,1.03252
274.09722,1.03305
273.85615,1.03620
273.61508,1.03970
273.37401,1.04033
273.13294,1.03862
272.89187,1.03792
272.65080,1.03923
272.40973,1.04085
272.16866,1.04258
271.92759,1.04573
271.68652,1.04953
271.44545,1.05188
271.20438,1.05270
270.96331,1.05357
270.72224,1.05513
270.48116,1.05735
270.24009,1.06069
269.99902,1.06486
269.75795,1.06850
269.51688,1.07132
269.27581,1.07456
269.03474,1.07845
268.79367,1.08167
268.55260,1.08397
268.31153,1.08665
268.07046,1.08999
267.82939,1.09301
267.58832,1.09556
267.34725,1.09822
267.10618,1.10074
266.86511,1.10274
266.62404,1.10505
266.38297,1.10844
266.14189,1.11256
265.90082,1.11715
265.65975,1.12323
265.41868,1.13175
265.17761,1.14157
264.93654,1.14983
264.69547,1.15510
264.45440,1.15949
264.21333,1.16633
263.97226,1.17610
263.73119,1.18641
263.49012,1.19615
263.24905,1.20704
263.00798,1.22065
262.76691,1.23560
262.52584,1.24846
262.28477,1.25635
262.04370,1.25944
261.80262,1.26263
261.56155,1.27235
261.32048,1.29012
261.07941,1.31123
260.83834,1.32979
260.59727,1.34441
260.35620,1.35797
260.11513,1.37280
259.87406,1.38826
259.63299,1.40346
259.39192,1.42055
259.15085,1.44326
258.90978,1.47192
258.66871,1.50241
258.42764,1.53072
258.18657,1.55737
257.94550,1.58658
257.70443,1.61972
257.46335,1.65224
257.22228,1.67953
256.98121,1.70268
256.74014,1.72459
256.49907,1.74446
256.25800,1.76080
256.01693,1.77112
255.77586,1.76713
255.53479,1.74508
255.29372,1.71306
255.05265,1.68368
254.81158,1.66429
254.57051,1.65040
254.32944,1.63186
254.08837,1.60603
253.84730,1.58319
253.60623,1.57248
253.36516,1.56854
253.12408,1.56127
252.88301,1.54876
252.64194,1.53731
252.40087,1.53374
252.15980,1.53975
251.91873,1.55041
251.67766,1.55705
251.43659,1.55188
251.19552,1.53451
250.95445,1.51240
250.71338,1.49208
250.47231,1.47633
250.23124,1.46770
249.99017,1.46755
249.74910,1.47322
249.50803,1.47886
249.26696,1.47896
249.02589,1.47278
248.78481,1.46518
248.54374,1.46122
248.30267,1.46085
248.06160,1.46245
247.82053,1.46731
247.57946,1.47502
247.33839,1.48108
247.09732,1.48395
246.85625,1.48653
246.61518,1.48961
246.37411,1.49178
246.13304,1.49672
245.89197,1.51279
245.65090,1.54327
245.40983,1.58202
245.16876,1.61987
244.92769,1.65598
244.68661,1.69847
244.44554,1.74721
244.20447,1.78815
243.96340,1.81466
243.72233,1.84199
243.48126,1.88551
243.24019,1.93138
242.99912,1.93657
242.75805,1.88022
242.51698,1.81664
242.27591,1.74559
242.03484,1.65884
241.79377,1.57257
241.55270,1.50732
241.31163,1.46575
241.07056,1.43495
240.82949,1.40299
240.58842,1.36912
240.34734,1.33629
240.10627,1.30381
239.86520,1.27080
239.62413,1.23848
239.38306,1.20890
239.14199,1.18371
238.90092,1.16302
238.65985,1.14513
238.41878,1.12767
238.17771,1.10955
237.93664,1.09191
237.69557,1.07626
237.45450,1.06222
237.21343,1.04835
236.97236,1.03435
236.73129,1.02064
236.49022,1.00726
236.24915,0.99406
236.00807,0.98140
235.76700,0.97021
235.52593,0.96113
235.28486,0.95415
235.04379,0.94950
234.80272,0.94721
234.56165,0.94530
234.32058,0.94028
234.07951,0.93125
233.83844,0.92136
233.59737,0.91370
233.35630,0.90774
233.11523,0.90136
232.87416,0.89437
232.63309,0.88838
232.39202,0.88441
232.15095,0.88202
231.90988,0.88031
231.66880,0.87881
231.42773,0.87706
231.18666,0.87418
230.94559,0.86926
230.70452,0.86235
230.46345,0.85441
230.22238,0.84653
229.98131,0.83945
229.74024,0.83392
229.49917,0.83062
229.25810,0.82945
229.01703,0.82873
228.77596,0.82617
228.53489,0.82163
228.29382,0.81795
228.05275,0.81725
227.81168,0.81705
227.57061,0.81297
227.32953,0.80511
227.08846,0.79835
226.84739,0.79615
226.60632,0.79705
226.36525,0.79735
226.12418,0.79540
225.88311,0.79235
225.64204,0.78959
225.40097,0.78755
225.15990,0.78653
224.91883,0.78670
224.67776,0.78741
224.43669,0.78783
224.19562,0.78795
223.95455,0.78812
223.71348,0.78815
223.47241,0.78781
223.23134,0.78718
222.99026,0.78689
222.74919,0.78826
222.50812,0.79250
222.26705,0.79870
222.02598,0.80398
221.78491,0.80667
221.54384,0.80836
221.30277,0.81161
221.06170,0.81645
220.82063,0.82102
220.57956,0.82513
220.33849,0.83063
220.09742,0.83812
219.85635,0.84574
219.61528,0.85232
219.37421,0.85876
219.13314,0.86560
218.89207,0.87231
218.65099,0.87958
218.40992,0.88942
218.16885,0.90225
217.92778,0.91605
217.68671,0.92845
217.44564,0.93853
217.20457,0.94696
216.96350,0.95536
216.72243,0.96538
216.48136,0.97779
216.24029,0.99154
215.99922,1.00356
215.75815,1.01115
215.51708,1.01532
215.27601,1.02025
215.03494,1.02898
214.79387,1.04148
214.55280,1.05638
214.31172,1.07169
214.07065,1.08449
213.82958,1.09246
213.58851,1.09639
213.34744,1.10040
213.10637,1.10953
212.86530,1.12525
212.62423,1.14205
212.38316,1.15138
212.14209,1.15152
211.90102,1.14878
211.65995,1.14867
211.41888,1.15152
211.17781,1.15607
210.93674,1.16205
210.69567,1.16812
210.45460,1.17144
210.21353,1.17112
209.97245,1.17016
209.73138,1.17200
209.49031,1.17534
209.24924,1.17499
209.00817,1.16926
208.76710,1.16261
208.52603,1.15946
208.28496,1.16017
208.04389,1.16299
207.80282,1.16441
207.56175,1.15968
207.32068,1.14878
207.07961,1.13754
206.83854,1.12957
206.59747,1.12264
206.35640,1.11320
206.11533,1.10066
205.87426,1.08785
205.63318,1.07855
205.39211,1.07309
205.15104,1.06760
204.90997,1.05869
204.66890,1.04739
204.42783,1.03698
204.18676,1.02822
203.94569,1.01916
203.70462,1.00874
203.46355,0.99840
203.22248,0.99009
202.98141,0.98321
202.74034,0.97460
202.49927,0.96219
202.25820,0.94749
202.01713,0.93319
201.77606,0.92011
201.53499,0.90747
201.29391,0.89477
201.05284,0.88207
200.81177,0.86934
200.57070,0.85702
200.32963,0.84648
200.08856,0.83830
199.84749,0.83097
199.60642,0.82265
199.36535,0.81337
199.12428,0.80389
198.88321,0.79394
198.64214,0.78308
198.40107,0.77187
198.16000,0.76099
197.91893,0.75102
197.67786,0.74294
197.43679,0.73706
197.19572,0.73142
196.95464,0.72388
196.71357,0.71474
196.47250,0.70545
196.23143,0.69611
195.99036,0.68652
195.74929,0.67816
195.50822,0.67292
195.26715,0.67009
195.02608,0.66641
194.78501,0.65950
194.54394,0.65076
194.30287,0.64342
194.06180,0.63843
193.82073,0.63399
193.57966,0.62882
193.33859,0.62379
193.09752,0.61976
192.85645,0.61570
192.61537,0.61049
192.37430,0.60494
192.13323,0.60057
191.89216,0.59744
191.65109,0.59424
191.41002,0.59010
191.16895,0.58554
190.92788,0.58127
190.68681,0.57694
190.44574,0.57237
190.20467,0.56879
189.96360,0.56703
189.72253,0.56563
189.48146,0.56286
189.24039,0.55933
188.99932,0.55651
188.75825,0.55434
188.51718,0.55196
188.27610,0.54905
188.03503,0.54564
187.79396,0.54200
187.55289,0.53904
187.31182,0.53726
187.07075,0.53591
186.82968,0.53443
186.58861,0.53369
186.34754,0.53438
186.10647,0.53525
185.86540,0.53486
185.62433,0.53369
185.38326,0.53286
185.14219,0.53250
184.90112,0.53250
184.66005,0.53325
184.41898,0.53455
184.17791,0.53509
183.93683,0.53409
183.69576,0.53240
183.45469,0.53170
183.21362,0.53300
182.97255,0.53602
182.73148,0.53961
182.49041,0.54259
182.24934,0.54462
182.00827,0.54607
181.76720,0.54722
181.52613,0.54775
181.28506,0.54721
181.04399,0.54574
180.80292,0.54390
180.56185,0.54216
180.32078,0.54066
180.07971,0.53973
179.83864,0.54045
179.59756,0.54395
179.35649,0.54977
179.11542,0.55602
178.87435,0.56152
178.63328,0.56651
178.39221,0.57174
178.15114,0.57818
177.91007,0.58661
177.66900,0.59639
177.42793,0.60605
177.18686,0.61514
176.94579,0.62465
176.70472,0.63603
176.46365,0.65037
176.22258,0.66728
175.98151,0.68476
175.74044,0.70107
175.49937,0.71578
175.25829,0.72890
175.01722,0.74129
174.77615,0.75500
174.53508,0.77100
174.29401,0.78796
174.05294,0.80434
173.81187,0.81989
173.57080,0.83500
173.32973,0.85006
173.08866,0.86466
172.84759,0.87695
172.60652,0.88518
172.36545,0.88900
172.12438,0.88890
171.88331,0.88665
171.64224,0.88540
171.40117,0.88683
171.16010,0.88956
170.91902,0.89174
170.67795,0.89230
170.43688,0.88905
170.19581,0.87990
169.95474,0.86713
169.71367,0.85586
169.47260,0.84865
169.23153,0.84459
168.99046,0.84231
168.74939,0.84101
168.50832,0.83918
168.26725,0.83534
168.02618,0.83034
167.78511,0.82664
167.54404,0.82503
167.30297,0.82410
167.06190,0.82341
166.82083,0.82471
166.57975,0.82887
166.33868,0.83369
166.09761,0.83679
165.85654,0.83899
165.61547,0.84264
165.37440,0.84820
165.13333,0.85432
164.89226,0.86025
164.65119,0.86672
164.41012,0.87482
164.16905,0.88477
163.92798,0.89598
163.68691,0.90776
163.44584,0.91924
163.20477,0.92950
162.96370,0.93866
162.72263,0.94743
162.48156,0.95522
162.24048,0.96046
161.99941,0.96368
161.75834,0.96770
161.51727,0.97418
161.27620,0.98165
161.03513,0.98743
160.79406,0.98982
160.55299,0.98819
160.31192,0.98287
160.07085,0.97560
159.82978,0.96874
159.58871,0.96392
159.34764,0.96164
159.10657,0.96128
158.86550,0.96088
158.62443,0.95826
158.38336,0.95305
158.14229,0.94678
157.90121,0.94171
157.66014,0.94014
157.41907,0.94237
157.17800,0.94448
156.93693,0.94165
156.69586,0.93472
156.45479,0.92932
156.21372,0.92811
155.97265,0.92789
155.73158,0.92454
155.49051,0.91748
155.24944,0.90860
155.00837,0.89970
154.76730,0.89199
154.52623,0.88536
154.28516,0.87800
154.04409,0.86823
153.80302,0.85638
153.56194,0.84397
153.32087,0.83188
153.07980,0.81918
152.83873,0.80439
152.59766,0.78809
152.35659,0.77280
152.11552,0.75968
151.87445,0.74705
151.63338,0.73272
151.39231,0.71702
151.15124,0.70263
150.91017,0.69133
150.66910,0.68167
150.42803,0.67067
150.18696,0.65758
149.94589,0.64454
149.70482,0.63359
149.46375,0.62465
149.22267,0.61634
148.98160,0.60755
148.74053,0.59823
148.49946,0.58909
148.25839,0.58053
148.01732,0.57256
147.77625,0.56568
147.53518,0.56089
147.29411,0.55840
147.05304,0.55697
146.81197,0.55513
146.57090,0.55289
146.32983,0.55178
146.08876,0.55295
145.84769,0.55567
145.60662,0.55836
145.36555,0.56098
145.12448,0.56518
144.88340,0.57148
144.64233,0.57773
144.40126,0.58149
144.16019,0.58321
143.91912,0.58512
143.67805,0.58736
143.43698,0.58730
143.19591,0.58308
142.95484,0.57571
142.71377,0.56708
142.47270,0.55807
142.23163,0.54921
141.99056,0.54116
141.74949,0.53371
141.50842,0.52600
141.26735,0.51818
141.02628,0.51148
140.78521,0.50661
140.54413,0.50339
140.30306,0.50162
140.06199,0.50095
139.82092,0.50068
139.57985,0.50060
139.33878,0.50142
139.09771,0.50343
138.85664,0.50618
138.61557,0.50985
138.37450,0.51539
138.13343,0.52296
137.89236,0.53172
137.65129,0.54159
137.41022,0.55341
137.16915,0.56739
136.92808,0.58274
136.68701,0.59891
136.44594,0.61598
136.20486,0.63410
135.96379,0.65349
135.72272,0.67479
135.48165,0.69901
135.24058,0.72657
134.99951,0.75609
134.75844,0.78461
134.51737,0.81037
134.27630,0.83460
134.03523,0.85913
133.79416,0.88370
133.55309,0.90699
133.31202,0.92867
133.07095,0.94947
132.82988,0.96975
132.58881,0.98756
132.34774,0.99900
132.10667,1.00255
131.86559,1.00135
131.62452,0.99869
131.38345,0.99401
131.14238,0.98527
130.90131,0.97245
130.66024,0.95746
130.41917,0.94235
130.17810,0.92751
129.93703,0.91041
129.69596,0.88750
129.45489,0.85857
129.21382,0.82777
128.97275,0.79913
128.73168,0.77312
128.49061,0.74830
128.24954,0.72442
128.00847,0.70237
127.76740,0.68278
127.52632,0.66600
127.28525,0.65192
127.04418,0.63862
126.80311,0.62335
126.56204,0.60592
126.32097,0.58917
126.07990,0.57506
125.83883,0.56230
125.59776,0.54887
125.35669,0.53510
125.11562,0.52280
124.87455,0.51278
124.63348,0.50449
124.39241,0.49717
124.15134,0.49027
123.91027,0.48360
123.66920,0.47736
123.42812,0.47190
123.18705,0.46733
122.94598,0.46367
122.70491,0.46081
122.46384,0.45828
122.22277,0.45544
121.98170,0.45190
121.74063,0.44790
121.49956,0.44428
121.25849,0.44203
121.01742,0.44205
120.77635,0.44554
120.53528,0.45367
120.29421,0.46618
120.05314,0.48122
119.81207,0.49738
119.57100,0.51506
119.32993,0.53506
119.08885,0.55694
118.84778,0.57967
118.60671,0.60303
118.36564,0.62721
118.12457,0.65128
117.88350,0.67360
117.64243,0.69413
117.40136,0.71475
117.16029,0.73585
116.91922,0.75419
116.67815,0.76521
116.43708,0.76729
116.19601,0.76265
115.95494,0.75457
115.71387,0.74434
115.47280,0.73185
115.23173,0.71807
114.99066,0.70503
114.74958,0.69436
114.50851,0.68713
114.26744,0.68387
114.02637,0.68371
113.78530,0.68387
113.54423,0.68182
113.30316,0.67824
113.06209,0.67631
112.82102,0.67825
112.57995,0.68396
112.33888,0.69240
112.09781,0.70284
111.85674,0.71487
111.61567,0.72731
111.37460,0.73735
111.13353,0.74201
110.89246,0.74183
110.65139,0.74080
110.41031,0.74171
110.16924,0.74438
109.92817,0.74730
109.68710,0.74678
109.44603,0.73765
109.20496,0.71891
108.96389,0.69595
108.72282,0.67482
108.48175,0.65730
108.24068,0.64180
107.99961,0.62572
107.75854,0.60698
107.51747,0.58570
107.27640,0.56441
107.03533,0.54594
106.79426,0.53130
106.55319,0.52017
106.31212,0.51145
106.07104,0.50234
105.82997,0.48911
105.58890,0.47118
105.34783,0.45289
105.10676,0.43969
104.86569,0.43314
104.62462,0.42963
104.38355,0.42335
104.14248,0.41162
103.90141,0.39720
103.66034,0.38522
103.41927,0.37860
103.17820,0.37592
102.93713,0.37280
102.69606,0.36609
102.45499,0.35717
102.21392,0.34981
101.97285,0.34544
101.73177,0.34182
101.49070,0.33604
101.24963,0.32811
101.00856,0.32092
100.76749,0.31700
100.52642,0.31573
100.28535,0.31361
100.04428,0.30806
99.80321,0.30078
99.56214,0.29570
99.32107,0.29409
99.08000,0.29293
98.83893,0.28880
98.59786,0.28271
98.35679,0.27886
98.11572,0.27909
97.87465,0.28070
97.63358,0.28046
97.39250,0.27925
97.15143,0.27996
96.91036,0.28239
96.66929,0.28393
96.42822,0.28514
96.18715,0.28986
95.94608,0.29865
95.70501,0.30699
95.46394,0.31208
95.22287,0.31697
94.98180,0.32414
94.74073,0.33069
94.49966,0.33335
94.25859,0.33341
94.01752,0.33334
93.77645,0.33341
93.53538,0.33406
93.29431,0.33674
93.05323,0.34042
92.81216,0.34190
92.57109,0.34083
92.33002,0.33977
92.08895,0.33910
91.84788,0.33776
91.60681,0.33799
91.36574,0.34331
91.12467,0.35388
90.88360,0.36872
90.64253,0.38895
90.40146,0.41521
90.16039,0.44599
89.91932,0.48095
89.67825,0.52099
89.43718,0.56466
89.19611,0.60844
88.95504,0.64781
88.71396,0.67584
88.47289,0.68663
88.23182,0.67998
87.99075,0.65953
87.74968,0.63071
87.50861,0.59911
87.26754,0.56669
87.02647,0.53328
86.78540,0.50119
86.54433,0.47363
86.30326,0.45061
86.06219,0.43011
85.82112,0.41070
85.58005,0.39159
85.33898,0.37262
85.09791,0.35453
84.85684,0.33816
84.61577,0.32371
84.37469,0.31101
84.13362,0.29984
83.89255,0.29013
83.65148,0.28204
83.41041,0.27537
83.16934,0.26967
82.92827,0.26507
82.68720,0.26175
82.44613,0.25854
82.20506,0.25390
81.96399,0.24825
81.72292,0.24368
81.48185,0.24144
81.24078,0.24078
80.99971,0.24008
80.75864,0.23820
80.51757,0.23493
80.27650,0.23104
80.03542,0.22770
79.79435,0.22547
79.55328,0.22403
79.31221,0.22279
79.07114,0.22139
78.83007,0.21992
78.58900,0.21886
78.34793,0.21800
78.10686,0.21580
77.86579,0.21095
77.62472,0.20420
77.38365,0.19763
77.14258,0.19292
76.90151,0.19091
76.66044,0.19156
76.41937,0.19372
76.17830,0.19543
75.93723,0.19507
75.69615,0.19200
75.45508,0.18684
75.21401,0.18141
74.97294,0.17792
74.73187,0.17742
74.49080,0.17919
74.24973,0.18181
74.00866,0.18438
73.76759,0.18665
73.52652,0.18859
73.28545,0.19005
73.04438,0.19094
72.80331,0.19159
72.56224,0.19252
72.32117,0.19342
72.08010,0.19346
71.83903,0.19263
71.59796,0.19196
71.35688,0.19229
71.11581,0.19376
70.87474,0.19646
70.63367,0.20080
70.39260,0.20782
70.15153,0.21924
69.91046,0.23638
69.66939,0.25802
69.42832,0.27924
69.18725,0.29322
68.94618,0.29581
68.70511,0.28836
68.46404,0.27522
68.22297,0.25979
67.98190,0.24366
67.74083,0.22767
67.49976,0.21279
67.25869,0.20013
67.01761,0.19043
66.77654,0.18339
66.53547,0.17750
66.29440,0.17115
66.05333,0.16437
65.81226,0.15911
65.57119,0.15768
65.33012,0.16069
65.08905,0.16679
64.84798,0.17403
64.60691,0.18137
64.36584,0.18899
64.12477,0.19688
63.88370,0.20382
63.64263,0.20857
63.40156,0.21125
63.16049,0.21258
62.91942,0.21285
62.67834,0.21231
62.43727,0.21142
62.19620,0.21010
61.95513,0.20741
61.71406,0.20193
61.47299,0.19285
61.23192,0.18121
60.99085,0.16966
60.74978,0.16030
60.50871,0.15352
60.26764,0.14933
60.02657,0.14917
59.78550,0.15559
59.54443,0.16916
59.30336,0.18609
59.06229,0.20032
58.82122,0.20764
58.58015,0.20671
58.33907,0.19839
58.09800,0.18554
57.85693,0.17206
57.61586,0.16155
57.37479,0.15694
57.13372,0.15992
56.89265,0.16903
56.65158,0.17912
56.41051,0.18411
56.16944,0.18079
55.92837,0.16992
55.68730,0.15523
55.44623,0.14226
55.20516,0.13681
54.96409,0.14250
54.72302,0.15898
54.48195,0.18125
54.24088,0.19856
53.99980,0.19852
53.75873,0.18151
53.51766,0.16318
53.27659,0.15885
53.03552,0.17458
52.79445,0.20469
52.55338,0.22845
52.31231,0.22349
52.07124,0.19710
51.83017,0.17536
51.58910,0.17391
51.34803,0.19141
51.10696,0.20864
50.86589,0.20283
50.62482,0.18115
50.38375,0.16985
50.14268,0.18245
49.90161,0.20868
49.66053,0.21820
49.41946,0.20099
49.17839,0.18665
48.93732,0.19613
48.69625,0.21574
48.45518,0.21478
48.21411,0.19872
47.97304,0.19804
47.73197,0.21418
47.49090,0.21693
47.24983,0.19671
47.00876,0.18341
46.76769,0.18722
46.52662,0.18786
46.28555,0.17832
46.04448,0.17487
45.80341,0.17903
45.56234,0.17823
45.32126,0.17359
45.08019,0.17391
44.83912,0.17758
44.59805,0.18163
44.35698,0.18788
44.11591,0.19158
43.87484,0.18783
43.63377,0.18307
43.39270,0.18315
43.15163,0.18861
42.91056,0.19913
42.66949,0.20903
42.42842,0.21013
42.18735,0.20492
41.94628,0.20113
41.70521,0.19925
41.46414,0.19763
41.22307,0.19716
40.98199,0.19784
40.74092,0.20139
40.49985,0.21217
40.25878,0.22891
40.01771,0.24271
39.77664,0.24658
39.53557,0.24223
39.29450,0.23910
39.05343,0.24791
38.81236,0.26981
38.57129,0.29327
38.33022,0.30724
38.08915,0.31244
37.84808,0.31227
37.60701,0.30286
37.36594,0.28332
37.12487,0.26476
36.88380,0.25695
36.64272,0.25537
36.40165,0.24964
36.16058,0.23890
35.91951,0.23175
35.67844,0.23269
35.43737,0.23377
35.19630,0.22348
34.95523,0.20384
34.71416,0.18796
34.47309,0.18175
34.23202,0.17996
33.99095,0.17636
33.74988,0.16977
33.50881,0.16262
33.26774,0.15732
33.02667,0.15289
32.78560,0.14879
32.54453,0.14927
32.30345,0.15593
32.06238,0.16148
31.82131,0.15654
31.58024,0.13806
31.33917,0.11033
31.09810,0.08153
30.85703,0.05863
30.61596,0.04328
30.37489,0.03249
30.13382,0.02160
29.89275,0.00702
29.65168,-0.01149
29.41061,-0.02986
29.16954,-0.04188
28.92847,-0.04649
28.68740,-0.05005
28.44633,-0.05842
28.20526,-0.07102
27.96418,-0.08354
27.72311,-0.09240
27.48204,-0.09443
27.24097,-0.09009
26.99990,-0.08871
26.75883,-0.10003
26.51776,-0.11976
26.27669,-0.13471
26.03562,-0.14180
25.79455,-0.14942
25.55348,-0.16044
25.31241,-0.16873
25.07134,-0.17410
24.83027,-0.18383
24.58920,-0.19939
24.34813,-0.21487
24.10706,-0.22542
23.86599,-0.23045
23.62491,-0.23407
23.38384,-0.24286
23.14277,-0.25712
22.90170,-0.26703
22.66063,-0.26594
22.41956,-0.26009
22.17849,-0.25792
21.93742,-0.26199
21.69635,-0.27153
21.45528,-0.28226
21.21421,-0.28731
20.97314,-0.28633
20.73207,-0.28662
20.49100,-0.28982
20.24993,-0.28722
20.00886,-0.27481
19.76779,-0.26306
19.52672,-0.26523
19.28564,-0.28617
19.04457,-0.32234
18.80350,-0.36133
18.56243,-0.38515
18.32136,-0.38573
18.08029,-0.37554
17.83922,-0.37107
17.59815,-0.36932
17.35708,-0.35963
17.11601,-0.34922
16.87494,-0.35319
16.63387,-0.37119
16.39280,-0.38716
16.15173,-0.39035
15.91066,-0.38836
15.66959,-0.39363
15.42852,-0.40733
15.18745,-0.41968
14.94637,-0.42129
14.70530,-0.41212
14.46423,-0.40060
14.22316,-0.39660
13.98209,-0.40007
13.74102,-0.40437
13.49995,-0.40428
13.25888,-0.39924
13.01781,-0.39563
12.77674,-0.40141
12.53567,-0.41691
12.29460,-0.43492
12.05353,-0.44902
11.81246,-0.45493
11.57139,-0.45058
11.33032,-0.44033
11.08925,-0.42927
10.84818,-0.41794
10.60710,-0.40898
10.36603,-0.40759
10.12496,-0.41531
9.88389,-0.43024
9.64282,-0.44748
9.40175,-0.45992
9.16068,-0.46573
8.91961,-0.46903
8.67854,-0.47106
8.43747,-0.47003
8.19640,-0.46768
7.95533,-0.46869
7.71426,-0.47458
7.47319,-0.48173
7.23212,-0.48273
6.99105,-0.47669
6.74998,-0.47336
6.50891,-0.47434
6.26783,-0.47602
6.02676,-0.48066
5.78569,-0.48658
5.54462,-0.48684
5.30355,-0.48063
5.06248,-0.47105
4.82141,-0.46144
4.58034,-0.46004
4.33927,-0.46816
4.09820,-0.47204
3.85713,-0.46300
3.61606,-0.45034
3.37499,-0.44485
3.13392,-0.45028
2.89285,-0.45992
2.65178,-0.46125
2.41071,-0.45772
2.16964,-0.46435
1.92856,-0.47804
1.68749,-0.48375
1.44642,-0.48169
1.20535,-0.47184
0.96428,-0.45538
0.72321,-0.45942
0.48214,-0.51904
0.24107,-0.53019
-0.00000,-0.19653
