399.69498,1.49081
399.45391,1.48615
399.21284,1.48433
398.97177,1.48998
398.73070,1.49909
398.48963,1.50409
398.24856,1.50589
398.00749,1.51211
397.76642,1.52271
397.52535,1.52668
397.28428,1.51670
397.04321,1.50059
396.80214,1.49082
396.56107,1.49110
396.32000,1.49545
396.07892,1.49440
395.83785,1.48412
395.59678,1.46951
395.35571,1.45897
395.11464,1.45743
394.87357,1.46189
394.63250,1.46428
394.39143,1.46143
394.15036,1.45847
393.90929,1.45989
393.66822,1.46303
393.42715,1.46411
393.18608,1.46415
392.94501,1.46494
392.70394,1.46465
392.46287,1.46283
392.22180,1.46399
391.98073,1.46928
391.73965,1.47621
391.49858,1.48314
391.25751,1.48876
391.01644,1.49329
390.77537,1.49537
390.53430,1.48829
390.29323,1.46968
390.05216,1.45113
389.81109,1.44725
389.57002,1.45755
389.32895,1.46575
389.08788,1.45835
388.84681,1.43660
388.60574,1.41381
388.36467,1.40252
388.12360,1.40546
387.88253,1.41693
387.64146,1.42721
387.40038,1.42704
387.15931,1.41552
386.91824,1.40165
386.67717,1.39169
386.43610,1.38147
386.19503,1.36613
385.95396,1.35128
385.71289,1.34856
385.47182,1.36215
385.23075,1.38237
384.98968,1.39085
384.74861,1.37630
384.50754,1.34541
384.26647,1.31239
384.02540,1.28845
383.78433,1.28064
383.54326,1.28735
383.30219,1.29418
383.06111,1.28675
382.82004,1.27111
382.57897,1.26393
382.33790,1.26771
382.09683,1.27035
381.85576,1.26204
381.61469,1.24586
381.37362,1.23498
381.13255,1.23686
380.89148,1.24489
380.65041,1.25011
380.40934,1.25243
380.16827,1.25454
379.92720,1.25256
379.68613,1.24260
379.44506,1.23149
379.20399,1.23045
378.96292,1.24180
378.72184,1.25814
378.48077,1.27345
378.23970,1.28822
377.99863,1.30151
377.75756,1.30746
377.51649,1.30738
377.27542,1.31181
377.03435,1.32718
376.79328,1.34919
376.55221,1.36531
376.31114,1.36479
376.07007,1.35043
375.82900,1.33633
375.58793,1.33403
375.34686,1.34450
375.10579,1.36212
374.86472,1.37831
374.62365,1.38348
374.38257,1.37647
374.14150,1.36882
373.90043,1.37034
373.65936,1.37593
373.41829,1.37326
373.17722,1.35990
372.93615,1.34336
372.69508,1.32884
372.45401,1.31814
372.21294,1.31433
371.97187,1.31883
371.73080,1.32468
371.48973,1.32038
371.24866,1.30547
371.00759,1.29222
370.76652,1.28767
370.52545,1.28648
370.28437,1.28293
370.04330,1.27904
369.80223,1.27776
369.56116,1.27631
369.32009,1.26943
369.07902,1.25637
368.83795,1.24244
368.59688,1.23351
368.35581,1.22945
368.11474,1.22583
367.87367,1.22182
367.63260,1.22072
367.39153,1.22301
367.15046,1.22545
366.90939,1.22567
366.66832,1.22268
366.42725,1.21535
366.18618,1.20398
365.94510,1.19268
365.70403,1.18781
365.46296,1.19210
365.22189,1.20080
364.98082,1.20499
364.73975,1.19994
364.49868,1.18859
364.25761,1.17784
364.01654,1.17330
363.77547,1.17435
363.53440,1.17490
363.29333,1.17196
363.05226,1.16990
362.81119,1.17241
362.57012,1.17565
362.32905,1.17372
362.08798,1.16736
361.84691,1.16273
361.60583,1.16369
361.36476,1.16857
361.12369,1.17299
360.88262,1.17433
360.64155,1.17275
360.40048,1.16954
360.15941,1.16663
359.91834,1.16614
359.67727,1.16849
359.43620,1.17162
359.19513,1.17252
358.95406,1.16975
358.71299,1.16451
358.47192,1.15910
358.23085,1.15532
357.98978,1.15339
357.74871,1.15163
357.50764,1.14759
357.26656,1.14175
357.02549,1.13796
356.78442,1.13843
356.54335,1.14099
356.30228,1.14249
356.06121,1.14301
355.82014,1.14501
355.57907,1.14899
355.33800,1.15236
355.09693,1.15273
354.85586,1.15151
354.61479,1.15244
354.37372,1.15621
354.13265,1.15903
353.89158,1.15788
353.65051,1.15377
353.40944,1.14802
353.16837,1.14152
352.92729,1.13878
352.68622,1.14466
352.44515,1.15569
352.20408,1.16251
351.96301,1.16248
351.72194,1.16111
351.48087,1.16184
351.23980,1.16302
350.99873,1.16361
350.75766,1.16469
350.51659,1.16533
350.27552,1.16362
350.03445,1.16139
349.79338,1.16259
349.55231,1.16807
349.31124,1.17472
349.07017,1.17946
348.82910,1.18307
348.58802,1.18873
348.34695,1.19670
348.10588,1.20318
347.86481,1.20481
347.62374,1.20178
347.38267,1.19751
347.14160,1.19727
346.90053,1.20367
346.65946,1.21169
346.41839,1.21237
346.17732,1.20460
345.93625,1.19808
345.69518,1.20243
345.45411,1.21786
345.21304,1.23597
344.97197,1.24674
344.73090,1.24561
344.48983,1.23595
344.24875,1.22584
344.00768,1.22256
343.76661,1.22840
343.52554,1.24039
343.28447,1.25417
343.04340,1.26776
342.80233,1.28031
342.56126,1.28946
342.32019,1.29277
342.07912,1.29066
341.83805,1.28573
341.59698,1.28064
341.35591,1.27764
341.11484,1.27837
340.87377,1.28339
340.63270,1.29286
340.39163,1.30634
340.15056,1.32150
339.90948,1.33324
339.66841,1.33701
339.42734,1.33449
339.18627,1.33162
338.94520,1.32965
338.70413,1.32633
338.46306,1.32529
338.22199,1.33256
337.98092,1.34582
337.73985,1.35633
337.49878,1.36014
337.25771,1.36011
337.01664,1.35947
336.77557,1.35801
336.53450,1.35511
336.29343,1.35533
336.05236,1.36406
335.81129,1.37857
335.57021,1.38903
335.32914,1.38938
335.08807,1.38079
334.84700,1.36618
334.60593,1.35008
334.36486,1.33919
334.12379,1.33665
333.88272,1.33689
333.64165,1.33249
333.40058,1.32375
333.15951,1.31461
332.91844,1.30559
332.67737,1.29451
332.43630,1.28238
332.19523,1.27308
331.95416,1.26818
331.71309,1.26519
331.47202,1.26207
331.23094,1.26024
330.98987,1.25982
330.74880,1.25747
330.50773,1.25108
330.26666,1.24205
330.02559,1.23315
329.78452,1.22879
329.54345,1.23364
329.30238,1.24611
329.06131,1.25622
328.82024,1.25607
328.57917,1.25026
328.33810,1.24802
328.09703,1.24976
327.85596,1.24870
327.61489,1.24312
327.37382,1.23806
327.13275,1.23435
326.89167,1.22805
326.65060,1.22169
326.40953,1.22196
326.16846,1.22590
325.92739,1.22270
325.68632,1.21149
325.44525,1.20651
325.20418,1.21962
324.96311,1.24424
324.72204,1.25924
324.48097,1.25306
324.23990,1.23767
323.99883,1.23087
323.75776,1.23831
323.51669,1.25369
323.27562,1.26745
323.03455,1.27288
322.79348,1.26854
322.55240,1.25877
322.31133,1.25145
322.07026,1.25204
321.82919,1.25776
321.58812,1.26016
321.34705,1.25438
321.10598,1.24582
320.86491,1.24414
320.62384,1.24932
320.38277,1.25239
320.14170,1.25210
319.90063,1.25806
319.65956,1.27355
319.41849,1.28826
319.17742,1.29307
318.93635,1.28984
318.69528,1.28230
318.45421,1.27237
318.21313,1.26515
317.97206,1.26401
317.73099,1.26575
317.48992,1.26767
317.24885,1.27079
317.00778,1.27438
316.76671,1.27522
316.52564,1.27129
316.28457,1.26398
316.04350,1.25943
315.80243,1.26305
315.56136,1.27326
315.32029,1.28416
315.07922,1.29056
314.83815,1.29075
314.59708,1.28765
314.35601,1.28609
314.11494,1.28676
313.87386,1.28790
313.63279,1.29044
313.39172,1.29577
313.15065,1.30264
312.90958,1.30938
312.66851,1.31538
312.42744,1.32013
312.18637,1.32315
311.94530,1.32595
311.70423,1.32959
311.46316,1.33327
311.22209,1.33593
310.98102,1.33527
310.73995,1.33050
310.49888,1.32772
310.25781,1.33247
310.01674,1.33934
309.77567,1.33938
309.53459,1.33390
309.29352,1.33016
309.05245,1.33109
308.81138,1.33834
308.57031,1.35351
308.32924,1.37049
308.08817,1.37861
307.84710,1.37767
307.60603,1.37548
307.36496,1.37449
307.12389,1.37256
306.88282,1.36928
306.64175,1.36761
306.40068,1.36923
306.15961,1.37078
305.91854,1.36934
305.67747,1.36603
305.43640,1.36124
305.19532,1.35278
304.95425,1.34072
304.71318,1.33023
304.47211,1.32529
304.23104,1.32319
303.98997,1.31977
303.74890,1.31712
303.50783,1.32107
303.26676,1.33008
303.02569,1.33280
302.78462,1.32304
302.54355,1.31091
302.30248,1.30877
302.06141,1.31566
301.82034,1.32092
301.57927,1.31632
301.33820,1.30155
301.09713,1.28133
300.85605,1.26170
300.61498,1.24707
300.37391,1.23787
300.13284,1.23110
299.89177,1.22367
299.65070,1.21490
299.40963,1.20647
299.16856,1.20086
298.92749,1.19876
298.68642,1.19795
298.44535,1.19673
298.20428,1.19743
297.96321,1.20180
297.72214,1.20521
297.48107,1.20181
297.24000,1.19235
296.99893,1.18121
296.75786,1.17068
296.51678,1.16192
296.27571,1.15656
296.03464,1.15485
295.79357,1.15439
295.55250,1.15227
295.31143,1.14806
295.07036,1.14444
294.82929,1.14399
294.58822,1.14616
294.34715,1.14817
294.10608,1.14751
293.86501,1.14308
293.62394,1.13651
293.38287,1.13132
293.14180,1.12879
292.90073,1.12615
292.65966,1.12060
292.41859,1.11316
292.17751,1.10717
291.93644,1.10462
291.69537,1.10542
291.45430,1.10771
291.21323,1.10817
290.97216,1.10438
290.73109,1.09814
290.49002,1.09394
290.24895,1.09304
290.00788,1.09209
289.76681,1.08829
289.52574,1.08348
289.28467,1.08142
289.04360,1.08272
288.80253,1.08465
288.56146,1.08517
288.32039,1.08501
288.07932,1.08548
287.83824,1.08570
287.59717,1.08369
287.35610,1.07908
287.11503,1.07339
286.87396,1.06863
286.63289,1.06597
286.39182,1.06524
286.15075,1.06510
285.90968,1.06403
285.66861,1.06138
285.42754,1.05816
285.18647,1.05712
284.94540,1.06021
284.70433,1.06503
284.46326,1.06648
284.22219,1.06301
283.98112,1.05853
283.74005,1.05668
283.49897,1.05694
283.25790,1.05726
283.01683,1.05727
282.77576,1.05777
282.53469,1.05928
282.29362,1.06158
282.05255,1.06371
281.81148,1.06513
281.57041,1.06649
281.32934,1.06773
281.08827,1.06688
280.84720,1.06356
280.60613,1.06128
280.36506,1.06241
280.12399,1.06410
279.88292,1.06260
279.64185,1.05874
279.40078,1.05595
279.15970,1.05527
278.91863,1.05540
278.67756,1.05588
278.43649,1.05706
278.19542,1.05824
277.95435,1.05908
277.71328,1.06135
277.47221,1.06632
277.23114,1.07215
276.99007,1.07567
276.74900,1.07592
276.50793,1.07446
276.26686,1.07252
276.02579,1.06988
275.78472,1.06661
275.54365,1.06444
275.30258,1.06567
275.06151,1.07063
274.82043,1.07658
274.57936,1.07986
274.33829,1.07932
274.09722,1.07650
273.85615,1.07354
273.61508,1.07304
273.37401,1.07776
273.13294,1.08739
272.89187,1.09696
272.65080,1.10131
272.40973,1.10057
272.16866,1.09951
271.92759,1.10238
271.68652,1.10926
271.44545,1.11657
271.20438,1.12052
270.96331,1.12101
270.72224,1.12136
270.48116,1.12442
270.24009,1.13039
269.99902,1.13744
269.75795,1.14298
269.51688,1.14512
269.27581,1.14373
269.03474,1.14093
268.79367,1.14073
268.55260,1.14602
268.31153,1.15477
268.07046,1.16107
267.82939,1.16249
267.58832,1.16380
267.34725,1.17034
267.10618,1.18129
266.86511,1.19173
266.62404,1.19972
266.38297,1.20870
266.14189,1.22183
265.90082,1.23627
265.65975,1.24606
265.41868,1.25055
265.17761,1.25583
264.93654,1.26665
264.69547,1.28123
264.45440,1.29487
264.21333,1.30443
263.97226,1.30912
263.73119,1.31116
263.49012,1.31573
263.24905,1.32697
263.00798,1.34408
262.76691,1.36347
262.52584,1.38400
262.28477,1.40762
262.04370,1.43451
261.80262,1.45964
261.56155,1.47771
261.32048,1.49052
261.07941,1.50526
260.83834,1.52757
260.59727,1.55690
260.35620,1.58577
260.11513,1.60500
259.87406,1.61399
259.63299,1.62519
259.39192,1.65273
259.15085,1.69748
258.90978,1.74770
258.66871,1.79001
258.42764,1.81722
258.18657,1.82758
257.94550,1.82076
257.70443,1.79741
257.46335,1.76849
257.22228,1.75118
256.98121,1.74891
256.74014,1.75189
256.49907,1.74787
256.25800,1.73196
256.01693,1.70988
255.77586,1.69121
255.53479,1.67957
255.29372,1.67088
255.05265,1.66011
254.81158,1.64862
254.57051,1.63860
254.32944,1.62209
254.08837,1.59074
253.84730,1.55327
253.60623,1.52744
253.36516,1.51857
253.12408,1.51835
252.88301,1.52039
252.64194,1.52495
252.40087,1.52935
252.15980,1.52675
251.91873,1.51642
251.67766,1.50617
251.43659,1.50235
251.19552,1.50347
250.95445,1.50586
250.71338,1.51047
250.47231,1.52049
250.23124,1.53307
249.99017,1.53765
249.74910,1.52923
249.50803,1.51667
249.26696,1.51053
249.02589,1.51113
248.78481,1.51140
248.54374,1.50722
248.30267,1.50081
248.06160,1.49623
247.82053,1.49680
247.57946,1.50381
247.33839,1.51401
247.09732,1.52066
246.85625,1.51811
246.61518,1.50682
246.37411,1.49484
246.13304,1.49184
245.89197,1.50115
245.65090,1.51830
245.40983,1.53637
245.16876,1.55176
244.92769,1.56487
244.68661,1.57893
244.44554,1.59879
244.20447,1.62821
243.96340,1.66763
243.72233,1.71333
243.48126,1.76135
243.24019,1.81119
242.99912,1.86174
242.75805,1.91770
242.51698,1.95585
242.27591,1.84931
242.03484,1.72015
241.79377,1.61523
241.55270,1.52335
241.31163,1.44414
241.07056,1.37960
240.82949,1.32638
240.58842,1.27702
240.34734,1.22757
240.10627,1.18094
239.86520,1.14060
239.62413,1.10601
239.38306,1.07508
239.14199,1.04730
238.90092,1.02287
238.65985,1.00064
238.41878,0.97904
238.17771,0.95871
237.93664,0.94167
237.69557,0.92761
237.45450,0.91351
237.21343,0.89764
236.97236,0.88174
236.73129,0.86872
236.49022,0.85946
236.24915,0.85190
236.00807,0.84304
235.76700,0.83196
235.52593,0.82073
235.28486,0.81220
235.04379,0.80753
234.80272,0.80542
234.56165,0.80338
234.32058,0.80014
234.07951,0.79658
233.83844,0.79387
233.59737,0.79154
233.35630,0.78828
233.11523,0.78389
232.87416,0.77964
232.63309,0.77701
232.39202,0.77623
232.15095,0.77602
231.90988,0.77468
231.66880,0.77151
231.42773,0.76728
231.18666,0.76365
230.94559,0.76196
230.70452,0.76233
230.46345,0.76368
230.22238,0.76441
229.98131,0.76388
229.74024,0.76292
229.49917,0.76241
229.25810,0.76218
229.01703,0.76203
228.77596,0.76218
228.53489,0.76214
228.29382,0.76086
228.05275,0.75845
227.81168,0.75616
227.57061,0.75492
227.32953,0.75469
227.08846,0.75504
226.84739,0.75585
226.60632,0.75663
226.36525,0.75585
226.12418,0.75292
225.88311,0.75053
225.64204,0.75169
225.40097,0.75561
225.15990,0.75958
224.91883,0.76299
224.67776,0.76611
224.43669,0.76769
224.19562,0.76743
223.95455,0.76757
223.71348,0.76964
223.47241,0.77286
223.23134,0.77669
222.99026,0.78171
222.74919,0.78774
222.50812,0.79396
222.26705,0.80039
222.02598,0.80690
221.78491,0.81273
221.54384,0.81829
221.30277,0.82498
221.06170,0.83304
220.82063,0.84185
220.57956,0.85154
220.33849,0.86191
220.09742,0.87156
219.85635,0.87990
219.61528,0.88806
219.37421,0.89697
219.13314,0.90702
218.89207,0.91931
218.65099,0.93501
218.40992,0.95318
218.16885,0.97030
217.92778,0.98332
217.68671,0.99289
217.44564,1.00219
217.20457,1.01320
216.96350,1.02630
216.72243,1.04207
216.48136,1.06070
216.24029,1.08129
215.99922,1.10298
215.75815,1.12449
215.51708,1.14270
215.27601,1.15448
215.03494,1.15979
214.79387,1.16306
214.55280,1.17128
214.31172,1.18789
214.07065,1.20940
213.82958,1.23036
213.58851,1.24877
213.34744,1.26355
213.10637,1.27247
212.86530,1.27616
212.62423,1.27813
212.38316,1.28103
212.14209,1.28710
211.90102,1.29759
211.65995,1.30958
211.41888,1.31983
211.17781,1.33206
210.93674,1.35239
210.69567,1.37750
210.45460,1.39462
210.21353,1.39558
209.97245,1.38433
209.73138,1.36908
209.49031,1.35444
209.24924,1.34111
209.00817,1.32912
208.76710,1.32147
208.52603,1.32268
208.28496,1.33026
208.04389,1.33151
207.80282,1.31583
207.56175,1.28708
207.32068,1.25812
207.07961,1.23901
206.83854,1.23174
206.59747,1.23154
206.35640,1.23042
206.11533,1.22154
205.87426,1.20442
205.63318,1.18520
205.39211,1.16956
205.15104,1.15739
204.90997,1.14475
204.66890,1.12834
204.42783,1.10746
204.18676,1.08484
203.94569,1.06508
203.70462,1.05023
203.46355,1.03848
203.22248,1.02766
202.98141,1.01716
202.74034,1.00554
202.49927,0.98953
202.25820,0.96716
202.01713,0.94091
201.77606,0.91642
201.53499,0.89785
201.29391,0.88533
201.05284,0.87608
200.81177,0.86664
200.57070,0.85436
200.32963,0.83904
200.08856,0.82345
199.84749,0.81041
199.60642,0.79984
199.36535,0.78956
199.12428,0.77795
198.88321,0.76496
198.64214,0.75156
198.40107,0.73907
198.16000,0.72880
197.91893,0.72076
197.67786,0.71288
197.43679,0.70314
197.19572,0.69228
196.95464,0.68245
196.71357,0.67398
196.47250,0.66557
196.23143,0.65686
195.99036,0.64852
195.74929,0.64070
195.50822,0.63363
195.26715,0.62820
195.02608,0.62435
194.78501,0.62032
194.54394,0.61457
194.30287,0.60753
194.06180,0.60092
193.82073,0.59575
193.57966,0.59177
193.33859,0.58840
193.09752,0.58510
192.85645,0.58083
192.61537,0.57483
192.37430,0.56834
192.13323,0.56379
191.89216,0.56175
191.65109,0.55985
191.41002,0.55567
191.16895,0.54996
190.92788,0.54553
190.68681,0.54362
190.44574,0.54291
190.20467,0.54183
189.96360,0.54044
189.72253,0.53958
189.48146,0.53931
189.24039,0.53853
188.99932,0.53581
188.75825,0.53108
188.51718,0.52646
188.27610,0.52397
188.03503,0.52296
187.79396,0.52149
187.55289,0.52017
187.31182,0.52125
187.07075,0.52402
186.82968,0.52482
186.58861,0.52251
186.34754,0.52040
186.10647,0.52159
185.86540,0.52501
185.62433,0.52764
185.38326,0.52868
185.14219,0.52958
184.90112,0.53105
184.66005,0.53235
184.41898,0.53322
184.17791,0.53432
183.93683,0.53589
183.69576,0.53747
183.45469,0.53902
183.21362,0.54095
182.97255,0.54327
182.73148,0.54558
182.49041,0.54736
182.24934,0.54796
182.00827,0.54734
181.76720,0.54690
181.52613,0.54817
181.28506,0.55078
181.04399,0.55325
180.80292,0.55517
180.56185,0.55698
180.32078,0.55873
180.07971,0.56079
179.83864,0.56468
179.59756,0.57131
179.35649,0.57964
179.11542,0.58803
178.87435,0.59564
178.63328,0.60227
178.39221,0.60854
178.15114,0.61572
177.91007,0.62430
177.66900,0.63401
177.42793,0.64545
177.18686,0.65955
176.94579,0.67554
176.70472,0.69218
176.46365,0.70995
176.22258,0.72988
175.98151,0.75135
175.74044,0.77248
175.49937,0.79221
175.25829,0.81147
175.01722,0.83229
174.77615,0.85528
174.53508,0.87895
174.29401,0.90203
174.05294,0.92471
173.81187,0.94729
173.57080,0.96918
173.32973,0.98920
173.08866,1.00682
172.84759,1.02325
172.60652,1.04022
172.36545,1.05679
172.12438,1.06820
171.88331,1.06925
171.64224,1.05989
171.40117,1.04651
171.16010,1.03616
170.91902,1.03028
170.67795,1.02611
170.43688,1.02196
170.19581,1.01729
169.95474,1.01047
169.71367,1.00078
169.47260,0.99043
169.23153,0.98179
168.99046,0.97489
168.74939,0.96903
168.50832,0.96411
168.26725,0.96030
168.02618,0.95799
167.78511,0.95703
167.54404,0.95574
167.30297,0.95254
167.06190,0.94898
166.82083,0.94898
166.57975,0.95419
166.33868,0.96205
166.09761,0.96892
165.85654,0.97328
165.61547,0.97653
165.37440,0.98189
165.13333,0.99104
164.89226,1.00200
164.65119,1.01295
164.41012,1.02600
164.16905,1.04371
163.92798,1.06474
163.68691,1.08540
163.44584,1.10220
163.20477,1.11267
162.96370,1.11805
162.72263,1.12381
162.48156,1.13491
162.24048,1.15187
161.99941,1.17203
161.75834,1.19155
161.51727,1.20597
161.27620,1.21277
161.03513,1.21355
160.79406,1.21136
160.55299,1.20674
160.31192,1.19798
160.07085,1.18560
159.82978,1.17317
159.58871,1.16258
159.34764,1.15284
159.10657,1.14290
158.86550,1.13210
158.62443,1.12012
158.38336,1.10784
158.14229,1.09652
157.90121,1.08703
157.66014,1.08059
157.41907,1.07770
157.17800,1.07556
156.93693,1.06991
156.69586,1.06052
156.45479,1.05185
156.21372,1.04837
155.97265,1.05072
155.73158,1.05381
155.49051,1.04949
155.24944,1.03507
155.00837,1.01618
154.76730,0.99829
154.52623,0.98152
154.28516,0.96439
154.04409,0.94731
153.80302,0.93038
153.56194,0.91161
153.32087,0.88911
153.07980,0.86273
152.83873,0.83414
152.59766,0.80700
152.35659,0.78542
152.11552,0.77001
151.87445,0.75675
151.63338,0.74123
151.39231,0.72293
151.15124,0.70447
150.91017,0.68815
150.66910,0.67394
150.42803,0.65977
150.18696,0.64350
149.94589,0.62540
149.70482,0.60845
149.46375,0.59558
149.22267,0.58651
148.98160,0.57805
148.74053,0.56798
148.49946,0.55751
148.25839,0.54907
148.01732,0.54349
147.77625,0.54016
147.53518,0.53828
147.29411,0.53717
147.05304,0.53657
146.81197,0.53682
146.57090,0.53815
146.32983,0.54031
146.08876,0.54326
145.84769,0.54751
145.60662,0.55334
145.36555,0.56015
145.12448,0.56696
144.88340,0.57331
144.64233,0.57948
144.40126,0.58600
144.16019,0.59268
143.91912,0.59811
143.67805,0.60027
143.43698,0.59814
143.19591,0.59245
142.95484,0.58430
142.71377,0.57405
142.47270,0.56214
142.23163,0.55006
141.99056,0.53931
141.74949,0.53012
141.50842,0.52151
141.26735,0.51254
141.02628,0.50368
140.78521,0.49693
140.54413,0.49438
140.30306,0.49604
140.06199,0.49978
139.82092,0.50359
139.57985,0.50729
139.33878,0.51168
139.09771,0.51707
138.85664,0.52338
138.61557,0.53104
138.37450,0.54043
138.13343,0.55117
137.89236,0.56290
137.65129,0.57620
137.41022,0.59189
137.16915,0.61007
136.92808,0.63061
136.68701,0.65353
136.44594,0.67874
136.20486,0.70619
135.96379,0.73607
135.72272,0.76803
135.48165,0.80074
135.24058,0.83349
134.99951,0.86735
134.75844,0.90359
134.51737,0.94190
134.27630,0.98072
134.03523,1.01788
133.79416,1.05195
133.55309,1.08530
133.31202,1.12265
133.07095,1.16322
132.82988,1.19879
132.58881,1.22289
132.34774,1.23604
132.10667,1.23967
131.86559,1.23279
131.62452,1.21631
131.38345,1.19475
131.14238,1.17182
130.90131,1.14714
130.66024,1.11849
130.41917,1.08530
130.17810,1.04857
129.93703,1.00886
129.69596,0.96596
129.45489,0.92055
129.21382,0.87524
128.97275,0.83295
128.73168,0.79447
128.49061,0.75853
128.24954,0.72408
128.00847,0.69130
127.76740,0.66082
127.52632,0.63290
127.28525,0.60745
127.04418,0.58446
126.80311,0.56444
126.56204,0.54757
126.32097,0.53293
126.07990,0.51930
125.83883,0.50629
125.59776,0.49398
125.35669,0.48210
125.11562,0.47058
124.87455,0.45975
124.63348,0.44956
124.39241,0.43976
124.15134,0.43085
123.91027,0.42351
123.66920,0.41725
123.42812,0.41087
123.18705,0.40442
122.94598,0.39941
122.70491,0.39724
122.46384,0.39792
122.22277,0.40039
121.98170,0.40348
121.74063,0.40693
121.49956,0.41152
121.25849,0.41778
121.01742,0.42529
120.77635,0.43395
120.53528,0.44491
120.29421,0.45878
120.05314,0.47437
119.81207,0.49067
119.57100,0.50884
119.32993,0.53075
119.08885,0.55647
118.84778,0.58453
118.60671,0.61388
118.36564,0.64485
118.12457,0.67818
117.88350,0.71340
117.64243,0.74826
117.40136,0.77986
117.16029,0.80545
116.91922,0.82240
116.67815,0.82909
116.43708,0.82639
116.19601,0.81614
115.95494,0.79893
115.71387,0.77548
115.47280,0.74899
115.23173,0.72441
114.99066,0.70535
114.74958,0.69163
114.50851,0.67979
114.26744,0.66714
114.02637,0.65510
113.78530,0.64712
113.54423,0.64467
113.30316,0.64716
113.06209,0.65400
112.82102,0.66429
112.57995,0.67580
112.33888,0.68643
112.09781,0.69578
111.85674,0.70391
111.61567,0.71074
111.37460,0.71705
111.13353,0.72394
110.89246,0.73102
110.65139,0.73727
110.41031,0.74290
110.16924,0.74690
109.92817,0.74429
109.68710,0.72959
109.44603,0.70319
109.20496,0.67226
108.96389,0.64416
108.72282,0.62064
108.48175,0.59951
108.24068,0.57962
107.99961,0.56184
107.75854,0.54584
107.51747,0.52860
107.27640,0.50728
107.03533,0.48286
106.79426,0.45960
106.55319,0.44071
106.31212,0.42628
106.07104,0.41520
105.82997,0.40628
105.58890,0.39755
105.34783,0.38696
105.10676,0.37470
104.86569,0.36269
104.62462,0.35209
104.38355,0.34293
104.14248,0.33551
103.90141,0.33009
103.66034,0.32557
103.41927,0.31993
103.17820,0.31236
102.93713,0.30412
102.69606,0.29719
102.45499,0.29268
102.21392,0.29026
101.97285,0.28832
101.73177,0.28435
101.49070,0.27703
101.24963,0.26848
101.00856,0.26282
100.76749,0.26243
100.52642,0.26548
100.28535,0.26688
100.04428,0.26266
99.80321,0.25423
99.56214,0.24701
99.32107,0.24502
99.08000,0.24724
98.83893,0.24875
98.59786,0.24598
98.35679,0.24064
98.11572,0.23734
97.87465,0.23866
97.63358,0.24330
97.39250,0.24773
97.15143,0.24981
96.91036,0.25102
96.66929,0.25481
96.42822,0.26280
96.18715,0.27310
95.94608,0.28251
95.70501,0.29027
95.46394,0.29854
95.22287,0.30847
94.98180,0.31720
94.74073,0.32132
94.49966,0.32286
94.25859,0.32659
94.01752,0.33152
93.77645,0.33108
93.53538,0.32483
93.29431,0.32157
93.05323,0.32629
92.81216,0.33254
92.57109,0.33192
92.33002,0.32733
92.08895,0.32740
91.84788,0.33352
91.60681,0.34107
91.36574,0.34913
91.12467,0.36168
90.88360,0.38111
90.64253,0.40702
90.40146,0.43942
90.16039,0.47785
89.91932,0.52094
89.67825,0.57013
89.43718,0.62648
89.19611,0.68290
88.95504,0.72833
88.71396,0.75606
88.47289,0.75980
88.23182,0.73652
87.99075,0.69475
87.74968,0.64461
87.50861,0.58907
87.26754,0.53171
87.02647,0.47998
86.78540,0.43818
86.54433,0.40464
86.30326,0.37544
86.06219,0.34833
85.82112,0.32384
85.58005,0.30311
85.33898,0.28519
85.09791,0.26845
84.85684,0.25354
84.61577,0.24211
84.37469,0.23366
84.13362,0.22607
83.89255,0.21805
83.65148,0.20997
83.41041,0.20266
83.16934,0.19633
82.92827,0.19085
82.68720,0.18647
82.44613,0.18334
82.20506,0.18068
81.96399,0.17774
81.72292,0.17478
81.48185,0.17240
81.24078,0.17065
80.99971,0.16937
80.75864,0.16839
80.51757,0.16745
80.27650,0.16627
80.03542,0.16460
79.79435,0.16228
79.55328,0.15973
79.31221,0.15807
79.07114,0.15796
78.83007,0.15903
78.58900,0.16066
78.34793,0.16237
78.10686,0.16307
77.86579,0.16166
77.62472,0.15898
77.38365,0.15720
77.14258,0.15715
76.90151,0.15759
76.66044,0.15688
76.41937,0.15443
76.17830,0.15127
75.93723,0.14928
75.69615,0.14906
75.45508,0.14905
75.21401,0.14755
74.97294,0.14492
74.73187,0.14292
74.49080,0.14271
74.24973,0.14424
74.00866,0.14678
73.76759,0.14929
73.52652,0.15070
73.28545,0.15040
73.04438,0.14870
72.80331,0.14687
72.56224,0.14642
72.32117,0.14835
72.08010,0.15266
71.83903,0.15777
71.59796,0.16081
71.35688,0.15989
71.11581,0.15613
70.87474,0.15284
70.63367,0.15347
70.39260,0.16041
70.15153,0.17454
69.91046,0.19500
69.66939,0.21920
69.42832,0.24281
69.18725,0.26029
68.94618,0.26686
68.70511,0.26065
68.46404,0.24360
68.22297,0.22062
67.98190,0.19707
67.74083,0.17657
67.49976,0.16110
67.25869,0.15136
67.01761,0.14624
66.77654,0.14335
66.53547,0.14122
66.29440,0.14004
66.05333,0.14031
65.81226,0.14203
65.57119,0.14525
65.33012,0.15026
65.08905,0.15733
64.84798,0.16646
64.60691,0.17721
64.36584,0.18852
64.12477,0.19822
63.88370,0.20358
63.64263,0.20332
63.40156,0.19820
63.16049,0.18962
62.91942,0.17908
62.67834,0.16851
62.43727,0.15915
62.19620,0.15060
61.95513,0.14156
61.71406,0.13089
61.47299,0.11869
61.23192,0.10721
60.99085,0.09955
60.74978,0.09686
60.50871,0.09804
60.26764,0.10231
60.02657,0.11046
59.78550,0.12272
59.54443,0.13639
59.30336,0.14749
59.06229,0.15428
58.82122,0.15770
58.58015,0.15885
58.33907,0.15784
58.09800,0.15417
57.85693,0.14763
57.61586,0.13939
57.37479,0.13146
57.13372,0.12524
56.89265,0.12197
56.65158,0.12329
56.41051,0.12972
56.16944,0.13966
55.92837,0.15126
55.68730,0.16308
55.44623,0.17109
55.20516,0.16819
54.96409,0.15264
54.72302,0.13255
54.48195,0.11781
54.24088,0.11345
53.99980,0.12007
53.75873,0.13568
53.51766,0.15583
53.27659,0.17311
53.03552,0.17812
52.79445,0.16615
52.55338,0.14396
52.31231,0.12352
52.07124,0.11413
51.83017,0.12190
51.58910,0.14714
51.34803,0.17550
51.10696,0.17851
50.86589,0.14993
50.62482,0.11936
50.38375,0.11130
50.14268,0.13108
49.90161,0.16688
49.66053,0.18674
49.41946,0.16635
49.17839,0.12931
48.93732,0.10939
48.69625,0.12041
48.45518,0.15377
48.21411,0.17282
47.97304,0.15511
47.73197,0.13749
47.49090,0.14554
47.24983,0.16033
47.00876,0.14756
46.76769,0.11905
46.52662,0.11426
46.28555,0.13425
46.04448,0.14194
45.80341,0.12519
45.56234,0.11758
45.32126,0.13078
45.08019,0.14086
44.83912,0.13504
44.59805,0.13045
44.35698,0.13422
44.11591,0.13999
43.87484,0.14595
43.63377,0.14851
43.39270,0.14251
43.15163,0.13678
42.91056,0.14204
42.66949,0.15404
42.42842,0.16423
42.18735,0.17005
41.94628,0.16820
41.70521,0.15869
41.46414,0.15005
41.22307,0.14708
40.98199,0.14576
40.74092,0.14384
40.49985,0.14637
40.25878,0.15790
40.01771,0.17355
39.77664,0.18156
39.53557,0.17647
39.29450,0.16504
39.05343,0.15748
38.81236,0.15842
38.57129,0.16633
38.33022,0.17558
38.08915,0.18052
37.84808,0.18156
37.60701,0.18528
37.36594,0.19632
37.12487,0.21170
36.88380,0.22411
36.64272,0.22820
36.40165,0.22373
36.16058,0.21326
35.91951,0.20038
35.67844,0.18996
35.43737,0.18460
35.19630,0.18145
34.95523,0.17659
34.71416,0.16947
34.47309,0.16147
34.23202,0.15394
33.99095,0.14646
33.74988,0.13817
33.50881,0.12950
33.26774,0.12068
33.02667,0.11278
32.78560,0.11142
32.54453,0.12075
32.30345,0.13426
32.06238,0.13971
31.82131,0.13054
31.58024,0.10936
31.33917,0.08525
31.09810,0.06839
30.85703,0.06075
30.61596,0.05469
30.37489,0.04352
30.13382,0.03015
29.89275,0.02225
29.65168,0.02034
29.41061,0.01455
29.16954,-0.00643
28.92847,-0.04075
28.68740,-0.07299
28.44633,-0.09559
28.20526,-0.11400
27.96418,-0.12986
27.72311,-0.13715
27.48204,-0.12775
27.24097,-0.10246
26.99990,-0.07898
26.75883,-0.07594
26.51776,-0.09675
26.27669,-0.12994
26.03562,-0.16400
25.79455,-0.19672
25.55348,-0.22210
25.31241,-0.22529
25.07134,-0.20580
24.83027,-0.18700
24.58920,-0.18919
24.34813,-0.21020
24.10706,-0.23863
23.86599,-0.26817
23.62491,-0.29380
23.38384,-0.31057
23.14277,-0.31949
22.90170,-0.32509
22.66063,-0.33202
22.41956,-0.34418
22.17849,-0.36118
21.93742,-0.37593
21.69635,-0.38097
21.45528,-0.37886
21.21421,-0.37983
20.97314,-0.38730
20.73207,-0.39567
20.49100,-0.40444
20.24993,-0.41981
20.00886,-0.43812
19.76779,-0.45002
19.52672,-0.46057
19.28564,-0.47743
19.04457,-0.49517
18.80350,-0.50319
18.56243,-0.50463
18.32136,-0.50875
18.08029,-0.50743
17.83922,-0.48490
17.59815,-0.45289
17.35708,-0.43846
17.11601,-0.44589
16.87494,-0.46859
16.63387,-0.50474
16.39280,-0.52618
16.15173,-0.51959
15.91066,-0.50935
15.66959,-0.51598
15.42852,-0.53969
15.18745,-0.57125
14.94637,-0.59606
14.70530,-0.60624
14.46423,-0.58121
14.22316,-0.51289
13.98209,-0.47058
13.74102,-0.46277
13.49995,-0.46513
13.25888,-0.45822
13.01781,-0.44723
12.77674,-0.45069
12.53567,-0.47457
12.29460,-0.51095
12.05353,-0.53293
11.81246,-0.49913
11.57139,-0.46945
11.33032,-0.47194
11.08925,-0.49622
10.84818,-0.52210
10.60710,-0.52934
10.36603,-0.51945
10.12496,-0.51069
9.88389,-0.51401
9.64282,-0.51762
9.40175,-0.49304
9.16068,-0.47228
8.91961,-0.47537
8.67854,-0.49718
8.43747,-0.52609
8.19640,-0.54812
7.95533,-0.55237
7.71426,-0.55097
7.47319,-0.55629
7.23212,-0.55755
6.99105,-0.53788
6.74998,-0.50743
6.50891,-0.48509
6.26783,-0.47715
6.02676,-0.47216
5.78569,-0.46569
5.54462,-0.47295
5.30355,-0.49655
5.06248,-0.50672
4.82141,-0.48814
4.58034,-0.46823
4.33927,-0.46710
4.09820,-0.47417
3.85713,-0.47998
3.61606,-0.48291
3.37499,-0.47602
3.13392,-0.46617
2.89285,-0.46363
2.65178,-0.46695
2.41071,-0.46759
2.16964,-0.45652
1.92856,-0.44315
1.68749,-0.44212
1.44642,-0.46571
1.20535,-0.49505
0.96428,-0.50872
0.72321,-0.52741
0.48214,-0.53693
0.24107,-0.51350
-0.00000,-0.18474
