399.69498,1.44536
399.45391,1.44399
399.21284,1.44576
398.97177,1.44794
398.73070,1.44997
398.48963,1.45502
398.24856,1.46744
398.00749,1.48612
397.76642,1.50312
397.52535,1.51446
397.28428,1.52264
397.04321,1.52530
396.80214,1.51749
396.56107,1.50454
396.32000,1.49569
396.07892,1.48841
395.83785,1.47279
395.59678,1.44881
395.35571,1.42846
395.11464,1.42172
394.87357,1.43004
394.63250,1.44708
394.39143,1.46133
394.15036,1.46711
393.90929,1.47177
393.66822,1.48504
393.42715,1.50457
393.18608,1.51869
392.94501,1.52169
392.70394,1.51556
392.46287,1.50150
392.22180,1.48223
391.98073,1.46564
391.73965,1.45703
391.49858,1.45332
391.25751,1.45160
391.01644,1.45458
390.77537,1.46040
390.53430,1.46019
390.29323,1.44919
390.05216,1.43526
389.81109,1.43175
389.57002,1.43971
389.32895,1.44473
389.08788,1.43336
388.84681,1.40938
388.60574,1.38679
388.36467,1.37236
388.12360,1.36467
387.88253,1.36476
387.64146,1.37711
387.40038,1.40032
387.15931,1.42438
386.91824,1.43757
386.67717,1.43256
386.43610,1.41187
386.19503,1.38432
385.95396,1.35877
385.71289,1.34372
385.47182,1.34413
385.23075,1.35573
384.98968,1.36629
384.74861,1.36795
384.50754,1.36500
384.26647,1.35972
384.02540,1.34735
383.78433,1.32806
383.54326,1.30760
383.30219,1.29129
383.06111,1.27809
382.82004,1.26345
382.57897,1.24841
382.33790,1.23839
382.09683,1.23529
381.85576,1.23670
381.61469,1.24092
381.37362,1.24814
381.13255,1.25479
380.89148,1.25412
380.65041,1.24552
380.40934,1.23517
380.16827,1.22792
379.92720,1.22439
379.68613,1.22637
379.44506,1.23477
379.20399,1.24580
378.96292,1.25627
378.72184,1.26660
378.48077,1.27690
378.23970,1.28328
377.99863,1.28127
377.75756,1.27440
377.51649,1.27480
377.27542,1.28788
377.03435,1.30538
376.79328,1.31806
376.55221,1.32474
376.31114,1.32497
376.07007,1.31697
375.82900,1.30656
375.58793,1.30670
375.34686,1.32226
375.10579,1.34023
374.86472,1.34299
374.62365,1.33194
374.38257,1.32410
374.14150,1.32648
373.90043,1.33090
373.65936,1.33082
373.41829,1.32892
373.17722,1.32550
372.93615,1.31487
372.69508,1.29924
372.45401,1.29038
372.21294,1.29351
371.97187,1.29898
371.73080,1.29452
371.48973,1.28239
371.24866,1.27462
371.00759,1.27466
370.76652,1.27496
370.52545,1.27057
370.28437,1.26474
370.04330,1.25961
369.80223,1.25204
369.56116,1.24145
369.32009,1.23278
369.07902,1.22917
368.83795,1.22798
368.59688,1.22606
368.35581,1.22333
368.11474,1.21977
367.87367,1.21409
367.63260,1.20610
367.39153,1.19712
367.15046,1.18909
366.90939,1.18451
366.66832,1.18480
366.42725,1.18859
366.18618,1.19305
365.94510,1.19542
365.70403,1.19373
365.46296,1.18820
365.22189,1.18110
364.98082,1.17389
364.73975,1.16682
364.49868,1.16165
364.25761,1.16110
364.01654,1.16555
363.77547,1.17176
363.53440,1.17534
363.29333,1.17496
363.05226,1.17295
362.81119,1.17160
362.57012,1.17056
362.32905,1.16867
362.08798,1.16613
361.84691,1.16256
361.60583,1.15569
361.36476,1.14504
361.12369,1.13527
360.88262,1.13229
360.64155,1.13650
360.40048,1.14200
360.15941,1.14305
359.91834,1.13997
359.67727,1.13703
359.43620,1.13709
359.19513,1.14034
358.95406,1.14624
358.71299,1.15406
358.47192,1.16198
358.23085,1.16736
357.98978,1.16907
357.74871,1.16776
357.50764,1.16299
357.26656,1.15478
357.02549,1.14705
356.78442,1.14343
356.54335,1.14090
356.30228,1.13513
356.06121,1.12941
355.82014,1.12969
355.57907,1.13449
355.33800,1.13651
355.09693,1.13386
354.85586,1.13223
354.61479,1.13527
354.37372,1.14041
354.13265,1.14347
353.89158,1.14279
353.65051,1.13991
353.40944,1.13780
353.16837,1.13887
352.92729,1.14322
352.68622,1.14794
352.44515,1.14967
352.20408,1.14869
351.96301,1.14869
351.72194,1.15162
351.48087,1.15453
351.23980,1.15319
350.99873,1.14817
350.75766,1.14494
350.51659,1.14726
350.27552,1.15329
350.03445,1.15915
349.79338,1.16338
349.55231,1.16626
349.31124,1.16728
349.07017,1.16606
348.82910,1.16437
348.58802,1.16489
348.34695,1.16863
348.10588,1.17447
347.86481,1.18049
347.62374,1.18593
347.38267,1.19139
347.14160,1.19687
346.90053,1.20174
346.65946,1.20590
346.41839,1.20788
346.17732,1.20493
345.93625,1.19836
345.69518,1.19323
345.45411,1.19271
345.21304,1.19573
344.97197,1.19956
344.73090,1.20357
344.48983,1.20883
344.24875,1.21637
344.00768,1.22576
343.76661,1.23316
343.52554,1.23404
343.28447,1.22936
343.04340,1.22536
342.80233,1.22668
342.56126,1.23396
342.32019,1.24619
342.07912,1.25996
341.83805,1.26775
341.59698,1.26437
341.35591,1.25487
341.11484,1.24919
340.87377,1.25084
340.63270,1.25635
340.39163,1.26292
340.15056,1.27175
339.90948,1.28496
339.66841,1.30095
339.42734,1.31478
339.18627,1.32399
338.94520,1.33101
338.70413,1.33805
338.46306,1.34310
338.22199,1.34258
337.98092,1.33842
337.73985,1.33782
337.49878,1.34306
337.25771,1.34677
337.01664,1.34368
336.77557,1.34166
336.53450,1.35208
336.29343,1.37314
336.05236,1.38973
335.81129,1.39163
335.57021,1.38217
335.32914,1.36819
335.08807,1.35495
334.84700,1.34557
334.60593,1.33854
334.36486,1.32986
334.12379,1.31770
333.88272,1.30376
333.64165,1.29258
333.40058,1.28846
333.15951,1.29170
332.91844,1.29762
332.67737,1.29906
332.43630,1.29204
332.19523,1.27987
331.95416,1.26933
331.71309,1.26349
331.47202,1.26012
331.23094,1.25713
330.98987,1.25683
330.74880,1.26156
330.50773,1.26728
330.26666,1.26583
330.02559,1.25444
329.78452,1.23870
329.54345,1.22548
329.30238,1.21761
329.06131,1.21401
328.82024,1.21145
328.57917,1.20721
328.33810,1.20202
328.09703,1.20044
327.85596,1.20612
327.61489,1.21777
327.37382,1.23025
327.13275,1.23852
326.89167,1.24130
326.65060,1.24087
326.40953,1.23936
326.16846,1.23699
325.92739,1.23551
325.68632,1.23864
325.44525,1.24517
325.20418,1.24912
324.96311,1.25099
324.72204,1.25839
324.48097,1.26916
324.23990,1.26749
323.99883,1.24731
323.75776,1.22578
323.51669,1.22203
323.27562,1.23484
323.03455,1.24851
322.79348,1.25363
322.55240,1.25430
322.31133,1.25552
322.07026,1.25637
321.82919,1.25803
321.58812,1.26420
321.34705,1.27042
321.10598,1.26914
320.86491,1.26554
320.62384,1.26760
320.38277,1.27033
320.14170,1.26589
319.90063,1.25811
319.65956,1.25541
319.41849,1.25936
319.17742,1.26660
318.93635,1.27461
318.69528,1.28197
318.45421,1.28567
318.21313,1.28051
317.97206,1.26473
317.73099,1.24638
317.48992,1.23793
317.24885,1.24378
317.00778,1.25583
316.76671,1.26325
316.52564,1.26401
316.28457,1.26122
316.04350,1.25627
315.80243,1.25046
315.56136,1.24551
315.32029,1.24256
315.07922,1.24479
314.83815,1.25552
314.59708,1.27156
314.35601,1.28509
314.11494,1.29238
313.87386,1.29429
313.63279,1.29243
313.39172,1.29089
313.15065,1.29521
312.90958,1.30517
312.66851,1.31353
312.42744,1.31557
312.18637,1.31609
311.94530,1.32278
311.70423,1.33554
311.46316,1.34380
311.22209,1.33656
310.98102,1.31779
310.73995,1.30278
310.49888,1.30119
310.25781,1.31020
310.01674,1.31987
309.77567,1.32383
309.53459,1.32484
309.29352,1.32855
309.05245,1.33666
308.81138,1.34699
308.57031,1.35650
308.32924,1.36257
308.08817,1.36232
307.84710,1.35586
307.60603,1.34924
307.36496,1.34747
307.12389,1.34795
306.88282,1.34497
306.64175,1.34101
306.40068,1.34476
306.15961,1.35605
305.91854,1.36167
305.67747,1.35091
305.43640,1.32980
305.19532,1.31191
304.95425,1.30239
304.71318,1.29739
304.47211,1.29304
304.23104,1.28893
303.98997,1.28558
303.74890,1.28342
303.50783,1.28311
303.26676,1.28434
303.02569,1.28559
302.78462,1.28407
302.54355,1.27693
302.30248,1.26524
302.06141,1.25601
301.82034,1.25753
301.57927,1.26948
301.33820,1.28016
301.09713,1.27854
300.85605,1.26571
300.61498,1.24980
300.37391,1.23568
300.13284,1.22335
299.89177,1.21260
299.65070,1.20532
299.40963,1.20297
299.16856,1.20399
298.92749,1.20437
298.68642,1.20027
298.44535,1.19061
298.20428,1.17758
297.96321,1.16483
297.72214,1.15586
297.48107,1.15264
297.24000,1.15361
296.99893,1.15433
296.75786,1.15203
296.51678,1.14783
296.27571,1.14449
296.03464,1.14323
295.79357,1.14312
295.55250,1.14267
295.31143,1.14102
295.07036,1.13827
294.82929,1.13506
294.58822,1.13113
294.34715,1.12496
294.10608,1.11643
293.86501,1.10927
293.62394,1.10748
293.38287,1.11038
293.14180,1.11303
292.90073,1.11117
292.65966,1.10601
292.41859,1.10268
292.17751,1.10322
291.93644,1.10363
291.69537,1.10003
291.45430,1.09424
291.21323,1.08991
290.97216,1.08686
290.73109,1.08304
290.49002,1.07970
290.24895,1.08028
290.00788,1.08470
289.76681,1.08771
289.52574,1.08448
289.28467,1.07639
289.04360,1.06909
288.80253,1.06618
288.56146,1.06660
288.32039,1.06690
288.07932,1.06519
287.83824,1.06269
287.59717,1.06109
287.35610,1.05968
287.11503,1.05734
286.87396,1.05489
286.63289,1.05344
286.39182,1.05277
286.15075,1.05256
285.90968,1.05242
285.66861,1.05076
285.42754,1.04652
285.18647,1.04170
284.94540,1.03983
284.70433,1.04192
284.46326,1.04537
284.22219,1.04691
283.98112,1.04631
283.74005,1.04584
283.49897,1.04628
283.25790,1.04583
283.01683,1.04347
282.77576,1.04087
282.53469,1.04007
282.29362,1.04124
282.05255,1.04317
281.81148,1.04486
281.57041,1.04636
281.32934,1.04794
281.08827,1.04924
280.84720,1.04989
280.60613,1.05009
280.36506,1.05029
280.12399,1.05070
279.88292,1.05064
279.64185,1.04883
279.40078,1.04523
279.15970,1.04199
278.91863,1.04156
278.67756,1.04490
278.43649,1.05116
278.19542,1.05767
277.95435,1.06120
277.71328,1.06087
277.47221,1.05836
277.23114,1.05527
276.99007,1.05268
276.74900,1.05210
276.50793,1.05337
276.26686,1.05322
276.02579,1.04957
275.78472,1.04495
275.54365,1.04315
275.30258,1.04484
275.06151,1.04835
274.82043,1.05217
274.57936,1.05519
274.33829,1.05697
274.09722,1.05891
273.85615,1.06311
273.61508,1.06943
273.37401,1.07495
273.13294,1.07697
272.89187,1.07664
272.65080,1.07807
272.40973,1.08322
272.16866,1.08919
271.92759,1.09270
271.68652,1.09508
271.44545,1.09937
271.20438,1.10484
270.96331,1.10852
270.72224,1.10988
270.48116,1.11083
270.24009,1.11250
269.99902,1.11495
269.75795,1.11869
269.51688,1.12430
269.27581,1.13082
269.03474,1.13638
268.79367,1.14047
268.55260,1.14420
268.31153,1.14850
268.07046,1.15352
267.82939,1.15968
267.58832,1.16750
267.34725,1.17614
267.10618,1.18309
266.86511,1.18680
266.62404,1.18929
266.38297,1.19472
266.14189,1.20449
265.90082,1.21547
265.65975,1.22513
265.41868,1.23489
265.17761,1.24604
264.93654,1.25652
264.69547,1.26486
264.45440,1.27309
264.21333,1.28273
263.97226,1.29231
263.73119,1.30126
263.49012,1.31271
263.24905,1.32929
263.00798,1.34911
262.76691,1.36852
262.52584,1.38618
262.28477,1.40206
262.04370,1.41721
261.80262,1.43421
261.56155,1.45466
261.32048,1.47784
261.07941,1.50271
260.83834,1.52914
260.59727,1.55598
260.35620,1.58186
260.11513,1.60687
259.87406,1.62943
259.63299,1.64616
259.39192,1.66085
259.15085,1.68343
258.90978,1.71447
258.66871,1.74545
258.42764,1.77311
258.18657,1.79652
257.94550,1.80119
257.70443,1.77965
257.46335,1.75352
257.22228,1.74062
256.98121,1.73058
256.74014,1.70930
256.49907,1.68234
256.25800,1.66069
256.01693,1.64281
255.77586,1.62141
255.53479,1.59798
255.29372,1.58251
255.05265,1.58048
254.81158,1.58338
254.57051,1.57315
254.32944,1.54315
254.08837,1.51143
253.84730,1.50153
253.60623,1.51694
253.36516,1.53949
253.12408,1.54853
252.88301,1.53873
252.64194,1.52034
252.40087,1.50662
252.15980,1.50149
251.91873,1.49794
251.67766,1.49011
251.43659,1.48266
251.19552,1.48181
250.95445,1.48519
250.71338,1.48697
250.47231,1.48711
250.23124,1.48924
249.99017,1.49283
249.74910,1.49362
249.50803,1.48812
249.26696,1.47840
249.02589,1.47107
248.78481,1.47030
248.54374,1.47336
248.30267,1.47269
248.06160,1.46497
247.82053,1.45626
247.57946,1.45401
247.33839,1.45844
247.09732,1.46450
246.85625,1.46893
246.61518,1.47315
246.37411,1.48005
246.13304,1.48877
245.89197,1.49583
245.65090,1.50234
245.40983,1.51625
245.16876,1.54192
244.92769,1.57165
244.68661,1.59366
244.44554,1.60660
244.20447,1.62457
243.96340,1.66422
243.72233,1.72895
243.48126,1.80832
243.24019,1.89047
242.99912,1.96530
242.75805,2.01336
242.51698,1.98598
242.27591,1.84252
242.03484,1.70780
241.79377,1.60079
241.55270,1.51438
241.31163,1.44269
241.07056,1.37868
240.82949,1.31909
240.58842,1.26560
240.34734,1.21945
240.10627,1.17801
239.86520,1.13832
239.62413,1.10097
239.38306,1.06829
239.14199,1.04095
238.90092,1.01743
238.65985,0.99551
238.41878,0.97374
238.17771,0.95210
237.93664,0.93148
237.69557,0.91221
237.45450,0.89412
237.21343,0.87786
236.97236,0.86481
236.73129,0.85505
236.49022,0.84665
236.24915,0.83791
236.00807,0.82946
235.76700,0.82284
235.52593,0.81791
235.28486,0.81320
235.04379,0.80782
234.80272,0.80208
234.56165,0.79635
234.32058,0.79033
234.07951,0.78385
233.83844,0.77800
233.59737,0.77455
233.35630,0.77363
233.11523,0.77329
232.87416,0.77179
232.63309,0.76932
232.39202,0.76675
232.15095,0.76407
231.90988,0.76118
231.66880,0.75901
231.42773,0.75835
231.18666,0.75842
230.94559,0.75817
230.70452,0.75790
230.46345,0.75780
230.22238,0.75651
229.98131,0.75352
229.74024,0.75114
229.49917,0.75162
229.25810,0.75395
229.01703,0.75518
228.77596,0.75376
228.53489,0.75086
228.29382,0.74882
228.05275,0.74845
227.81168,0.74827
227.57061,0.74685
227.32953,0.74487
227.08846,0.74385
226.84739,0.74423
226.60632,0.74545
226.36525,0.74679
226.12418,0.74782
225.88311,0.74868
225.64204,0.75012
225.40097,0.75228
225.15990,0.75414
224.91883,0.75469
224.67776,0.75400
224.43669,0.75262
224.19562,0.75171
223.95455,0.75360
223.71348,0.75970
223.47241,0.76813
223.23134,0.77580
222.99026,0.78148
222.74919,0.78550
222.50812,0.78853
222.26705,0.79221
222.02598,0.79845
221.78491,0.80721
221.54384,0.81655
221.30277,0.82487
221.06170,0.83200
220.82063,0.83851
220.57956,0.84523
220.33849,0.85323
220.09742,0.86301
219.85635,0.87356
219.61528,0.88311
219.37421,0.89115
219.13314,0.89901
218.89207,0.90852
218.65099,0.92092
218.40992,0.93654
218.16885,0.95402
217.92778,0.97070
217.68671,0.98527
217.44564,0.99940
217.20457,1.01564
216.96350,1.03418
216.72243,1.05268
216.48136,1.06960
216.24029,1.08607
215.99922,1.10348
215.75815,1.12143
215.51708,1.13962
215.27601,1.15843
215.03494,1.17620
214.79387,1.18894
214.55280,1.19527
214.31172,1.19958
214.07065,1.20816
213.82958,1.22291
213.58851,1.23954
213.34744,1.25256
213.10637,1.26167
212.86530,1.27109
212.62423,1.28257
212.38316,1.29308
212.14209,1.30031
211.90102,1.30711
211.65995,1.31735
211.41888,1.32972
211.17781,1.33796
210.93674,1.33680
210.69567,1.32770
210.45460,1.31866
210.21353,1.31884
209.97245,1.33162
209.73138,1.35013
209.49031,1.36243
209.24924,1.36381
209.00817,1.35846
208.76710,1.34977
208.52603,1.33763
208.28496,1.32337
208.04389,1.31104
207.80282,1.30274
207.56175,1.29613
207.32068,1.28837
207.07961,1.27835
206.83854,1.26572
206.59747,1.25142
206.35640,1.23679
206.11533,1.22059
205.87426,1.20091
205.63318,1.17979
205.39211,1.16076
205.15104,1.14365
204.90997,1.12697
204.66890,1.11251
204.42783,1.10205
204.18676,1.09185
203.94569,1.07577
203.70462,1.05400
203.46355,1.03398
203.22248,1.02140
202.98141,1.01430
202.74034,1.00535
202.49927,0.98869
202.25820,0.96520
202.01713,0.94059
201.77606,0.91939
201.53499,0.90270
201.29391,0.88909
201.05284,0.87567
200.81177,0.86010
200.57070,0.84277
200.32963,0.82648
200.08856,0.81329
199.84749,0.80243
199.60642,0.79162
199.36535,0.77967
199.12428,0.76735
198.88321,0.75619
198.64214,0.74662
198.40107,0.73752
198.16000,0.72738
197.91893,0.71569
197.67786,0.70341
197.43679,0.69241
197.19572,0.68385
196.95464,0.67656
196.71357,0.66809
196.47250,0.65779
196.23143,0.64786
195.99036,0.64072
195.74929,0.63622
195.50822,0.63184
195.26715,0.62572
195.02608,0.61876
194.78501,0.61309
194.54394,0.60934
194.30287,0.60553
194.06180,0.59912
193.82073,0.59024
193.57966,0.58158
193.33859,0.57509
193.09752,0.57033
192.85645,0.56599
192.61537,0.56193
192.37430,0.55881
192.13323,0.55636
191.89216,0.55334
191.65109,0.54936
191.41002,0.54573
191.16895,0.54351
190.92788,0.54212
190.68681,0.54051
190.44574,0.53865
190.20467,0.53702
189.96360,0.53576
189.72253,0.53462
189.48146,0.53320
189.24039,0.53129
188.99932,0.52924
188.75825,0.52755
188.51718,0.52597
188.27610,0.52384
188.03503,0.52144
187.79396,0.52015
187.55289,0.52045
187.31182,0.52089
187.07075,0.52020
186.82968,0.51912
186.58861,0.51853
186.34754,0.51786
186.10647,0.51682
185.86540,0.51645
185.62433,0.51725
185.38326,0.51842
185.14219,0.51947
184.90112,0.52103
184.66005,0.52355
184.41898,0.52637
184.17791,0.52851
183.93683,0.53019
183.69576,0.53246
183.45469,0.53516
183.21362,0.53696
182.97255,0.53801
182.73148,0.54027
182.49041,0.54417
182.24934,0.54742
182.00827,0.54830
181.76720,0.54794
181.52613,0.54798
181.28506,0.54849
181.04399,0.54929
180.80292,0.55075
180.56185,0.55232
180.32078,0.55352
180.07971,0.55613
179.83864,0.56158
179.59756,0.56775
179.35649,0.57208
179.11542,0.57577
178.87435,0.58148
178.63328,0.58961
178.39221,0.59931
178.15114,0.61008
177.91007,0.62124
177.66900,0.63247
177.42793,0.64486
177.18686,0.65981
176.94579,0.67714
176.70472,0.69538
176.46365,0.71322
176.22258,0.73032
175.98151,0.74729
175.74044,0.76554
175.49937,0.78688
175.25829,0.81156
175.01722,0.83655
174.77615,0.85785
174.53508,0.87518
174.29401,0.89197
174.05294,0.91145
173.81187,0.93460
173.57080,0.95976
173.32973,0.98252
173.08866,0.99869
172.84759,1.00865
172.60652,1.01647
172.36545,1.02575
172.12438,1.03793
171.88331,1.05214
171.64224,1.06428
171.40117,1.06877
171.16010,1.06372
170.91902,1.05234
170.67795,1.03802
170.43688,1.02141
170.19581,1.00339
169.95474,0.98815
169.71367,0.98047
169.47260,0.98039
169.23153,0.98236
168.99046,0.98028
168.74939,0.97268
168.50832,0.96187
168.26725,0.95050
168.02618,0.94069
167.78511,0.93465
167.54404,0.93356
167.30297,0.93654
167.06190,0.94190
166.82083,0.94854
166.57975,0.95595
166.33868,0.96396
166.09761,0.97248
165.85654,0.98069
165.61547,0.98775
165.37440,0.99444
165.13333,1.00252
164.89226,1.01227
164.65119,1.02273
164.41012,1.03457
164.16905,1.05012
163.92798,1.06950
163.68691,1.08864
163.44584,1.10245
163.20477,1.10991
162.96370,1.11475
162.72263,1.12134
162.48156,1.13168
162.24048,1.14582
161.99941,1.16328
161.75834,1.18222
161.51727,1.19712
161.27620,1.20113
161.03513,1.19394
160.79406,1.18258
160.55299,1.17284
160.31192,1.16532
160.07085,1.15906
159.82978,1.15412
159.58871,1.14994
159.34764,1.14439
159.10657,1.13574
158.86550,1.12389
158.62443,1.11033
158.38336,1.09833
158.14229,1.09112
157.90121,1.08898
157.66014,1.08897
157.41907,1.08795
157.17800,1.08406
156.93693,1.07622
156.69586,1.06533
156.45479,1.05549
156.21372,1.05072
155.97265,1.05029
155.73158,1.04918
155.49051,1.04249
155.24944,1.02913
155.00837,1.01185
154.76730,0.99359
154.52623,0.97504
154.28516,0.95673
154.04409,0.94036
153.80302,0.92524
153.56194,0.90703
153.32087,0.88358
153.07980,0.85894
152.83873,0.83835
152.59766,0.82205
152.35659,0.80564
152.11552,0.78525
151.87445,0.76148
151.63338,0.73829
151.39231,0.71884
151.15124,0.70333
150.91017,0.68966
150.66910,0.67513
150.42803,0.65822
150.18696,0.63985
149.94589,0.62261
149.70482,0.60861
149.46375,0.59797
149.22267,0.58895
148.98160,0.57978
148.74053,0.57054
148.49946,0.56231
148.25839,0.55548
148.01732,0.54978
147.77625,0.54495
147.53518,0.54086
147.29411,0.53773
147.05304,0.53642
146.81197,0.53733
146.57090,0.53913
146.32983,0.54041
146.08876,0.54219
145.84769,0.54676
145.60662,0.55402
145.36555,0.56112
145.12448,0.56630
144.88340,0.57115
144.64233,0.57782
144.40126,0.58596
144.16019,0.59314
143.91912,0.59718
143.67805,0.59713
143.43698,0.59304
143.19591,0.58578
142.95484,0.57672
142.71377,0.56720
142.47270,0.55811
142.23163,0.54956
141.99056,0.54083
141.74949,0.53120
141.50842,0.52126
141.26735,0.51285
141.02628,0.50707
140.78521,0.50317
140.54413,0.50041
140.30306,0.49954
140.06199,0.50107
139.82092,0.50391
139.57985,0.50730
139.33878,0.51230
139.09771,0.51951
138.85664,0.52724
138.61557,0.53397
138.37450,0.54093
138.13343,0.55038
137.89236,0.56290
137.65129,0.57769
137.41022,0.59418
137.16915,0.61195
136.92808,0.63044
136.68701,0.65013
136.44594,0.67327
136.20486,0.70140
135.96379,0.73245
135.72272,0.76299
135.48165,0.79340
135.24058,0.82723
134.99951,0.86513
134.75844,0.90330
134.51737,0.93855
134.27630,0.97218
134.03523,1.00797
133.79416,1.04758
133.55309,1.08646
133.31202,1.11719
133.07095,1.14046
132.82988,1.16544
132.58881,1.19518
132.34774,1.22191
132.10667,1.23950
131.86559,1.24850
131.62452,1.24669
131.38345,1.22895
131.14238,1.19706
130.90131,1.15975
130.66024,1.12411
130.41917,1.09162
130.17810,1.05930
129.93703,1.02250
129.69596,0.97926
129.45489,0.93259
129.21382,0.88691
128.97275,0.84365
128.73168,0.80164
128.49061,0.76043
128.24954,0.72153
128.00847,0.68716
127.76740,0.65862
127.52632,0.63507
127.28525,0.61372
127.04418,0.59220
126.80311,0.57075
126.56204,0.55088
126.32097,0.53283
126.07990,0.51579
125.83883,0.49998
125.59776,0.48655
125.35669,0.47561
125.11562,0.46562
124.87455,0.45534
124.63348,0.44527
124.39241,0.43653
124.15134,0.42927
123.91027,0.42287
123.66920,0.41732
123.42812,0.41322
123.18705,0.41070
122.94598,0.40916
122.70491,0.40851
122.46384,0.40939
122.22277,0.41165
121.98170,0.41395
121.74063,0.41574
121.49956,0.41823
121.25849,0.42271
121.01742,0.42925
120.77635,0.43756
120.53528,0.44781
120.29421,0.46001
120.05314,0.47349
119.81207,0.48788
119.57100,0.50427
119.32993,0.52472
119.08885,0.55034
118.84778,0.58028
118.60671,0.61257
118.36564,0.64575
118.12457,0.67954
117.88350,0.71396
117.64243,0.74759
117.40136,0.77701
117.16029,0.79897
116.91922,0.81272
116.67815,0.81900
116.43708,0.81718
116.19601,0.80548
115.95494,0.78432
115.71387,0.75784
115.47280,0.73163
115.23173,0.70965
114.99066,0.69306
114.74958,0.68100
114.50851,0.67217
114.26744,0.66641
114.02637,0.66440
113.78530,0.66570
113.54423,0.66824
113.30316,0.66993
113.06209,0.66975
112.82102,0.66837
112.57995,0.66849
112.33888,0.67341
112.09781,0.68420
111.85674,0.69926
111.61567,0.71646
111.37460,0.73414
111.13353,0.74979
110.89246,0.76008
110.65139,0.76273
110.41031,0.75765
110.16924,0.74643
109.92817,0.73149
109.68710,0.71503
109.44603,0.69799
109.20496,0.67999
108.96389,0.66093
108.72282,0.64137
108.48175,0.62084
108.24068,0.59753
107.99961,0.57072
107.75854,0.54211
107.51747,0.51468
107.27640,0.49147
107.03533,0.47457
106.79426,0.46355
106.55319,0.45507
106.31212,0.44455
106.07104,0.42913
105.82997,0.40975
105.58890,0.39034
105.34783,0.37468
105.10676,0.36430
104.86569,0.35837
104.62462,0.35428
104.38355,0.34892
104.14248,0.34068
103.90141,0.33035
103.66034,0.32007
103.41927,0.31210
103.17820,0.30800
102.93713,0.30704
102.69606,0.30551
102.45499,0.30005
102.21392,0.29161
101.97285,0.28414
101.73177,0.27994
101.49070,0.27796
101.24963,0.27585
101.00856,0.27233
100.76749,0.26736
100.52642,0.26137
100.28535,0.25597
100.04428,0.25393
99.80321,0.25586
99.56214,0.25775
99.32107,0.25479
99.08000,0.24775
98.83893,0.24200
98.59786,0.24075
98.35679,0.24209
98.11572,0.24267
97.87465,0.24210
97.63358,0.24267
97.39250,0.24566
97.15143,0.24984
96.91036,0.25311
96.66929,0.25540
96.42822,0.25932
96.18715,0.26732
95.94608,0.27850
95.70501,0.28900
95.46394,0.29686
95.22287,0.30441
94.98180,0.31390
94.74073,0.32305
94.49966,0.32751
94.25859,0.32730
94.01752,0.32672
93.77645,0.32769
93.53538,0.32804
93.29431,0.32692
93.05323,0.32734
92.81216,0.33083
92.57109,0.33400
92.33002,0.33354
92.08895,0.33249
91.84788,0.33621
91.60681,0.34414
91.36574,0.35176
91.12467,0.36020
90.88360,0.37618
90.64253,0.40228
90.40146,0.43588
90.16039,0.47778
89.91932,0.53074
89.67825,0.58958
89.43718,0.64491
89.19611,0.69424
88.95504,0.73593
88.71396,0.76200
88.47289,0.76664
88.23182,0.74847
87.99075,0.70763
87.74968,0.65139
87.50861,0.59164
87.26754,0.53577
87.02647,0.48638
86.78540,0.44441
86.54433,0.40934
86.30326,0.37970
86.06219,0.35433
85.82112,0.33224
85.58005,0.31222
85.33898,0.29339
85.09791,0.27551
84.85684,0.25902
84.61577,0.24458
84.37469,0.23228
84.13362,0.22169
83.89255,0.21254
83.65148,0.20474
83.41041,0.19795
83.16934,0.19206
82.92827,0.18754
82.68720,0.18461
82.44613,0.18279
82.20506,0.18144
81.96399,0.18047
81.72292,0.17993
81.48185,0.17951
81.24078,0.17845
80.99971,0.17620
80.75864,0.17308
80.51757,0.17037
80.27650,0.16925
80.03542,0.16918
79.79435,0.16822
79.55328,0.16562
79.31221,0.16294
79.07114,0.16163
78.83007,0.16089
78.58900,0.15933
78.34793,0.15739
78.10686,0.15633
77.86579,0.15590
77.62472,0.15473
77.38365,0.15200
77.14258,0.14825
76.90151,0.14518
76.66044,0.14464
76.41937,0.14694
76.17830,0.15012
75.93723,0.15148
75.69615,0.14972
75.45508,0.14572
75.21401,0.14162
74.97294,0.13926
74.73187,0.13908
74.49080,0.14039
74.24973,0.14243
74.00866,0.14498
73.76759,0.14800
73.52652,0.15062
73.28545,0.15153
73.04438,0.15103
72.80331,0.15146
72.56224,0.15418
72.32117,0.15766
72.08010,0.15962
71.83903,0.15951
71.59796,0.15818
71.35688,0.15660
71.11581,0.15596
70.87474,0.15771
70.63367,0.16289
70.39260,0.17206
70.15153,0.18584
69.91046,0.20463
69.66939,0.22701
69.42832,0.24863
69.18725,0.26353
68.94618,0.26704
68.70511,0.25774
68.46404,0.23817
68.22297,0.21456
67.98190,0.19371
67.74083,0.17879
67.49976,0.16892
67.25869,0.16209
67.01761,0.15694
66.77654,0.15242
66.53547,0.14753
66.29440,0.14205
66.05333,0.13695
65.81226,0.13401
65.57119,0.13512
65.33012,0.14107
65.08905,0.15053
64.84798,0.16063
64.60691,0.16953
64.36584,0.17812
64.12477,0.18754
63.88370,0.19556
63.64263,0.19780
63.40156,0.19285
63.16049,0.18390
62.91942,0.17481
62.67834,0.16686
62.43727,0.15941
62.19620,0.15232
61.95513,0.14663
61.71406,0.14331
61.47299,0.14192
61.23192,0.14056
60.99085,0.13742
60.74978,0.13264
60.50871,0.12787
60.26764,0.12411
60.02657,0.12121
59.78550,0.11920
59.54443,0.11843
59.30336,0.11876
59.06229,0.12015
58.82122,0.12333
58.58015,0.12902
58.33907,0.13724
58.09800,0.14786
57.85693,0.16067
57.61586,0.17381
57.37479,0.18211
57.13372,0.17957
56.89265,0.16543
56.65158,0.14552
56.41051,0.12720
56.16944,0.11522
55.92837,0.11110
55.68730,0.11438
55.44623,0.12434
55.20516,0.14043
54.96409,0.15994
54.72302,0.17580
54.48195,0.17926
54.24088,0.16736
53.99980,0.14672
53.75873,0.12866
53.51766,0.12277
53.27659,0.13349
53.03552,0.15853
52.79445,0.18728
52.55338,0.20127
52.31231,0.18797
52.07124,0.15765
51.83017,0.13007
51.58910,0.11807
51.34803,0.12607
51.10696,0.14865
50.86589,0.16679
50.62482,0.16089
50.38375,0.13940
50.14268,0.12698
49.90161,0.13704
49.66053,0.16577
49.41946,0.18672
49.17839,0.16918
48.93732,0.13258
48.69625,0.11771
48.45518,0.13821
48.21411,0.17413
47.97304,0.18361
47.73197,0.16153
47.49090,0.14604
47.24983,0.15392
47.00876,0.16392
46.76769,0.15021
46.52662,0.13219
46.28555,0.13722
46.04448,0.15283
45.80341,0.14906
45.56234,0.13452
45.32126,0.13482
45.08019,0.14460
44.83912,0.14430
44.59805,0.14235
44.35698,0.15360
44.11591,0.16719
43.87484,0.17078
43.63377,0.17317
43.39270,0.17879
43.15163,0.18153
42.91056,0.18172
42.66949,0.18377
42.42842,0.18617
42.18735,0.18660
41.94628,0.18592
41.70521,0.18515
41.46414,0.18547
41.22307,0.18745
40.98199,0.19029
40.74092,0.19325
40.49985,0.19608
40.25878,0.19994
40.01771,0.20622
39.77664,0.21117
39.53557,0.20895
39.29450,0.20276
39.05343,0.20237
38.81236,0.21183
38.57129,0.22839
38.33022,0.24766
38.08915,0.26273
37.84808,0.26535
37.60701,0.25623
37.36594,0.24620
37.12487,0.24180
36.88380,0.23826
36.64272,0.22963
36.40165,0.21872
36.16058,0.21160
35.91951,0.20777
35.67844,0.20228
35.43737,0.19375
35.19630,0.18564
34.95523,0.18185
34.71416,0.18257
34.47309,0.18300
34.23202,0.17712
33.99095,0.16627
33.74988,0.15881
33.50881,0.16060
33.26774,0.16961
33.02667,0.17881
32.78560,0.18202
32.54453,0.17700
32.30345,0.16454
32.06238,0.14692
31.82131,0.12547
31.58024,0.10422
31.33917,0.08905
31.09810,0.08069
30.85703,0.07492
30.61596,0.06867
30.37489,0.05996
30.13382,0.04533
29.89275,0.02298
29.65168,-0.00099
29.41061,-0.01473
29.16954,-0.01545
28.92847,-0.01576
28.68740,-0.03004
28.44633,-0.05771
28.20526,-0.08402
27.96418,-0.09570
27.72311,-0.09151
27.48204,-0.08195
27.24097,-0.08088
26.99990,-0.09334
26.75883,-0.11113
26.51776,-0.12258
26.27669,-0.12502
26.03562,-0.12539
25.79455,-0.13304
25.55348,-0.15356
25.31241,-0.18055
25.07134,-0.19723
24.83027,-0.19974
24.58920,-0.20735
24.34813,-0.23723
24.10706,-0.28490
23.86599,-0.33040
23.62491,-0.35541
23.38384,-0.35996
23.14277,-0.35900
22.90170,-0.36198
22.66063,-0.36489
22.41956,-0.36252
22.17849,-0.36267
21.93742,-0.37598
21.69635,-0.39751
21.45528,-0.41113
21.21421,-0.41241
20.97314,-0.41573
20.73207,-0.43318
20.49100,-0.45452
20.24993,-0.45523
20.00886,-0.43489
19.76779,-0.42036
19.52672,-0.42594
19.28564,-0.44214
19.04457,-0.44893
18.80350,-0.43628
18.56243,-0.41517
18.32136,-0.40988
18.08029,-0.43251
17.83922,-0.46618
17.59815,-0.48178
17.35708,-0.47847
17.11601,-0.48364
16.87494,-0.51189
16.63387,-0.54988
16.39280,-0.56764
16.15173,-0.54371
15.91066,-0.50777
15.66959,-0.48530
15.42852,-0.47927
15.18745,-0.48156
14.94637,-0.48210
14.70530,-0.48027
14.46423,-0.48390
14.22316,-0.49083
13.98209,-0.49180
13.74102,-0.49580
13.49995,-0.51296
13.25888,-0.51598
13.01781,-0.49539
12.77674,-0.48603
12.53567,-0.49403
12.29460,-0.49986
12.05353,-0.50178
11.81246,-0.51213
11.57139,-0.53449
11.33032,-0.56222
11.08925,-0.57243
10.84818,-0.54477
10.60710,-0.49794
10.36603,-0.46268
10.12496,-0.46116
9.88389,-0.49227
9.64282,-0.52657
9.40175,-0.53521
9.16068,-0.52322
8.91961,-0.51236
8.67854,-0.50851
8.43747,-0.49813
8.19640,-0.47153
7.95533,-0.44022
7.71426,-0.41974
7.47319,-0.41528
7.23212,-0.42700
6.99105,-0.45024
6.74998,-0.47561
6.50891,-0.49868
6.26783,-0.51756
6.02676,-0.52753
5.78569,-0.52450
5.54462,-0.50740
5.30355,-0.47975
5.06248,-0.46997
4.82141,-0.49136
4.58034,-0.52330
4.33927,-0.53278
4.09820,-0.53196
3.85713,-0.53624
3.61606,-0.54567
3.37499,-0.55538
3.13392,-0.54577
2.89285,-0.51430
2.65178,-0.48848
2.41071,-0.48396
2.16964,-0.49020
1.92856,-0.49533
1.68749,-0.49863
1.44642,-0.50704
1.20535,-0.52529
0.96428,-0.53238
0.72321,-0.52650
0.48214,-0.51527
0.24107,-0.46457
-0.00000,-0.13703
