399.69498,1.52028
399.45391,1.53704
399.21284,1.54940
398.97177,1.55229
398.73070,1.55084
398.48963,1.55156
398.24856,1.55532
398.00749,1.56039
397.76642,1.56390
397.52535,1.56536
397.28428,1.56918
397.04321,1.57698
396.80214,1.58309
396.56107,1.57992
396.32000,1.56897
396.07892,1.56013
395.83785,1.55612
395.59678,1.55151
395.35571,1.54887
395.11464,1.55591
394.87357,1.56933
394.63250,1.57427
394.39143,1.56394
394.15036,1.55135
393.90929,1.55164
393.66822,1.56287
393.42715,1.57047
393.18608,1.56545
392.94501,1.55267
392.70394,1.54562
392.46287,1.54845
392.22180,1.54259
391.98073,1.51142
391.73965,1.47153
391.49858,1.45186
391.25751,1.46123
391.01644,1.48494
390.77537,1.50545
390.53430,1.51792
390.29323,1.52598
390.05216,1.53408
389.81109,1.54327
389.57002,1.54950
389.32895,1.54701
389.08788,1.53729
388.84681,1.52924
388.60574,1.52915
388.36467,1.53265
388.12360,1.52913
387.88253,1.51448
387.64146,1.49328
387.40038,1.47453
387.15931,1.46782
386.91824,1.47362
386.67717,1.47880
386.43610,1.47044
386.19503,1.44756
385.95396,1.41678
385.71289,1.38786
385.47182,1.37213
385.23075,1.37587
384.98968,1.39116
384.74861,1.40246
384.50754,1.40700
384.26647,1.41208
384.02540,1.41358
383.78433,1.39962
383.54326,1.37318
383.30219,1.35434
383.06111,1.36132
382.82004,1.39328
382.57897,1.42396
382.33790,1.42016
382.09683,1.37866
381.85576,1.32538
381.61469,1.28403
381.37362,1.26507
381.13255,1.26891
380.89148,1.28658
380.65041,1.30178
380.40934,1.30558
380.16827,1.30172
379.92720,1.29776
379.68613,1.29998
379.44506,1.30852
379.20399,1.31131
378.96292,1.29919
378.72184,1.28859
378.48077,1.29768
378.23970,1.32592
377.99863,1.35772
377.75756,1.37310
377.51649,1.36788
377.27542,1.35644
377.03435,1.35288
376.79328,1.35936
376.55221,1.36958
376.31114,1.37949
376.07007,1.39135
375.82900,1.40459
375.58793,1.41240
375.34686,1.41334
375.10579,1.41478
374.86472,1.42052
374.62365,1.42827
374.38257,1.43657
374.14150,1.44252
373.90043,1.43996
373.65936,1.42640
373.41829,1.41004
373.17722,1.40007
372.93615,1.39518
372.69508,1.39541
372.45401,1.40411
372.21294,1.41616
371.97187,1.42264
371.73080,1.42092
371.48973,1.41226
371.24866,1.39775
371.00759,1.37943
370.76652,1.36367
370.52545,1.35918
370.28437,1.36711
370.04330,1.37767
369.80223,1.38053
369.56116,1.37400
369.32009,1.36099
369.07902,1.34540
368.83795,1.33242
368.59688,1.32471
368.35581,1.32139
368.11474,1.32116
367.87367,1.32187
367.63260,1.31903
367.39153,1.31003
367.15046,1.29775
366.90939,1.28880
366.66832,1.28807
366.42725,1.29525
366.18618,1.30533
365.94510,1.31066
365.70403,1.30623
365.46296,1.29353
365.22189,1.27776
364.98082,1.26467
364.73975,1.25910
364.49868,1.26181
364.25761,1.26767
364.01654,1.27124
363.77547,1.27167
363.53440,1.26951
363.29333,1.26721
363.05226,1.26747
362.81119,1.26869
362.57012,1.26645
362.32905,1.26004
362.08798,1.25401
361.84691,1.25015
361.60583,1.24545
361.36476,1.24099
361.12369,1.24344
360.88262,1.25284
360.64155,1.25860
360.40048,1.25551
360.15941,1.25105
359.91834,1.25071
359.67727,1.25115
359.43620,1.24945
359.19513,1.24675
358.95406,1.24288
358.71299,1.23694
358.47192,1.23180
358.23085,1.23202
357.98978,1.23860
357.74871,1.24732
357.50764,1.25167
357.26656,1.24866
357.02549,1.24153
356.78442,1.23525
356.54335,1.23182
356.30228,1.23014
356.06121,1.22781
355.82014,1.22387
355.57907,1.22081
355.33800,1.22335
355.09693,1.23299
354.85586,1.24301
354.61479,1.24365
354.37372,1.23430
354.13265,1.22398
353.89158,1.21912
353.65051,1.21888
353.40944,1.22097
353.16837,1.22523
352.92729,1.23082
352.68622,1.23414
352.44515,1.23392
352.20408,1.23346
351.96301,1.23590
351.72194,1.24186
351.48087,1.25015
351.23980,1.25612
350.99873,1.25544
350.75766,1.25206
350.51659,1.25451
350.27552,1.26413
350.03445,1.27226
349.79338,1.27134
349.55231,1.26430
349.31124,1.25785
349.07017,1.25335
348.82910,1.24874
348.58802,1.24349
348.34695,1.23883
348.10588,1.23735
347.86481,1.24254
347.62374,1.25519
347.38267,1.27190
347.14160,1.28845
346.90053,1.30115
346.65946,1.30603
346.41839,1.30154
346.17732,1.29249
345.93625,1.28745
345.69518,1.29072
345.45411,1.29800
345.21304,1.30250
344.97197,1.30187
344.73090,1.29665
344.48983,1.28895
344.24875,1.28224
344.00768,1.27735
343.76661,1.27210
343.52554,1.26655
343.28447,1.26615
343.04340,1.27632
342.80233,1.29336
342.56126,1.30471
342.32019,1.30371
342.07912,1.29821
341.83805,1.29977
341.59698,1.31007
341.35591,1.32145
341.11484,1.33190
340.87377,1.34991
340.63270,1.37771
340.39163,1.39905
340.15056,1.39724
339.90948,1.38062
339.66841,1.37167
339.42734,1.38140
339.18627,1.40136
338.94520,1.40960
338.70413,1.39178
338.46306,1.36046
338.22199,1.34161
337.98092,1.34776
337.73985,1.36851
337.49878,1.38447
337.25771,1.39369
337.01664,1.41228
336.77557,1.44353
336.53450,1.46462
336.29343,1.45604
336.05236,1.42864
335.81129,1.40397
335.57021,1.39192
335.32914,1.39007
335.08807,1.39333
334.84700,1.40014
334.60593,1.41178
334.36486,1.42432
334.12379,1.42804
333.88272,1.42425
333.64165,1.42596
333.40058,1.43522
333.15951,1.43500
332.91844,1.41348
332.67737,1.38137
332.43630,1.35522
332.19523,1.34125
331.95416,1.33394
331.71309,1.32732
331.47202,1.32415
331.23094,1.32892
330.98987,1.33815
330.74880,1.34291
330.50773,1.33934
330.26666,1.33181
330.02559,1.32597
329.78452,1.32028
329.54345,1.30783
329.30238,1.28957
329.06131,1.27638
328.82024,1.27658
328.57917,1.29036
328.33810,1.31186
328.09703,1.33158
327.85596,1.33895
327.61489,1.32903
327.37382,1.30840
327.13275,1.28984
326.89167,1.28281
326.65060,1.28834
326.40953,1.29999
326.16846,1.30927
325.92739,1.31580
325.68632,1.32565
325.44525,1.33699
325.20418,1.34074
324.96311,1.33530
324.72204,1.32800
324.48097,1.32440
324.23990,1.32402
323.99883,1.32576
323.75776,1.32993
323.51669,1.33113
323.27562,1.32237
323.03455,1.30731
322.79348,1.29543
322.55240,1.28922
322.31133,1.28618
322.07026,1.28690
321.82919,1.29244
321.58812,1.30127
321.34705,1.31360
321.10598,1.33038
320.86491,1.34734
320.62384,1.36065
320.38277,1.37522
320.14170,1.39625
319.90063,1.41617
319.65956,1.41541
319.41849,1.38703
319.17742,1.35215
318.93635,1.33211
318.69528,1.32746
318.45421,1.33171
318.21313,1.34501
317.97206,1.36300
317.73099,1.36581
317.48992,1.34080
317.24885,1.30698
317.00778,1.28972
316.76671,1.29484
316.52564,1.31280
316.28457,1.33434
316.04350,1.35193
315.80243,1.35618
315.56136,1.34859
315.32029,1.33947
315.07922,1.32874
314.83815,1.31964
314.59708,1.32697
314.35601,1.35744
314.11494,1.39606
313.87386,1.41788
313.63279,1.41099
313.39172,1.38421
313.15065,1.35664
312.90958,1.34186
312.66851,1.34171
312.42744,1.35092
312.18637,1.36150
311.94530,1.36519
311.70423,1.35862
311.46316,1.34900
311.22209,1.34666
310.98102,1.35455
310.73995,1.37169
310.49888,1.39615
310.25781,1.41855
310.01674,1.43268
309.77567,1.44613
309.53459,1.45921
309.29352,1.45500
309.05245,1.42938
308.81138,1.40392
308.57031,1.39683
308.32924,1.40692
308.08817,1.41739
307.84710,1.41596
307.60603,1.40648
307.36496,1.39778
307.12389,1.39538
306.88282,1.40149
306.64175,1.41650
306.40068,1.43569
306.15961,1.44724
305.91854,1.44300
305.67747,1.42793
305.43640,1.41451
305.19532,1.40737
304.95425,1.40064
304.71318,1.39065
304.47211,1.38266
304.23104,1.38536
303.98997,1.40099
303.74890,1.41548
303.50783,1.40694
303.26676,1.37142
303.02569,1.33110
302.78462,1.31231
302.54355,1.31933
302.30248,1.33412
302.06141,1.33763
301.82034,1.32795
301.57927,1.31455
301.33820,1.30386
301.09713,1.29743
300.85605,1.29419
300.61498,1.29249
300.37391,1.29204
300.13284,1.29219
299.89177,1.29075
299.65070,1.28617
299.40963,1.28026
299.16856,1.27907
298.92749,1.28600
298.68642,1.29444
298.44535,1.29360
298.20428,1.28134
297.96321,1.26608
297.72214,1.25492
297.48107,1.24743
297.24000,1.24146
296.99893,1.23863
296.75786,1.24064
296.51678,1.24286
296.27571,1.23878
296.03464,1.22882
295.79357,1.21807
295.55250,1.20802
295.31143,1.19770
295.07036,1.18923
294.82929,1.18435
294.58822,1.18060
294.34715,1.17612
294.10608,1.17396
293.86501,1.17861
293.62394,1.18955
293.38287,1.19984
293.14180,1.20262
292.90073,1.19851
292.65966,1.19294
292.41859,1.18856
292.17751,1.18535
291.93644,1.18485
291.69537,1.18820
291.45430,1.19222
291.21323,1.19183
290.97216,1.18688
290.73109,1.18239
290.49002,1.18082
290.24895,1.17772
290.00788,1.16904
289.76681,1.15909
289.52574,1.15500
289.28467,1.15832
289.04360,1.16429
288.80253,1.16633
288.56146,1.16168
288.32039,1.15380
288.07932,1.14842
287.83824,1.14725
287.59717,1.14637
287.35610,1.14209
287.11503,1.13687
286.87396,1.13442
286.63289,1.13225
286.39182,1.12567
286.15075,1.11656
285.90968,1.11120
285.66861,1.11059
285.42754,1.11025
285.18647,1.10805
284.94540,1.10690
284.70433,1.10963
284.46326,1.11451
284.22219,1.11751
283.98112,1.11762
283.74005,1.11760
283.49897,1.11914
283.25790,1.12056
283.01683,1.11995
282.77576,1.11808
282.53469,1.11684
282.29362,1.11675
282.05255,1.11739
281.81148,1.11838
281.57041,1.11857
281.32934,1.11631
281.08827,1.11240
280.84720,1.11024
280.60613,1.11163
280.36506,1.11485
280.12399,1.11718
279.88292,1.11700
279.64185,1.11441
279.40078,1.11235
279.15970,1.11440
278.91863,1.11973
278.67756,1.12388
278.43649,1.12483
278.19542,1.12436
277.95435,1.12295
277.71328,1.11836
277.47221,1.11062
277.23114,1.10504
276.99007,1.10787
276.74900,1.11887
276.50793,1.13034
276.26686,1.13507
276.02579,1.13330
275.78472,1.12980
275.54365,1.12699
275.30258,1.12437
275.06151,1.12251
274.82043,1.12330
274.57936,1.12731
274.33829,1.13425
274.09722,1.14437
273.85615,1.15553
273.61508,1.16169
273.37401,1.15881
273.13294,1.15066
272.89187,1.14500
272.65080,1.14601
272.40973,1.15191
272.16866,1.15785
271.92759,1.15993
271.68652,1.15799
271.44545,1.15569
271.20438,1.15705
270.96331,1.16189
270.72224,1.16667
270.48116,1.16965
270.24009,1.17207
269.99902,1.17673
269.75795,1.18699
269.51688,1.20318
269.27581,1.21858
269.03474,1.22455
268.79367,1.22112
268.55260,1.21679
268.31153,1.21822
268.07046,1.22451
267.82939,1.22993
267.58832,1.23133
267.34725,1.23308
267.10618,1.24152
266.86511,1.25567
266.62404,1.26721
266.38297,1.26992
266.14189,1.26613
265.90082,1.26285
265.65975,1.26484
265.41868,1.27327
265.17761,1.28673
264.93654,1.30125
264.69547,1.31127
264.45440,1.31514
264.21333,1.31774
263.97226,1.32527
263.73119,1.33972
263.49012,1.35912
263.24905,1.38087
263.00798,1.40223
262.76691,1.42107
262.52584,1.43909
262.28477,1.45964
262.04370,1.48166
261.80262,1.50100
261.56155,1.51676
261.32048,1.53170
261.07941,1.54708
260.83834,1.56108
260.59727,1.57474
260.35620,1.59687
260.11513,1.63690
259.87406,1.69316
259.63299,1.75269
259.39192,1.80433
259.15085,1.84516
258.90978,1.87679
258.66871,1.90089
258.42764,1.91726
258.18657,1.91936
257.94550,1.91128
257.70443,1.89264
257.46335,1.85773
257.22228,1.81449
256.98121,1.77819
256.74014,1.75364
256.49907,1.73647
256.25800,1.72576
256.01693,1.72040
255.77586,1.71402
255.53479,1.70285
255.29372,1.69091
255.05265,1.68014
254.81158,1.67041
254.57051,1.66436
254.32944,1.66125
254.08837,1.65563
253.84730,1.64274
253.60623,1.62596
253.36516,1.61247
253.12408,1.60379
252.88301,1.59985
252.64194,1.59997
252.40087,1.59741
252.15980,1.58785
251.91873,1.58105
251.67766,1.58366
251.43659,1.58794
251.19552,1.58688
250.95445,1.57942
250.71338,1.56975
250.47231,1.56666
250.23124,1.57248
249.99017,1.58008
249.74910,1.58578
249.50803,1.59291
249.26696,1.60019
249.02589,1.60130
248.78481,1.59600
248.54374,1.58638
248.30267,1.56934
248.06160,1.54805
247.82053,1.53502
247.57946,1.53645
247.33839,1.54544
247.09732,1.55157
246.85625,1.54932
246.61518,1.53871
246.37411,1.52688
246.13304,1.52589
245.89197,1.54130
245.65090,1.56714
245.40983,1.59113
245.16876,1.60488
244.92769,1.61300
244.68661,1.62868
244.44554,1.66304
244.20447,1.72004
243.96340,1.80217
243.72233,1.90425
243.48126,1.99541
243.24019,2.05007
242.99912,2.06940
242.75805,2.03383
242.51698,1.90597
242.27591,1.77003
242.03484,1.66589
241.79377,1.57558
241.55270,1.49060
241.31163,1.41789
241.07056,1.36517
240.82949,1.32915
240.58842,1.29771
240.34734,1.26005
240.10627,1.21357
239.86520,1.16441
239.62413,1.12263
239.38306,1.09324
239.14199,1.07243
238.90092,1.05392
238.65985,1.03588
238.41878,1.01919
238.17771,1.00295
237.93664,0.98507
237.69557,0.96601
237.45450,0.94850
237.21343,0.93332
236.97236,0.91814
236.73129,0.90209
236.49022,0.88837
236.24915,0.87981
236.00807,0.87460
235.76700,0.86924
235.52593,0.86320
235.28486,0.85791
235.04379,0.85301
234.80272,0.84680
234.56165,0.83971
234.32058,0.83378
234.07951,0.83015
233.83844,0.82937
233.59737,0.83170
233.35630,0.83439
233.11523,0.83249
232.87416,0.82525
232.63309,0.81696
232.39202,0.81053
232.15095,0.80588
231.90988,0.80328
231.66880,0.80250
231.42773,0.80060
231.18666,0.79575
230.94559,0.79128
230.70452,0.79176
230.46345,0.79647
230.22238,0.80013
229.98131,0.79970
229.74024,0.79731
229.49917,0.79613
229.25810,0.79666
229.01703,0.79810
228.77596,0.79956
228.53489,0.79910
228.29382,0.79494
228.05275,0.78857
227.81168,0.78355
227.57061,0.78180
227.32953,0.78283
227.08846,0.78569
226.84739,0.78951
226.60632,0.79256
226.36525,0.79352
226.12418,0.79388
225.88311,0.79583
225.64204,0.79768
225.40097,0.79621
225.15990,0.79271
224.91883,0.79130
224.67776,0.79322
224.43669,0.79723
224.19562,0.80259
223.95455,0.80842
223.71348,0.81285
223.47241,0.81568
223.23134,0.81872
222.99026,0.82268
222.74919,0.82642
222.50812,0.82923
222.26705,0.83167
222.02598,0.83515
221.78491,0.84137
221.54384,0.85166
221.30277,0.86597
221.06170,0.88190
220.82063,0.89548
220.57956,0.90399
220.33849,0.90768
220.09742,0.90856
219.85635,0.90923
219.61528,0.91246
219.37421,0.91982
219.13314,0.93120
218.89207,0.94552
218.65099,0.96072
218.40992,0.97420
218.16885,0.98520
217.92778,0.99620
217.68671,1.00961
217.44564,1.02456
217.20457,1.03889
216.96350,1.05294
216.72243,1.06925
216.48136,1.08868
216.24029,1.10903
215.99922,1.12762
215.75815,1.14324
215.51708,1.15620
215.27601,1.16907
215.03494,1.18482
214.79387,1.20258
214.55280,1.21892
214.31172,1.23251
214.07065,1.24454
213.82958,1.25603
213.58851,1.26733
213.34744,1.27876
213.10637,1.29027
212.86530,1.30092
212.62423,1.31020
212.38316,1.31857
212.14209,1.32612
211.90102,1.33291
211.65995,1.33995
211.41888,1.34681
211.17781,1.34985
210.93674,1.34692
210.69567,1.34138
210.45460,1.33967
210.21353,1.34473
209.97245,1.35019
209.73138,1.34514
209.49031,1.32916
209.24924,1.31323
209.00817,1.30742
208.76710,1.31373
208.52603,1.32534
208.28496,1.33195
208.04389,1.32958
207.80282,1.32230
207.56175,1.31186
207.32068,1.29326
207.07961,1.26591
206.83854,1.24175
206.59747,1.23233
206.35640,1.23288
206.11533,1.22776
205.87426,1.21087
205.63318,1.19098
205.39211,1.17683
205.15104,1.16884
204.90997,1.16178
204.66890,1.14864
204.42783,1.12701
204.18676,1.10213
203.94569,1.08071
203.70462,1.06546
203.46355,1.05627
203.22248,1.05151
202.98141,1.04564
202.74034,1.03038
202.49927,1.00383
202.25820,0.97469
202.01713,0.95233
201.77606,0.93760
201.53499,0.92493
201.29391,0.90972
201.05284,0.89315
200.81177,0.87948
200.57070,0.87039
200.32963,0.86346
200.08856,0.85502
199.84749,0.84279
199.60642,0.82657
199.36535,0.80925
199.12428,0.79589
198.88321,0.78893
198.64214,0.78500
198.40107,0.77835
198.16000,0.76643
197.91893,0.75133
197.67786,0.73717
197.43679,0.72687
197.19572,0.72043
196.95464,0.71527
196.71357,0.70788
196.47250,0.69652
196.23143,0.68307
195.99036,0.67193
195.74929,0.66581
195.50822,0.66318
195.26715,0.65991
195.02608,0.65356
194.78501,0.64557
194.54394,0.63930
194.30287,0.63616
194.06180,0.63393
193.82073,0.62921
193.57966,0.62164
193.33859,0.61421
193.09752,0.60944
192.85645,0.60640
192.61537,0.60145
192.37430,0.59277
192.13323,0.58407
191.89216,0.58086
191.65109,0.58341
191.41002,0.58538
191.16895,0.58176
190.92788,0.57566
190.68681,0.57307
190.44574,0.57388
190.20467,0.57260
189.96360,0.56700
189.72253,0.56068
189.48146,0.55677
189.24039,0.55486
188.99932,0.55426
188.75825,0.55615
188.51718,0.56054
188.27610,0.56406
188.03503,0.56374
187.79396,0.56093
187.55289,0.55857
187.31182,0.55699
187.07075,0.55492
186.82968,0.55252
186.58861,0.55096
186.34754,0.55026
186.10647,0.54980
185.86540,0.54990
185.62433,0.55109
185.38326,0.55260
185.14219,0.55332
184.90112,0.55376
184.66005,0.55510
184.41898,0.55710
184.17791,0.55871
183.93683,0.56001
183.69576,0.56157
183.45469,0.56330
183.21362,0.56540
182.97255,0.56886
182.73148,0.57328
182.49041,0.57659
182.24934,0.57820
182.00827,0.57994
181.76720,0.58264
181.52613,0.58472
181.28506,0.58518
181.04399,0.58477
180.80292,0.58373
180.56185,0.58198
180.32078,0.58079
180.07971,0.58086
179.83864,0.58140
179.59756,0.58363
179.35649,0.59080
179.11542,0.60289
178.87435,0.61544
178.63328,0.62476
178.39221,0.63099
178.15114,0.63662
177.91007,0.64469
177.66900,0.65662
177.42793,0.67066
177.18686,0.68476
176.94579,0.69993
176.70472,0.71785
176.46365,0.73716
176.22258,0.75471
175.98151,0.76939
175.74044,0.78324
175.49937,0.79921
175.25829,0.81865
175.01722,0.84110
174.77615,0.86547
174.53508,0.89081
174.29401,0.91604
174.05294,0.93993
173.81187,0.96161
173.57080,0.98085
173.32973,0.99791
173.08866,1.01284
172.84759,1.02565
172.60652,1.03756
172.36545,1.04920
172.12438,1.05739
171.88331,1.05856
171.64224,1.05352
171.40117,1.04442
171.16010,1.03213
170.91902,1.01949
170.67795,1.01131
170.43688,1.00859
170.19581,1.00709
169.95474,1.00363
169.71367,0.99954
169.47260,0.99677
169.23153,0.99482
168.99046,0.99175
168.74939,0.98635
168.50832,0.97921
168.26725,0.97263
168.02618,0.96811
167.78511,0.96442
167.54404,0.96127
167.30297,0.96227
167.06190,0.96975
166.82083,0.97842
166.57975,0.97888
166.33868,0.96831
166.09761,0.95435
165.85654,0.94747
165.61547,0.95200
165.37440,0.96470
165.13333,0.97990
164.89226,0.99470
164.65119,1.00994
164.41012,1.02740
164.16905,1.04608
163.92798,1.06184
163.68691,1.07104
163.44584,1.07467
163.20477,1.07738
162.96370,1.08436
162.72263,1.09917
162.48156,1.12171
162.24048,1.14723
161.99941,1.16762
161.75834,1.17576
161.51727,1.17266
161.27620,1.16751
161.03513,1.16666
160.79406,1.16754
160.55299,1.16749
160.31192,1.17087
160.07085,1.17934
159.82978,1.18261
159.58871,1.16992
159.34764,1.14553
159.10657,1.12171
158.86550,1.10456
158.62443,1.09446
158.38336,1.09254
158.14229,1.09874
157.90121,1.10458
157.66014,1.09770
157.41907,1.07773
157.17800,1.05804
156.93693,1.04978
156.69586,1.05373
156.45479,1.06469
156.21372,1.07466
155.97265,1.07332
155.73158,1.05601
155.49051,1.03060
155.24944,1.00866
155.00837,0.99474
154.76730,0.98593
154.52623,0.97693
154.28516,0.96395
154.04409,0.94628
153.80302,0.92654
153.56194,0.90756
153.32087,0.88959
153.07980,0.87176
152.83873,0.85399
152.59766,0.83568
152.35659,0.81481
152.11552,0.79065
151.87445,0.76579
151.63338,0.74367
151.39231,0.72551
151.15124,0.70990
150.91017,0.69423
150.66910,0.67697
150.42803,0.65918
150.18696,0.64321
149.94589,0.63000
149.70482,0.61895
149.46375,0.60912
149.22267,0.59978
148.98160,0.59099
148.74053,0.58406
148.49946,0.58001
148.25839,0.57741
148.01732,0.57326
147.77625,0.56620
147.53518,0.55820
147.29411,0.55241
147.05304,0.55044
146.81197,0.55198
146.57090,0.55551
146.32983,0.55862
146.08876,0.56017
145.84769,0.56202
145.60662,0.56677
145.36555,0.57415
145.12448,0.58116
144.88340,0.58553
144.64233,0.58842
144.40126,0.59275
144.16019,0.59897
143.91912,0.60351
143.67805,0.60291
143.43698,0.59875
143.19591,0.59506
142.95484,0.59197
142.71377,0.58615
142.47270,0.57710
142.23163,0.56826
141.99056,0.56143
141.74949,0.55427
141.50842,0.54445
141.26735,0.53350
141.02628,0.52478
140.78521,0.51918
140.54413,0.51536
140.30306,0.51306
140.06199,0.51370
139.82092,0.51771
139.57985,0.52337
139.33878,0.52884
139.09771,0.53389
138.85664,0.53931
138.61557,0.54557
138.37450,0.55242
138.13343,0.55996
137.89236,0.56963
137.65129,0.58328
137.41022,0.60120
137.16915,0.62144
136.92808,0.64176
136.68701,0.66205
136.44594,0.68428
136.20486,0.70974
135.96379,0.73770
135.72272,0.76680
135.48165,0.79623
135.24058,0.82625
134.99951,0.85953
134.75844,0.89912
134.51737,0.94267
134.27630,0.98311
134.03523,1.01748
133.79416,1.04880
133.55309,1.07825
133.31202,1.10438
133.07095,1.12839
132.82988,1.15145
132.58881,1.17145
132.34774,1.18799
132.10667,1.20308
131.86559,1.21442
131.62452,1.21547
131.38345,1.20318
131.14238,1.18119
130.90131,1.15483
130.66024,1.12626
130.41917,1.09482
130.17810,1.05975
129.93703,1.02111
129.69596,0.97985
129.45489,0.93759
129.21382,0.89526
128.97275,0.85199
128.73168,0.80727
128.49061,0.76373
128.24954,0.72548
128.00847,0.69422
127.76740,0.66800
127.52632,0.64346
127.28525,0.61899
127.04418,0.59525
126.80311,0.57345
126.56204,0.55434
126.32097,0.53855
126.07990,0.52566
125.83883,0.51311
125.59776,0.49854
125.35669,0.48318
125.11562,0.47048
124.87455,0.46176
124.63348,0.45547
124.39241,0.44996
124.15134,0.44496
123.91027,0.44045
123.66920,0.43612
123.42812,0.43237
123.18705,0.42982
122.94598,0.42777
122.70491,0.42513
122.46384,0.42267
122.22277,0.42218
121.98170,0.42378
121.74063,0.42632
121.49956,0.42925
121.25849,0.43249
121.01742,0.43585
120.77635,0.44026
120.53528,0.44766
120.29421,0.45900
120.05314,0.47376
119.81207,0.49174
119.57100,0.51345
119.32993,0.53877
119.08885,0.56664
118.84778,0.59635
118.60671,0.62859
118.36564,0.66498
118.12457,0.70503
117.88350,0.74338
117.64243,0.77200
117.40136,0.78689
117.16029,0.79079
116.91922,0.78973
116.67815,0.78828
116.43708,0.78650
116.19601,0.78131
115.95494,0.77191
115.71387,0.76111
115.47280,0.75072
115.23173,0.73968
114.99066,0.72733
114.74958,0.71498
114.50851,0.70372
114.26744,0.69359
114.02637,0.68474
113.78530,0.67720
113.54423,0.66932
113.30316,0.65952
113.06209,0.65090
112.82102,0.65002
112.57995,0.65935
112.33888,0.67414
112.09781,0.68981
111.85674,0.70817
111.61567,0.73113
111.37460,0.75174
111.13353,0.75985
110.89246,0.75530
110.65139,0.74550
110.41031,0.73437
110.16924,0.72116
109.92817,0.70577
109.68710,0.69031
109.44603,0.67763
109.20496,0.66967
108.96389,0.66447
108.72282,0.65431
108.48175,0.63149
108.24068,0.59745
107.99961,0.56189
107.75854,0.53317
107.51747,0.51307
107.27640,0.49906
107.03533,0.48766
106.79426,0.47570
106.55319,0.46126
106.31212,0.44466
106.07104,0.42775
105.82997,0.41209
105.58890,0.39880
105.34783,0.38950
105.10676,0.38465
104.86569,0.38097
104.62462,0.37315
104.38355,0.36006
104.14248,0.34632
103.90141,0.33627
103.66034,0.33039
103.41927,0.32754
103.17820,0.32649
102.93713,0.32466
102.69606,0.31881
102.45499,0.30880
102.21392,0.29844
101.97285,0.29177
101.73177,0.29031
101.49070,0.29235
101.24963,0.29384
101.00856,0.29119
100.76749,0.28419
100.52642,0.27621
100.28535,0.27121
100.04428,0.27013
99.80321,0.26987
99.56214,0.26701
99.32107,0.26207
99.08000,0.25865
98.83893,0.25894
98.59786,0.26192
98.35679,0.26432
98.11572,0.26236
97.87465,0.25544
97.63358,0.24844
97.39250,0.24801
97.15143,0.25657
96.91036,0.26826
96.66929,0.27315
96.42822,0.27072
96.18715,0.27182
95.94608,0.28337
95.70501,0.29942
95.46394,0.30867
95.22287,0.31068
94.98180,0.31541
94.74073,0.32627
94.49966,0.33558
94.25859,0.33662
94.01752,0.33434
93.77645,0.33602
93.53538,0.33969
93.29431,0.33936
93.05323,0.33649
92.81216,0.33724
92.57109,0.34163
92.33002,0.34484
92.08895,0.34701
91.84788,0.35200
91.60681,0.35879
91.36574,0.36465
91.12467,0.37339
90.88360,0.39015
90.64253,0.41385
90.40146,0.44405
90.16039,0.48536
89.91932,0.53677
89.67825,0.59025
89.43718,0.64423
89.19611,0.69904
88.95504,0.74129
88.71396,0.75984
88.47289,0.76028
88.23182,0.74404
87.99075,0.70657
87.74968,0.65460
87.50861,0.60065
87.26754,0.54918
87.02647,0.49959
86.78540,0.45418
86.54433,0.41705
86.30326,0.38904
86.06219,0.36632
85.82112,0.34404
85.58005,0.32072
85.33898,0.29785
85.09791,0.27685
84.85684,0.25820
84.61577,0.24236
84.37469,0.22995
84.13362,0.22119
83.89255,0.21555
83.65148,0.21197
83.41041,0.20922
83.16934,0.20577
82.92827,0.20041
82.68720,0.19396
82.44613,0.18911
82.20506,0.18749
81.96399,0.18802
81.72292,0.18870
81.48185,0.18844
81.24078,0.18717
80.99971,0.18544
80.75864,0.18405
80.51757,0.18333
80.27650,0.18279
80.03542,0.18221
79.79435,0.18221
79.55328,0.18248
79.31221,0.18119
79.07114,0.17777
78.83007,0.17468
78.58900,0.17440
78.34793,0.17596
78.10686,0.17618
77.86579,0.17305
77.62472,0.16724
77.38365,0.16114
77.14258,0.15744
76.90151,0.15806
76.66044,0.16291
76.41937,0.16912
76.17830,0.17270
75.93723,0.17159
75.69615,0.16649
75.45508,0.15946
75.21401,0.15295
74.97294,0.14902
74.73187,0.14808
74.49080,0.14906
74.24973,0.15093
74.00866,0.15337
73.76759,0.15607
73.52652,0.15803
73.28545,0.15819
73.04438,0.15671
72.80331,0.15520
72.56224,0.15515
72.32117,0.15656
72.08010,0.15875
71.83903,0.16137
71.59796,0.16371
71.35688,0.16414
71.11581,0.16203
70.87474,0.16001
70.63367,0.16265
70.39260,0.17318
70.15153,0.19176
69.91046,0.21644
69.66939,0.24458
69.42832,0.27216
69.18725,0.29255
68.94618,0.29847
68.70511,0.28688
68.46404,0.26188
68.22297,0.23179
67.98190,0.20374
67.74083,0.18132
67.49976,0.16599
67.25869,0.15815
67.01761,0.15603
66.77654,0.15545
66.53547,0.15272
66.29440,0.14778
66.05333,0.14333
65.81226,0.14144
65.57119,0.14222
65.33012,0.14529
65.08905,0.15101
64.84798,0.15974
64.60691,0.17152
64.36584,0.18629
64.12477,0.20237
63.88370,0.21496
63.64263,0.21901
63.40156,0.21404
63.16049,0.20429
62.91942,0.19459
62.67834,0.18684
62.43727,0.17997
62.19620,0.17232
61.95513,0.16365
61.71406,0.15466
61.47299,0.14546
61.23192,0.13551
60.99085,0.12508
60.74978,0.11598
60.50871,0.11021
60.26764,0.10818
60.02657,0.10922
59.78550,0.11253
59.54443,0.11684
59.30336,0.12123
59.06229,0.12693
58.82122,0.13581
58.58015,0.14780
58.33907,0.16214
58.09800,0.17880
57.85693,0.19567
57.61586,0.20604
57.37479,0.20261
57.13372,0.18410
56.89265,0.15663
56.65158,0.12981
56.41051,0.11169
56.16944,0.10564
55.92837,0.11112
55.68730,0.12671
55.44623,0.15218
55.20516,0.18616
54.96409,0.21827
54.72302,0.22674
54.48195,0.20149
54.24088,0.16012
53.99980,0.12434
53.75873,0.10554
53.51766,0.10720
53.27659,0.12900
53.03552,0.16699
52.79445,0.20488
52.55338,0.21107
52.31231,0.17948
52.07124,0.14067
51.83017,0.11799
51.58910,0.12000
51.34803,0.14662
51.10696,0.18385
50.86589,0.19682
50.62482,0.16781
50.38375,0.12766
50.14268,0.10592
49.90161,0.11566
49.66053,0.16028
49.41946,0.21543
49.17839,0.20957
48.93732,0.14310
48.69625,0.09936
48.45518,0.11372
48.21411,0.17115
47.97304,0.19586
47.73197,0.14572
47.49090,0.10523
47.24983,0.12080
47.00876,0.16579
46.76769,0.16662
46.52662,0.12768
46.28555,0.11338
46.04448,0.12508
45.80341,0.12674
45.56234,0.11928
45.32126,0.12797
45.08019,0.14486
44.83912,0.15055
44.59805,0.15590
44.35698,0.16619
44.11591,0.16304
43.87484,0.14854
43.63377,0.14175
43.39270,0.14242
43.15163,0.14432
42.91056,0.15476
42.66949,0.17417
42.42842,0.18864
42.18735,0.19158
41.94628,0.18860
41.70521,0.18386
41.46414,0.17736
41.22307,0.17037
40.98199,0.16739
40.74092,0.17227
40.49985,0.18317
40.25878,0.19390
40.01771,0.19965
39.77664,0.19797
39.53557,0.18977
39.29450,0.18261
39.05343,0.18260
38.81236,0.18794
38.57129,0.19502
38.33022,0.20222
38.08915,0.21115
37.84808,0.22537
37.60701,0.24189
37.36594,0.24910
37.12487,0.24097
36.88380,0.22502
36.64272,0.21171
36.40165,0.20437
36.16058,0.19937
35.91951,0.19323
35.67844,0.18883
35.43737,0.19153
35.19630,0.20183
34.95523,0.21672
34.71416,0.23185
34.47309,0.23998
34.23202,0.23747
33.99095,0.23063
33.74988,0.22530
33.50881,0.22082
33.26774,0.21550
33.02667,0.20946
32.78560,0.21166
32.54453,0.23014
32.30345,0.25082
32.06238,0.25326
31.82131,0.23373
31.58024,0.20428
31.33917,0.17650
31.09810,0.15362
30.85703,0.13505
30.61596,0.12010
30.37489,0.10510
30.13382,0.08634
29.89275,0.07170
29.65168,0.07352
29.41061,0.08914
29.16954,0.10354
28.92847,0.10303
28.68740,0.08515
28.44633,0.05934
28.20526,0.03492
27.96418,0.01183
27.72311,-0.00927
27.48204,-0.01194
27.24097,0.01157
26.99990,0.03849
26.75883,0.04266
26.51776,0.02239
26.27669,-0.00692
26.03562,-0.03104
25.79455,-0.04171
25.55348,-0.03934
25.31241,-0.04098
25.07134,-0.06258
24.83027,-0.09527
24.58920,-0.11342
24.34813,-0.10378
24.10706,-0.07767
23.86599,-0.05599
23.62491,-0.05605
23.38384,-0.08340
23.14277,-0.12086
22.90170,-0.13679
22.66063,-0.12289
22.41956,-0.09991
22.17849,-0.08858
21.93742,-0.09780
21.69635,-0.12867
21.45528,-0.17350
21.21421,-0.21435
20.97314,-0.23480
20.73207,-0.23435
20.49100,-0.22709
20.24993,-0.22543
20.00886,-0.22704
19.76779,-0.21844
19.52672,-0.19528
19.28564,-0.17535
19.04457,-0.18208
18.80350,-0.21822
18.56243,-0.25997
18.32136,-0.28034
18.08029,-0.27659
17.83922,-0.26700
17.59815,-0.26509
17.35708,-0.26796
17.11601,-0.26229
16.87494,-0.24402
16.63387,-0.22939
16.39280,-0.23373
16.15173,-0.24927
15.91066,-0.25725
15.66959,-0.25938
15.42852,-0.27383
15.18745,-0.30794
14.94637,-0.34587
14.70530,-0.36267
14.46423,-0.35674
14.22316,-0.34240
13.98209,-0.32773
13.74102,-0.34373
13.49995,-0.38848
13.25888,-0.41079
13.01781,-0.39860
12.77674,-0.36205
12.53567,-0.33122
12.29460,-0.32250
12.05353,-0.33785
11.81246,-0.36601
11.57139,-0.38862
11.33032,-0.40638
11.08925,-0.42146
10.84818,-0.44710
10.60710,-0.47862
10.36603,-0.47122
10.12496,-0.42412
9.88389,-0.38498
9.64282,-0.36771
9.40175,-0.37274
9.16068,-0.38710
8.91961,-0.39299
8.67854,-0.39158
8.43747,-0.39351
8.19640,-0.40973
7.95533,-0.44830
7.71426,-0.46764
7.47319,-0.44868
7.23212,-0.43840
6.99105,-0.44034
6.74998,-0.42282
6.50891,-0.41046
6.26783,-0.38275
6.02676,-0.34609
5.78569,-0.33561
5.54462,-0.36160
5.30355,-0.37341
5.06248,-0.36127
4.82141,-0.37727
4.58034,-0.41036
4.33927,-0.44463
4.09820,-0.46987
3.85713,-0.47820
3.61606,-0.47140
3.37499,-0.45886
3.13392,-0.44640
2.89285,-0.42246
2.65178,-0.38724
2.41071,-0.34971
2.16964,-0.33354
1.92856,-0.34014
1.68749,-0.35263
1.44642,-0.35897
1.20535,-0.35476
0.96428,-0.35233
0.72321,-0.38399
0.48214,-0.42566
0.24107,-0.37229
-0.00000,-0.03789
