399.69498,1.50046
399.45391,1.48919
399.21284,1.47849
398.97177,1.47392
398.73070,1.47044
398.48963,1.46066
398.24856,1.45252
398.00749,1.46004
397.76642,1.47679
397.52535,1.48220
397.28428,1.46899
397.04321,1.44842
396.80214,1.43429
396.56107,1.43020
396.32000,1.43333
396.07892,1.44432
395.83785,1.46434
395.59678,1.48592
395.35571,1.49765
395.11464,1.49897
394.87357,1.50282
394.63250,1.51856
394.39143,1.54001
394.15036,1.55228
393.90929,1.55002
393.66822,1.54454
393.42715,1.54640
393.18608,1.55097
392.94501,1.54779
392.70394,1.53502
392.46287,1.52007
392.22180,1.51383
391.98073,1.51939
391.73965,1.52471
391.49858,1.51948
391.25751,1.50958
391.01644,1.50177
390.77537,1.49435
390.53430,1.48719
390.29323,1.48706
390.05216,1.49635
389.81109,1.50561
389.57002,1.50310
389.32895,1.48414
389.08788,1.46141
388.84681,1.45149
388.60574,1.45208
388.36467,1.45290
388.12360,1.45259
387.88253,1.45370
387.64146,1.45405
387.40038,1.45229
387.15931,1.45253
386.91824,1.45661
386.67717,1.45582
386.43610,1.44088
386.19503,1.41739
385.95396,1.40153
385.71289,1.40376
385.47182,1.41823
385.23075,1.42729
384.98968,1.41883
384.74861,1.39716
384.50754,1.37573
384.26647,1.36411
384.02540,1.36014
383.78433,1.35191
383.54326,1.33330
383.30219,1.31531
383.06111,1.31246
382.82004,1.32296
382.57897,1.33101
382.33790,1.32865
382.09683,1.32111
381.85576,1.31420
381.61469,1.30767
381.37362,1.29644
381.13255,1.28311
380.89148,1.27790
380.65041,1.27922
380.40934,1.27331
380.16827,1.25505
379.92720,1.23809
379.68613,1.23926
379.44506,1.25888
379.20399,1.28144
378.96292,1.29626
378.72184,1.30440
378.48077,1.30359
378.23970,1.28832
377.99863,1.26715
377.75756,1.25708
377.51649,1.26427
377.27542,1.28377
377.03435,1.31174
376.79328,1.34646
376.55221,1.37620
376.31114,1.38307
376.07007,1.36935
375.82900,1.35344
375.58793,1.34949
375.34686,1.35933
375.10579,1.37532
374.86472,1.38770
374.62365,1.39145
374.38257,1.39148
374.14150,1.39862
373.90043,1.41284
373.65936,1.41727
373.41829,1.40158
373.17722,1.38004
372.93615,1.37168
372.69508,1.37767
372.45401,1.38663
372.21294,1.39137
371.97187,1.38826
371.73080,1.37029
371.48973,1.33979
371.24866,1.31377
371.00759,1.30384
370.76652,1.30234
370.52545,1.29540
370.28437,1.28225
370.04330,1.27126
369.80223,1.26623
369.56116,1.26432
369.32009,1.26096
369.07902,1.25365
368.83795,1.24417
368.59688,1.23678
368.35581,1.23350
368.11474,1.23191
367.87367,1.22730
367.63260,1.21804
367.39153,1.20813
367.15046,1.20256
366.90939,1.20134
366.66832,1.20039
366.42725,1.19843
366.18618,1.19828
365.94510,1.20091
365.70403,1.20272
365.46296,1.20065
365.22189,1.19669
364.98082,1.19462
364.73975,1.19369
364.49868,1.18758
364.25761,1.17340
364.01654,1.15816
363.77547,1.15011
363.53440,1.14954
363.29333,1.15117
363.05226,1.15189
362.81119,1.15234
362.57012,1.15315
362.32905,1.15393
362.08798,1.15295
361.84691,1.14888
361.60583,1.14554
361.36476,1.15011
361.12369,1.16186
360.88262,1.16823
360.64155,1.16026
360.40048,1.14665
360.15941,1.14232
359.91834,1.15068
359.67727,1.16273
359.43620,1.16816
359.19513,1.16451
358.95406,1.15670
358.71299,1.14991
358.47192,1.14486
358.23085,1.13994
357.98978,1.13592
357.74871,1.13576
357.50764,1.14034
357.26656,1.14564
357.02549,1.14575
356.78442,1.14018
356.54335,1.13497
356.30228,1.13574
356.06121,1.14285
355.82014,1.15137
355.57907,1.15463
355.33800,1.15064
355.09693,1.14415
354.85586,1.13978
354.61479,1.13773
354.37372,1.13847
354.13265,1.14342
353.89158,1.14858
353.65051,1.14730
353.40944,1.14059
353.16837,1.13457
352.92729,1.13045
352.68622,1.12668
352.44515,1.12597
352.20408,1.13140
351.96301,1.13922
351.72194,1.14272
351.48087,1.14114
351.23980,1.13925
350.99873,1.14047
350.75766,1.14428
350.51659,1.14826
350.27552,1.15119
350.03445,1.15549
349.79338,1.16442
349.55231,1.17521
349.31124,1.17945
349.07017,1.17449
348.82910,1.16751
348.58802,1.16495
348.34695,1.16668
348.10588,1.17050
347.86481,1.17646
347.62374,1.18520
347.38267,1.19477
347.14160,1.20268
346.90053,1.20989
346.65946,1.21914
346.41839,1.22924
346.17732,1.23404
345.93625,1.22941
345.69518,1.21852
345.45411,1.20701
345.21304,1.19884
344.97197,1.19814
344.73090,1.20740
344.48983,1.22254
344.24875,1.23538
344.00768,1.24244
343.76661,1.24739
343.52554,1.25412
343.28447,1.26247
343.04340,1.27157
342.80233,1.28109
342.56126,1.28985
342.32019,1.29637
342.07912,1.30126
341.83805,1.30774
341.59698,1.31907
341.35591,1.33594
341.11484,1.35443
340.87377,1.36581
340.63270,1.36308
340.39163,1.34916
340.15056,1.33460
339.90948,1.32404
339.66841,1.31411
339.42734,1.30437
339.18627,1.30029
338.94520,1.30821
338.70413,1.32898
338.46306,1.35504
338.22199,1.37463
337.98092,1.37993
337.73985,1.37441
337.49878,1.36646
337.25771,1.35712
337.01664,1.34707
336.77557,1.34632
336.53450,1.36360
336.29343,1.39265
336.05236,1.41377
335.81129,1.41574
335.57021,1.41005
335.32914,1.40758
335.08807,1.40248
334.84700,1.39048
334.60593,1.38143
334.36486,1.38306
334.12379,1.38872
333.88272,1.38976
333.64165,1.38744
333.40058,1.38397
333.15951,1.37670
332.91844,1.36668
332.67737,1.35893
332.43630,1.35132
332.19523,1.33661
331.95416,1.31732
331.71309,1.30318
331.47202,1.29589
331.23094,1.28938
330.98987,1.28295
330.74880,1.28115
330.50773,1.27999
330.26666,1.26818
330.02559,1.24666
329.78452,1.23060
329.54345,1.22909
329.30238,1.23754
329.06131,1.24882
328.82024,1.25910
328.57917,1.26586
328.33810,1.27017
328.09703,1.27517
327.85596,1.28090
327.61489,1.28806
327.37382,1.30122
327.13275,1.31863
326.89167,1.32843
326.65060,1.32171
326.40953,1.30142
326.16846,1.27779
325.92739,1.25904
325.68632,1.25146
325.44525,1.25915
325.20418,1.27673
324.96311,1.29172
324.72204,1.29653
324.48097,1.29353
324.23990,1.28904
323.99883,1.29070
323.75776,1.30376
323.51669,1.32367
323.27562,1.33845
323.03455,1.34160
322.79348,1.33975
322.55240,1.34113
322.31133,1.34288
322.07026,1.33872
321.82919,1.33111
321.58812,1.32724
321.34705,1.32675
321.10598,1.32249
320.86491,1.31083
320.62384,1.29850
320.38277,1.29552
320.14170,1.30132
319.90063,1.31220
319.65956,1.32997
319.41849,1.34728
319.17742,1.34874
318.93635,1.33420
318.69528,1.31767
318.45421,1.30893
318.21313,1.31045
317.97206,1.32451
317.73099,1.34957
317.48992,1.36962
317.24885,1.36712
317.00778,1.34306
316.76671,1.31394
316.52564,1.29593
316.28457,1.29154
316.04350,1.29766
315.80243,1.31249
315.56136,1.33220
315.32029,1.35346
315.07922,1.37453
314.83815,1.38929
314.59708,1.38692
314.35601,1.36756
314.11494,1.35009
313.87386,1.35075
313.63279,1.36500
313.39172,1.37611
313.15065,1.37280
312.90958,1.35908
312.66851,1.35288
312.42744,1.36575
312.18637,1.38963
311.94530,1.40193
311.70423,1.38527
311.46316,1.34852
311.22209,1.31811
310.98102,1.31001
310.73995,1.32238
310.49888,1.34322
310.25781,1.36004
310.01674,1.36983
309.77567,1.37343
309.53459,1.37070
309.29352,1.36409
309.05245,1.35961
308.81138,1.36575
308.57031,1.38526
308.32924,1.40963
308.08817,1.42555
307.84710,1.42614
307.60603,1.41532
307.36496,1.40474
307.12389,1.40535
306.88282,1.41677
306.64175,1.42544
306.40068,1.41784
306.15961,1.39585
305.91854,1.37330
305.67747,1.36263
305.43640,1.36905
305.19532,1.38897
304.95425,1.40980
304.71318,1.41661
304.47211,1.40581
304.23104,1.39009
303.98997,1.38360
303.74890,1.38507
303.50783,1.38044
303.26676,1.36296
303.02569,1.34186
302.78462,1.32872
302.54355,1.32515
302.30248,1.32359
302.06141,1.31629
301.82034,1.30408
301.57927,1.29334
301.33820,1.28499
301.09713,1.27412
300.85605,1.26174
300.61498,1.25696
300.37391,1.26196
300.13284,1.26506
299.89177,1.25762
299.65070,1.24611
299.40963,1.23980
299.16856,1.24046
298.92749,1.24399
298.68642,1.24334
298.44535,1.23374
298.20428,1.21882
297.96321,1.20753
297.72214,1.20332
297.48107,1.20005
297.24000,1.19178
296.99893,1.18075
296.75786,1.17228
296.51678,1.16746
296.27571,1.16408
296.03464,1.16186
295.79357,1.16309
295.55250,1.16750
295.31143,1.17020
295.07036,1.16741
294.82929,1.16155
294.58822,1.15699
294.34715,1.15354
294.10608,1.14813
293.86501,1.14044
293.62394,1.13296
293.38287,1.12581
293.14180,1.11630
292.90073,1.10496
292.65966,1.09722
292.41859,1.09666
292.17751,1.09887
291.93644,1.09712
291.69537,1.09257
291.45430,1.09168
291.21323,1.09590
290.97216,1.09965
290.73109,1.09777
290.49002,1.09197
290.24895,1.08834
290.00788,1.09017
289.76681,1.09432
289.52574,1.09408
289.28467,1.08666
289.04360,1.07728
288.80253,1.07251
288.56146,1.07276
288.32039,1.07388
288.07932,1.07311
287.83824,1.07084
287.59717,1.06771
287.35610,1.06292
287.11503,1.05601
286.87396,1.04874
286.63289,1.04421
286.39182,1.04420
286.15075,1.04697
285.90968,1.04844
285.66861,1.04692
285.42754,1.04522
285.18647,1.04588
284.94540,1.04659
284.70433,1.04368
284.46326,1.03800
284.22219,1.03317
283.98112,1.03122
283.74005,1.03269
283.49897,1.03770
283.25790,1.04499
283.01683,1.05126
282.77576,1.05348
282.53469,1.05151
282.29362,1.04832
282.05255,1.04725
281.81148,1.04823
281.57041,1.04772
281.32934,1.04382
281.08827,1.03974
280.84720,1.04003
280.60613,1.04498
280.36506,1.05105
280.12399,1.05474
279.88292,1.05389
279.64185,1.04800
279.40078,1.04020
279.15970,1.03611
278.91863,1.03879
278.67756,1.04604
278.43649,1.05239
278.19542,1.05300
277.95435,1.04816
277.71328,1.04380
277.47221,1.04534
277.23114,1.05205
276.99007,1.05892
276.74900,1.06265
276.50793,1.06350
276.26686,1.06294
276.02579,1.06204
275.78472,1.06146
275.54365,1.06159
275.30258,1.06271
275.06151,1.06486
274.82043,1.06695
274.57936,1.06717
274.33829,1.06577
274.09722,1.06600
273.85615,1.07027
273.61508,1.07665
273.37401,1.08056
273.13294,1.07999
272.89187,1.07735
272.65080,1.07639
272.40973,1.07856
272.16866,1.08239
271.92759,1.08586
271.68652,1.08915
271.44545,1.09449
271.20438,1.10257
270.96331,1.10995
270.72224,1.11183
270.48116,1.10787
270.24009,1.10294
269.99902,1.10157
269.75795,1.10398
269.51688,1.10746
269.27581,1.11021
269.03474,1.11402
268.79367,1.12181
268.55260,1.13326
268.31153,1.14468
268.07046,1.15301
267.82939,1.15832
267.58832,1.16241
267.34725,1.16641
267.10618,1.17032
266.86511,1.17410
266.62404,1.17880
266.38297,1.18601
266.14189,1.19659
265.90082,1.21012
265.65975,1.22346
265.41868,1.23199
265.17761,1.23492
264.93654,1.23750
264.69547,1.24495
264.45440,1.25574
264.21333,1.26420
263.97226,1.26958
263.73119,1.27714
263.49012,1.28965
263.24905,1.30473
263.00798,1.31991
262.76691,1.33438
262.52584,1.34812
262.28477,1.36417
262.04370,1.38800
261.80262,1.41938
261.56155,1.44835
261.32048,1.46596
261.07941,1.47724
260.83834,1.49493
260.59727,1.52225
260.35620,1.54851
260.11513,1.56383
259.87406,1.57465
259.63299,1.60032
259.39192,1.65061
259.15085,1.70772
258.90978,1.74674
258.66871,1.77298
258.42764,1.79949
258.18657,1.82485
257.94550,1.83783
257.70443,1.83111
257.46335,1.80837
257.22228,1.78729
256.98121,1.78845
256.74014,1.81282
256.49907,1.83465
256.25800,1.82738
256.01693,1.79900
255.77586,1.77094
255.53479,1.74450
255.29372,1.71193
255.05265,1.68030
254.81158,1.66335
254.57051,1.66042
254.32944,1.66093
254.08837,1.65845
253.84730,1.65641
253.60623,1.66181
253.36516,1.67304
253.12408,1.67989
252.88301,1.67249
252.64194,1.65005
252.40087,1.61874
252.15980,1.58429
251.91873,1.55867
251.67766,1.55436
251.43659,1.56715
251.19552,1.57742
250.95445,1.57283
250.71338,1.56035
250.47231,1.55172
250.23124,1.55050
249.99017,1.55513
249.74910,1.56080
249.50803,1.55774
249.26696,1.54161
249.02589,1.52060
248.78481,1.50873
248.54374,1.51251
248.30267,1.52752
248.06160,1.54660
247.82053,1.56416
247.57946,1.57496
247.33839,1.57744
247.09732,1.57744
246.85625,1.58057
246.61518,1.58355
246.37411,1.58126
246.13304,1.57777
245.89197,1.57943
245.65090,1.58618
245.40983,1.59446
245.16876,1.60341
244.92769,1.61323
244.68661,1.62857
244.44554,1.66107
244.20447,1.71320
243.96340,1.76808
243.72233,1.80931
243.48126,1.83911
243.24019,1.86304
242.99912,1.88333
242.75805,1.91107
242.51698,1.91762
242.27591,1.80283
242.03484,1.69422
241.79377,1.60531
241.55270,1.51843
241.31163,1.43330
241.07056,1.35556
240.82949,1.29018
240.58842,1.23904
240.34734,1.20058
240.10627,1.16984
239.86520,1.14110
239.62413,1.11154
239.38306,1.08209
239.14199,1.05539
238.90092,1.03208
238.65985,1.00930
238.41878,0.98494
238.17771,0.96136
237.93664,0.94170
237.69557,0.92553
237.45450,0.91084
237.21343,0.89643
236.97236,0.88097
236.73129,0.86369
236.49022,0.84666
236.24915,0.83366
236.00807,0.82590
235.76700,0.82095
235.52593,0.81616
235.28486,0.81173
235.04379,0.80864
234.80272,0.80538
234.56165,0.79998
234.32058,0.79398
234.07951,0.79025
233.83844,0.78825
233.59737,0.78504
233.35630,0.78024
233.11523,0.77675
232.87416,0.77635
232.63309,0.77672
232.39202,0.77432
232.15095,0.76929
231.90988,0.76465
231.66880,0.76150
231.42773,0.75867
231.18666,0.75633
230.94559,0.75664
230.70452,0.76055
230.46345,0.76560
230.22238,0.76765
229.98131,0.76493
229.74024,0.75964
229.49917,0.75492
229.25810,0.75127
229.01703,0.74748
228.77596,0.74417
228.53489,0.74391
228.29382,0.74733
228.05275,0.75142
227.81168,0.75381
227.57061,0.75629
227.32953,0.76038
227.08846,0.76315
226.84739,0.76137
226.60632,0.75598
226.36525,0.74983
226.12418,0.74509
225.88311,0.74338
225.64204,0.74514
225.40097,0.74956
225.15990,0.75561
224.91883,0.76165
224.67776,0.76530
224.43669,0.76638
224.19562,0.76762
223.95455,0.77062
223.71348,0.77378
223.47241,0.77531
223.23134,0.77620
222.99026,0.77871
222.74919,0.78345
222.50812,0.78876
222.26705,0.79348
222.02598,0.79880
221.78491,0.80573
221.54384,0.81257
221.30277,0.81761
221.06170,0.82221
220.82063,0.82886
220.57956,0.83829
220.33849,0.85007
220.09742,0.86416
219.85635,0.88003
219.61528,0.89555
219.37421,0.90796
219.13314,0.91622
218.89207,0.92252
218.65099,0.93067
218.40992,0.94224
218.16885,0.95559
217.92778,0.96944
217.68671,0.98513
217.44564,1.00373
217.20457,1.02312
216.96350,1.03970
216.72243,1.05129
216.48136,1.05753
216.24029,1.06100
215.99922,1.06772
215.75815,1.08280
215.51708,1.10514
215.27601,1.12826
215.03494,1.14733
214.79387,1.16264
214.55280,1.17511
214.31172,1.18400
214.07065,1.19113
213.82958,1.20208
213.58851,1.22068
213.34744,1.24625
213.10637,1.27519
212.86530,1.30054
212.62423,1.31381
212.38316,1.31297
212.14209,1.30398
211.90102,1.29494
211.65995,1.29338
211.41888,1.30438
211.17781,1.32539
210.93674,1.34393
210.69567,1.34670
210.45460,1.33422
210.21353,1.31892
209.97245,1.31035
209.73138,1.30865
209.49031,1.30944
209.24924,1.30987
209.00817,1.30916
208.76710,1.30852
208.52603,1.30978
208.28496,1.30990
208.04389,1.30360
207.80282,1.29366
207.56175,1.28758
207.32068,1.28436
207.07961,1.27383
206.83854,1.25136
206.59747,1.22575
206.35640,1.20839
206.11533,1.20163
205.87426,1.19979
205.63318,1.19547
205.39211,1.18321
205.15104,1.16290
204.90997,1.13990
204.66890,1.11825
204.42783,1.09844
204.18676,1.08160
203.94569,1.06915
203.70462,1.05848
203.46355,1.04544
203.22248,1.02982
202.98141,1.01381
202.74034,0.99867
202.49927,0.98424
202.25820,0.96886
202.01713,0.95107
201.77606,0.93213
201.53499,0.91533
201.29391,0.90287
201.05284,0.89309
200.81177,0.88049
200.57070,0.86105
200.32963,0.83860
200.08856,0.82105
199.84749,0.81129
199.60642,0.80581
199.36535,0.79990
199.12428,0.79081
198.88321,0.77722
198.64214,0.76056
198.40107,0.74570
198.16000,0.73649
197.91893,0.73082
197.67786,0.72306
197.43679,0.71122
197.19572,0.69868
196.95464,0.68900
196.71357,0.68198
196.47250,0.67508
196.23143,0.66718
195.99036,0.65988
195.74929,0.65487
195.50822,0.65100
195.26715,0.64493
195.02608,0.63532
194.78501,0.62512
194.54394,0.61830
194.30287,0.61525
194.06180,0.61211
193.82073,0.60547
193.57966,0.59684
193.33859,0.59042
193.09752,0.58764
192.85645,0.58616
192.61537,0.58324
192.37430,0.57862
192.13323,0.57426
191.89216,0.57175
191.65109,0.56976
191.41002,0.56530
191.16895,0.55832
190.92788,0.55258
190.68681,0.55050
190.44574,0.54996
190.20467,0.54763
189.96360,0.54404
189.72253,0.54225
189.48146,0.54268
189.24039,0.54307
188.99932,0.54345
188.75825,0.54641
188.51718,0.55160
188.27610,0.55429
188.03503,0.55153
187.79396,0.54649
187.55289,0.54357
187.31182,0.54303
187.07075,0.54215
186.82968,0.53967
186.58861,0.53680
186.34754,0.53472
186.10647,0.53387
185.86540,0.53503
185.62433,0.53814
185.38326,0.54074
185.14219,0.54036
184.90112,0.53795
184.66005,0.53662
184.41898,0.53792
184.17791,0.54131
183.93683,0.54548
183.69576,0.54893
183.45469,0.55069
183.21362,0.55173
182.97255,0.55371
182.73148,0.55621
182.49041,0.55763
182.24934,0.55824
182.00827,0.55912
181.76720,0.55968
181.52613,0.55972
181.28506,0.56132
181.04399,0.56526
180.80292,0.56923
180.56185,0.57174
180.32078,0.57379
180.07971,0.57640
179.83864,0.58026
179.59756,0.58622
179.35649,0.59338
179.11542,0.59966
178.87435,0.60516
178.63328,0.61178
178.39221,0.62023
178.15114,0.63034
177.91007,0.64221
177.66900,0.65497
177.42793,0.66673
177.18686,0.67710
176.94579,0.68790
176.70472,0.70072
176.46365,0.71530
176.22258,0.73073
175.98151,0.74812
175.74044,0.77061
175.49937,0.79925
175.25829,0.83031
175.01722,0.85876
174.77615,0.88303
174.53508,0.90358
174.29401,0.91997
174.05294,0.93277
173.81187,0.94510
173.57080,0.95926
173.32973,0.97393
173.08866,0.98665
172.84759,0.99715
172.60652,1.00719
172.36545,1.01960
172.12438,1.03673
171.88331,1.05625
171.64224,1.07014
171.40117,1.07194
171.16010,1.06308
170.91902,1.05025
170.67795,1.03909
170.43688,1.03041
170.19581,1.02131
169.95474,1.01020
169.71367,0.99859
169.47260,0.98817
169.23153,0.97994
168.99046,0.97565
168.74939,0.97606
168.50832,0.97830
168.26725,0.97841
168.02618,0.97567
167.78511,0.97127
167.54404,0.96495
167.30297,0.95702
167.06190,0.95130
166.82083,0.95213
166.57975,0.95907
166.33868,0.96711
166.09761,0.97250
165.85654,0.97642
165.61547,0.98209
165.37440,0.99039
165.13333,0.99972
164.89226,1.00884
164.65119,1.01786
164.41012,1.02741
164.16905,1.03757
163.92798,1.04807
163.68691,1.05856
163.44584,1.06932
163.20477,1.08151
162.96370,1.09632
162.72263,1.11367
162.48156,1.13135
162.24048,1.14754
161.99941,1.16429
161.75834,1.18397
161.51727,1.20097
161.27620,1.20295
161.03513,1.18826
160.79406,1.17111
160.55299,1.16290
160.31192,1.16223
160.07085,1.16441
159.82978,1.16829
159.58871,1.17073
159.34764,1.16488
159.10657,1.14703
158.86550,1.12149
158.62443,1.09898
158.38336,1.08897
158.14229,1.09259
157.90121,1.10284
157.66014,1.10946
157.41907,1.10501
157.17800,1.08983
156.93693,1.07056
156.69586,1.05357
156.45479,1.04281
156.21372,1.04101
155.97265,1.04640
155.73158,1.04919
155.49051,1.04008
155.24944,1.02208
155.00837,1.00402
154.76730,0.98921
154.52623,0.97703
154.28516,0.96652
154.04409,0.95513
153.80302,0.93984
153.56194,0.92034
153.32087,0.89900
153.07980,0.87888
152.83873,0.86180
152.59766,0.84572
152.35659,0.82579
152.11552,0.80091
151.87445,0.77531
151.63338,0.75273
151.39231,0.73386
151.15124,0.71825
150.91017,0.70442
150.66910,0.68946
150.42803,0.67212
150.18696,0.65495
149.94589,0.64097
149.70482,0.62976
149.46375,0.61856
149.22267,0.60575
148.98160,0.59272
148.74053,0.58256
148.49946,0.57710
148.25839,0.57486
148.01732,0.57223
147.77625,0.56738
147.53518,0.56203
147.29411,0.55864
147.05304,0.55740
146.81197,0.55707
146.57090,0.55751
146.32983,0.55960
146.08876,0.56330
145.84769,0.56753
145.60662,0.57178
145.36555,0.57664
145.12448,0.58264
144.88340,0.58945
144.64233,0.59643
144.40126,0.60294
144.16019,0.60813
143.91912,0.61147
143.67805,0.61313
143.43698,0.61259
143.19591,0.60807
142.95484,0.59901
142.71377,0.58823
142.47270,0.57917
142.23163,0.57171
141.99056,0.56312
141.74949,0.55248
141.50842,0.54197
141.26735,0.53353
141.02628,0.52644
140.78521,0.51956
140.54413,0.51435
140.30306,0.51307
140.06199,0.51537
139.82092,0.51934
139.57985,0.52462
139.33878,0.53147
139.09771,0.53842
138.85664,0.54412
138.61557,0.55004
138.37450,0.55841
138.13343,0.56925
137.89236,0.58153
137.65129,0.59522
137.41022,0.61074
137.16915,0.62821
136.92808,0.64756
136.68701,0.66796
136.44594,0.68834
136.20486,0.71003
135.96379,0.73602
135.72272,0.76647
135.48165,0.79887
135.24058,0.83289
134.99951,0.86987
134.75844,0.90818
134.51737,0.94443
134.27630,0.97757
134.03523,1.00769
133.79416,1.03426
133.55309,1.05919
133.31202,1.08661
133.07095,1.11649
132.82988,1.14357
132.58881,1.16388
132.34774,1.17793
132.10667,1.18779
131.86559,1.19322
131.62452,1.18997
131.38345,1.17530
131.14238,1.15425
130.90131,1.13312
130.66024,1.11013
130.41917,1.07971
130.17810,1.04229
129.93703,1.00282
129.69596,0.96375
129.45489,0.92515
129.21382,0.88774
128.97275,0.85203
128.73168,0.81703
128.49061,0.78225
128.24954,0.74917
128.00847,0.71980
127.76740,0.69418
127.52632,0.67024
127.28525,0.64620
127.04418,0.62223
126.80311,0.59911
126.56204,0.57669
126.32097,0.55495
126.07990,0.53514
125.83883,0.51835
125.59776,0.50413
125.35669,0.49114
125.11562,0.47861
124.87455,0.46683
124.63348,0.45673
124.39241,0.44889
124.15134,0.44289
123.91027,0.43792
123.66920,0.43350
123.42812,0.42951
123.18705,0.42621
122.94598,0.42440
122.70491,0.42486
122.46384,0.42740
122.22277,0.43063
121.98170,0.43276
121.74063,0.43332
121.49956,0.43411
121.25849,0.43740
121.01742,0.44356
120.77635,0.45180
120.53528,0.46195
120.29421,0.47394
120.05314,0.48709
119.81207,0.50147
119.57100,0.51847
119.32993,0.53933
119.08885,0.56415
118.84778,0.59282
118.60671,0.62603
118.36564,0.66425
118.12457,0.70457
117.88350,0.73988
117.64243,0.76517
117.40136,0.78309
117.16029,0.79776
116.91922,0.80649
116.67815,0.80459
116.43708,0.79431
116.19601,0.78176
115.95494,0.76933
115.71387,0.75618
115.47280,0.74309
115.23173,0.73239
114.99066,0.72433
114.74958,0.71608
114.50851,0.70494
114.26744,0.69075
114.02637,0.67472
113.78530,0.65805
113.54423,0.64356
113.30316,0.63626
113.06209,0.63973
112.82102,0.65330
112.57995,0.67313
112.33888,0.69491
112.09781,0.71494
111.85674,0.73008
111.61567,0.73868
111.37460,0.74034
111.13353,0.73563
110.89246,0.72818
110.65139,0.72333
110.41031,0.72363
110.16924,0.72764
109.92817,0.73242
109.68710,0.73456
109.44603,0.72831
109.20496,0.70804
108.96389,0.67537
108.72282,0.63846
108.48175,0.60538
108.24068,0.58042
107.99961,0.56379
107.75854,0.55309
107.51747,0.54475
107.27640,0.53447
107.03533,0.51796
106.79426,0.49367
106.55319,0.46571
106.31212,0.44189
106.07104,0.42731
105.82997,0.42093
105.58890,0.41791
105.34783,0.41301
105.10676,0.40291
104.86569,0.38776
104.62462,0.37045
104.38355,0.35478
104.14248,0.34387
103.90141,0.33900
103.66034,0.33886
103.41927,0.33937
103.17820,0.33563
102.93713,0.32635
102.69606,0.31492
102.45499,0.30593
102.21392,0.30234
101.97285,0.30322
101.73177,0.30303
101.49070,0.29672
101.24963,0.28619
101.00856,0.27830
100.76749,0.27765
100.52642,0.28267
100.28535,0.28684
100.04428,0.28419
99.80321,0.27573
99.56214,0.26841
99.32107,0.26730
99.08000,0.27089
98.83893,0.27291
98.59786,0.26848
98.35679,0.25968
98.11572,0.25352
97.87465,0.25504
97.63358,0.26265
97.39250,0.26924
97.15143,0.26978
96.91036,0.26778
96.66929,0.27084
96.42822,0.28064
96.18715,0.29047
95.94608,0.29465
95.70501,0.29782
95.46394,0.30776
95.22287,0.32247
94.98180,0.33160
94.74073,0.33274
94.49966,0.33566
94.25859,0.34547
94.01752,0.35410
93.77645,0.35308
93.53538,0.34801
93.29431,0.34853
93.05323,0.35337
92.81216,0.35521
92.57109,0.35413
92.33002,0.35485
92.08895,0.35620
91.84788,0.35561
91.60681,0.35769
91.36574,0.36723
91.12467,0.38192
90.88360,0.39963
90.64253,0.42337
90.40146,0.45402
90.16039,0.48949
89.91932,0.53217
89.67825,0.58337
89.43718,0.63479
89.19611,0.67995
88.95504,0.72066
88.71396,0.75210
88.47289,0.76294
88.23182,0.75074
87.99075,0.71860
87.74968,0.66895
87.50861,0.61035
87.26754,0.55546
87.02647,0.51070
86.78540,0.47418
86.54433,0.44111
86.30326,0.40925
86.06219,0.37983
85.82112,0.35431
85.58005,0.33227
85.33898,0.31243
85.09791,0.29368
84.85684,0.27590
84.61577,0.26049
84.37469,0.24861
84.13362,0.23932
83.89255,0.23098
83.65148,0.22335
83.41041,0.21638
83.16934,0.20937
82.92827,0.20287
82.68720,0.19885
82.44613,0.19767
82.20506,0.19702
81.96399,0.19492
81.72292,0.19205
81.48185,0.19011
81.24078,0.18966
80.99971,0.19023
80.75864,0.19137
80.51757,0.19264
80.27650,0.19359
80.03542,0.19380
79.79435,0.19279
79.55328,0.19048
79.31221,0.18776
79.07114,0.18584
78.83007,0.18508
78.58900,0.18495
78.34793,0.18477
78.10686,0.18380
77.86579,0.18114
77.62472,0.17644
77.38365,0.17081
77.14258,0.16622
76.90151,0.16386
76.66044,0.16334
76.41937,0.16366
76.17830,0.16443
75.93723,0.16594
75.69615,0.16818
75.45508,0.17015
75.21401,0.17080
74.97294,0.17002
74.73187,0.16858
74.49080,0.16729
74.24973,0.16687
74.00866,0.16798
73.76759,0.17051
73.52652,0.17261
73.28545,0.17168
73.04438,0.16767
72.80331,0.16430
72.56224,0.16572
72.32117,0.17199
72.08010,0.17869
71.83903,0.18133
71.59796,0.17931
71.35688,0.17520
71.11581,0.17175
70.87474,0.17052
70.63367,0.17244
70.39260,0.17860
70.15153,0.19052
69.91046,0.20967
69.66939,0.23566
69.42832,0.26372
69.18725,0.28431
68.94618,0.28918
68.70511,0.27857
68.46404,0.25917
68.22297,0.23742
67.98190,0.21684
67.74083,0.19868
67.49976,0.18384
67.25869,0.17378
67.01761,0.16877
66.77654,0.16641
66.53547,0.16405
66.29440,0.16192
66.05333,0.16171
65.81226,0.16359
65.57119,0.16680
65.33012,0.17191
65.08905,0.18020
64.84798,0.19112
64.60691,0.20208
64.36584,0.21049
64.12477,0.21428
63.88370,0.21127
63.64263,0.20090
63.40156,0.18603
63.16049,0.17085
62.91942,0.15780
62.67834,0.14727
62.43727,0.13864
62.19620,0.13118
61.95513,0.12506
61.71406,0.12158
61.47299,0.12175
61.23192,0.12542
60.99085,0.13165
60.74978,0.13948
60.50871,0.14838
60.26764,0.15867
60.02657,0.17127
59.78550,0.18601
59.54443,0.19903
59.30336,0.20280
59.06229,0.19252
58.82122,0.17258
58.58015,0.15198
58.33907,0.13577
58.09800,0.12430
57.85693,0.11820
57.61586,0.12081
57.37479,0.13430
57.13372,0.15522
56.89265,0.17641
56.65158,0.19184
56.41051,0.19680
56.16944,0.18729
55.92837,0.16552
55.68730,0.14044
55.44623,0.12052
55.20516,0.11070
54.96409,0.11372
54.72302,0.13066
54.48195,0.16060
54.24088,0.19820
53.99980,0.22769
53.75873,0.22610
53.51766,0.19238
53.27659,0.15178
53.03552,0.12595
52.79445,0.12396
52.55338,0.14688
52.31231,0.18878
52.07124,0.22416
51.83017,0.21031
51.58910,0.15684
51.34803,0.11099
51.10696,0.09528
50.86589,0.11300
50.62482,0.15688
50.38375,0.19459
50.14268,0.18054
49.90161,0.13399
49.66053,0.10406
49.41946,0.11508
49.17839,0.16399
48.93732,0.20105
48.69625,0.17163
48.45518,0.12655
48.21411,0.12140
47.97304,0.16107
47.73197,0.19538
47.49090,0.16622
47.24983,0.12954
47.00876,0.13811
46.76769,0.16702
46.52662,0.15710
46.28555,0.13028
46.04448,0.13407
45.80341,0.15528
45.56234,0.15522
45.32126,0.14298
45.08019,0.14541
44.83912,0.15548
44.59805,0.15916
44.35698,0.16126
44.11591,0.16290
43.87484,0.16064
43.63377,0.16346
43.39270,0.17468
43.15163,0.18301
42.91056,0.18366
42.66949,0.18115
42.42842,0.17444
42.18735,0.16366
41.94628,0.15489
41.70521,0.15132
41.46414,0.15277
41.22307,0.15817
40.98199,0.16480
40.74092,0.16905
40.49985,0.16836
40.25878,0.16464
40.01771,0.16547
39.77664,0.17516
39.53557,0.18876
39.29450,0.20166
39.05343,0.21669
38.81236,0.23496
38.57129,0.25218
38.33022,0.26367
38.08915,0.26410
37.84808,0.25124
37.60701,0.23446
37.36594,0.22649
37.12487,0.22812
36.88380,0.22818
36.64272,0.21929
36.40165,0.20936
36.16058,0.20954
35.91951,0.21921
35.67844,0.22931
35.43737,0.23175
35.19630,0.21939
34.95523,0.19033
34.71416,0.16042
34.47309,0.14993
34.23202,0.15882
33.99095,0.17262
33.74988,0.18229
33.50881,0.18823
33.26774,0.19273
33.02667,0.19842
32.78560,0.21045
32.54453,0.23072
32.30345,0.24911
32.06238,0.24911
31.82131,0.22701
31.58024,0.19372
31.33917,0.16060
31.09810,0.13577
30.85703,0.12017
30.61596,0.10858
30.37489,0.09763
30.13382,0.08731
29.89275,0.08155
29.65168,0.08404
29.41061,0.08780
29.16954,0.07722
28.92847,0.04991
28.68740,0.02666
28.44633,0.02664
28.20526,0.03694
27.96418,0.03278
27.72311,0.02054
27.48204,0.02262
27.24097,0.03910
26.99990,0.04893
26.75883,0.03617
26.51776,0.00415
26.27669,-0.03359
26.03562,-0.05977
25.79455,-0.06308
25.55348,-0.05328
25.31241,-0.05082
25.07134,-0.06752
24.83027,-0.10623
24.58920,-0.16177
24.34813,-0.21632
24.10706,-0.24688
23.86599,-0.24463
23.62491,-0.22202
23.38384,-0.19928
23.14277,-0.18856
22.90170,-0.18521
22.66063,-0.17673
22.41956,-0.16423
22.17849,-0.16214
21.93742,-0.17761
21.69635,-0.20278
21.45528,-0.22208
21.21421,-0.22582
20.97314,-0.21422
20.73207,-0.18949
20.49100,-0.16186
20.24993,-0.14567
20.00886,-0.14369
19.76779,-0.15119
19.52672,-0.16887
19.28564,-0.19347
19.04457,-0.21174
18.80350,-0.21465
18.56243,-0.20550
18.32136,-0.19446
18.08029,-0.18191
17.83922,-0.16072
17.59815,-0.15766
17.35708,-0.19306
17.11601,-0.24440
16.87494,-0.26848
16.63387,-0.25972
16.39280,-0.25518
16.15173,-0.26719
15.91066,-0.26852
15.66959,-0.24586
15.42852,-0.22146
15.18745,-0.22251
14.94637,-0.24533
14.70530,-0.26378
14.46423,-0.27318
14.22316,-0.28833
13.98209,-0.31310
13.74102,-0.32868
13.49995,-0.30169
13.25888,-0.27378
13.01781,-0.26401
12.77674,-0.27311
12.53567,-0.29321
12.29460,-0.27973
12.05353,-0.25068
11.81246,-0.24049
11.57139,-0.24547
11.33032,-0.26215
11.08925,-0.29285
10.84818,-0.32133
10.60710,-0.33203
10.36603,-0.32705
10.12496,-0.29466
9.88389,-0.25362
9.64282,-0.24025
9.40175,-0.23206
9.16068,-0.21179
8.91961,-0.19231
8.67854,-0.18726
8.43747,-0.20393
8.19640,-0.23770
7.95533,-0.26707
7.71426,-0.26758
7.47319,-0.25440
7.23212,-0.23999
6.99105,-0.23000
6.74998,-0.23480
6.50891,-0.25544
6.26783,-0.27676
6.02676,-0.28131
5.78569,-0.25978
5.54462,-0.23607
5.30355,-0.22338
5.06248,-0.22812
4.82141,-0.25261
4.58034,-0.29481
4.33927,-0.33675
4.09820,-0.34965
3.85713,-0.33362
3.61606,-0.31414
3.37499,-0.29796
3.13392,-0.28177
2.89285,-0.26678
2.65178,-0.26046
2.41071,-0.27122
2.16964,-0.28058
1.92856,-0.27261
1.68749,-0.26003
1.44642,-0.26487
1.20535,-0.28440
0.96428,-0.30040
0.72321,-0.30836
0.48214,-0.29319
0.24107,-0.26817
-0.00000,-0.19106
