399.69498,1.48270
399.45391,1.48092
399.21284,1.48074
398.97177,1.48422
398.73070,1.48614
398.48963,1.48169
398.24856,1.47376
398.00749,1.46834
397.76642,1.46696
397.52535,1.46541
397.28428,1.46080
397.04321,1.45542
396.80214,1.45110
396.56107,1.44748
396.32000,1.44689
396.07892,1.45296
395.83785,1.46297
395.59678,1.46843
395.35571,1.46564
395.11464,1.45904
394.87357,1.45163
394.63250,1.44125
394.39143,1.42949
394.15036,1.42427
393.90929,1.42936
393.66822,1.43752
393.42715,1.44024
393.18608,1.43866
392.94501,1.43888
392.70394,1.44089
392.46287,1.43773
392.22180,1.42701
391.98073,1.41487
391.73965,1.40758
391.49858,1.40562
391.25751,1.40625
391.01644,1.40756
390.77537,1.40698
390.53430,1.39942
390.29323,1.38447
390.05216,1.37280
389.81109,1.37577
389.57002,1.39072
389.32895,1.40344
389.08788,1.40302
388.84681,1.39124
388.60574,1.37928
388.36467,1.37533
388.12360,1.37657
387.88253,1.37294
387.64146,1.36014
387.40038,1.34335
387.15931,1.32886
386.91824,1.31960
386.67717,1.31821
386.43610,1.32743
386.19503,1.34344
385.95396,1.35653
385.71289,1.36097
385.47182,1.35887
385.23075,1.35205
384.98968,1.33768
384.74861,1.31560
384.50754,1.29325
384.26647,1.27786
384.02540,1.26941
383.78433,1.26541
383.54326,1.26295
383.30219,1.25697
383.06111,1.24339
382.82004,1.22417
382.57897,1.20562
382.33790,1.19132
382.09683,1.18173
381.85576,1.17795
381.61469,1.17828
381.37362,1.17477
381.13255,1.16259
380.89148,1.14991
380.65041,1.14866
380.40934,1.15835
380.16827,1.16715
379.92720,1.16944
379.68613,1.17163
379.44506,1.17975
379.20399,1.19354
378.96292,1.21051
378.72184,1.22757
378.48077,1.24043
378.23970,1.24568
377.99863,1.24422
377.75756,1.24064
377.51649,1.23934
377.27542,1.24160
377.03435,1.24663
376.79328,1.25283
376.55221,1.25684
376.31114,1.25671
376.07007,1.25754
375.82900,1.26728
375.58793,1.28665
375.34686,1.30808
375.10579,1.32352
374.86472,1.33001
374.62365,1.33012
374.38257,1.32880
374.14150,1.32758
373.90043,1.32411
373.65936,1.31878
373.41829,1.31643
373.17722,1.31893
372.93615,1.32143
372.69508,1.32037
372.45401,1.31983
372.21294,1.32400
371.97187,1.33070
371.73080,1.33663
371.48973,1.34169
371.24866,1.34538
371.00759,1.34446
370.76652,1.33771
370.52545,1.32879
370.28437,1.32063
370.04330,1.31211
369.80223,1.30238
369.56116,1.29324
369.32009,1.28636
369.07902,1.28316
368.83795,1.28510
368.59688,1.29117
368.35581,1.29824
368.11474,1.30410
367.87367,1.30749
367.63260,1.30724
367.39153,1.30338
367.15046,1.29842
366.90939,1.29429
366.66832,1.28917
366.42725,1.28070
366.18618,1.27107
365.94510,1.26588
365.70403,1.26715
365.46296,1.27007
365.22189,1.26870
364.98082,1.26335
364.73975,1.25870
364.49868,1.25644
364.25761,1.25474
364.01654,1.25339
363.77547,1.25358
363.53440,1.25358
363.29333,1.25138
363.05226,1.24951
362.81119,1.25070
362.57012,1.25268
362.32905,1.25259
362.08798,1.25237
361.84691,1.25513
361.60583,1.25868
361.36476,1.25769
361.12369,1.25038
360.88262,1.23893
360.64155,1.22678
360.40048,1.21756
360.15941,1.21403
359.91834,1.21619
359.67727,1.22110
359.43620,1.22430
359.19513,1.22271
358.95406,1.21797
358.71299,1.21570
358.47192,1.21988
358.23085,1.22815
357.98978,1.23319
357.74871,1.22920
357.50764,1.21764
357.26656,1.20542
357.02549,1.19758
356.78442,1.19403
356.54335,1.19270
356.30228,1.19241
356.06121,1.19258
355.82014,1.19219
355.57907,1.19099
355.33800,1.19147
355.09693,1.19667
354.85586,1.20446
354.61479,1.20733
354.37372,1.20071
354.13265,1.18893
353.89158,1.18131
353.65051,1.18378
353.40944,1.19359
353.16837,1.20226
352.92729,1.20444
352.68622,1.20166
352.44515,1.19695
352.20408,1.19132
351.96301,1.18602
351.72194,1.18232
351.48087,1.17966
351.23980,1.17784
350.99873,1.17880
350.75766,1.18333
350.51659,1.18749
350.27552,1.18513
350.03445,1.17586
349.79338,1.16725
349.55231,1.16672
349.31124,1.17428
349.07017,1.18428
348.82910,1.19052
348.58802,1.18995
348.34695,1.18569
348.10588,1.18465
347.86481,1.18931
347.62374,1.19506
347.38267,1.19781
347.14160,1.19913
346.90053,1.20190
346.65946,1.20654
346.41839,1.21214
346.17732,1.21855
345.93625,1.22648
345.69518,1.23505
345.45411,1.24176
345.21304,1.24559
344.97197,1.24723
344.73090,1.24608
344.48983,1.24019
344.24875,1.23051
344.00768,1.22146
343.76661,1.21627
343.52554,1.21515
343.28447,1.21803
343.04340,1.22501
342.80233,1.23351
342.56126,1.23911
342.32019,1.23984
342.07912,1.23704
341.83805,1.23319
341.59698,1.23195
341.35591,1.23740
341.11484,1.24945
340.87377,1.26133
340.63270,1.26535
340.39163,1.26242
340.15056,1.26222
339.90948,1.27103
339.66841,1.28337
339.42734,1.28866
339.18627,1.28422
338.94520,1.27771
338.70413,1.27751
338.46306,1.28408
338.22199,1.29274
337.98092,1.30093
337.73985,1.30714
337.49878,1.30729
337.25771,1.29983
337.01664,1.29072
336.77557,1.28798
336.53450,1.29323
336.29343,1.29997
336.05236,1.30128
335.81129,1.29789
335.57021,1.29477
335.32914,1.29326
335.08807,1.29181
334.84700,1.29054
334.60593,1.28953
334.36486,1.28691
334.12379,1.28295
333.88272,1.27985
333.64165,1.27628
333.40058,1.27059
333.15951,1.26604
332.91844,1.26530
332.67737,1.26540
332.43630,1.26274
332.19523,1.25762
331.95416,1.25096
331.71309,1.24331
331.47202,1.23690
331.23094,1.23249
330.98987,1.22775
330.74880,1.22202
330.50773,1.21804
330.26666,1.21807
330.02559,1.22139
329.78452,1.22448
329.54345,1.22184
329.30238,1.21123
329.06131,1.19838
328.82024,1.19056
328.57917,1.18868
328.33810,1.19015
328.09703,1.19483
327.85596,1.20300
327.61489,1.21002
327.37382,1.21009
327.13275,1.20405
326.89167,1.19630
326.65060,1.18750
326.40953,1.17656
326.16846,1.16741
325.92739,1.16717
325.68632,1.17694
325.44525,1.18944
325.20418,1.19641
324.96311,1.19539
324.72204,1.18937
324.48097,1.18392
324.23990,1.18454
323.99883,1.19131
323.75776,1.19835
323.51669,1.20082
323.27562,1.19956
323.03455,1.19714
322.79348,1.19380
322.55240,1.18945
322.31133,1.18870
322.07026,1.19716
321.82919,1.21048
321.58812,1.21631
321.34705,1.21095
321.10598,1.20373
320.86491,1.20071
320.62384,1.19785
320.38277,1.19322
320.14170,1.19223
319.90063,1.19609
319.65956,1.19795
319.41849,1.19387
319.17742,1.18889
318.93635,1.18830
318.69528,1.19130
318.45421,1.19550
318.21313,1.20051
317.97206,1.20424
317.73099,1.20223
317.48992,1.19556
317.24885,1.19308
317.00778,1.19976
316.76671,1.20882
316.52564,1.21083
316.28457,1.20491
316.04350,1.19821
315.80243,1.19702
315.56136,1.20092
315.32029,1.20595
315.07922,1.20976
314.83815,1.21243
314.59708,1.21581
314.35601,1.22337
314.11494,1.23667
313.87386,1.25114
313.63279,1.25910
313.39172,1.25732
313.15065,1.24906
312.90958,1.23996
312.66851,1.23388
312.42744,1.23206
312.18637,1.23443
311.94530,1.24016
311.70423,1.24715
311.46316,1.25354
311.22209,1.26007
310.98102,1.26878
310.73995,1.27851
310.49888,1.28454
310.25781,1.28355
310.01674,1.27780
309.77567,1.27445
309.53459,1.27957
309.29352,1.29148
309.05245,1.30244
308.81138,1.30699
308.57031,1.30540
308.32924,1.30074
308.08817,1.29570
307.84710,1.29343
307.60603,1.29675
307.36496,1.30288
307.12389,1.30403
306.88282,1.29539
306.64175,1.27995
306.40068,1.26665
306.15961,1.26467
305.91854,1.27606
305.67747,1.29309
305.43640,1.30521
305.19532,1.30837
304.95425,1.30451
304.71318,1.29595
304.47211,1.28537
304.23104,1.27711
303.98997,1.27387
303.74890,1.27445
303.50783,1.27678
303.26676,1.28055
303.02569,1.28499
302.78462,1.28775
302.54355,1.28736
302.30248,1.28364
302.06141,1.27713
301.82034,1.27148
301.57927,1.27240
301.33820,1.27976
301.09713,1.28522
300.85605,1.28190
300.61498,1.27247
300.37391,1.26332
300.13284,1.25611
299.89177,1.25042
299.65070,1.24782
299.40963,1.24939
299.16856,1.25262
298.92749,1.25304
298.68642,1.24931
298.44535,1.24440
298.20428,1.24134
297.96321,1.23932
297.72214,1.23521
297.48107,1.22883
297.24000,1.22451
296.99893,1.22514
296.75786,1.22664
296.51678,1.22219
296.27571,1.21230
296.03464,1.20578
295.79357,1.20844
295.55250,1.21576
295.31143,1.21885
295.07036,1.21479
294.82929,1.20812
294.58822,1.20403
294.34715,1.20325
294.10608,1.20282
293.86501,1.20054
293.62394,1.19765
293.38287,1.19685
293.14180,1.19798
292.90073,1.19727
292.65966,1.19232
292.41859,1.18623
292.17751,1.18385
291.93644,1.18506
291.69537,1.18479
291.45430,1.17965
291.21323,1.17157
290.97216,1.16465
290.73109,1.16166
290.49002,1.16252
290.24895,1.16394
290.00788,1.16309
289.76681,1.16128
289.52574,1.16032
289.28467,1.15812
289.04360,1.15326
288.80253,1.14950
288.56146,1.15048
288.32039,1.15339
288.07932,1.15251
287.83824,1.14682
287.59717,1.14077
287.35610,1.13852
287.11503,1.13946
286.87396,1.13988
286.63289,1.13812
286.39182,1.13593
286.15075,1.13482
285.90968,1.13366
285.66861,1.13075
285.42754,1.12694
285.18647,1.12519
284.94540,1.12703
284.70433,1.13079
284.46326,1.13314
284.22219,1.13183
283.98112,1.12724
283.74005,1.12234
283.49897,1.12039
283.25790,1.12184
283.01683,1.12363
282.77576,1.12254
282.53469,1.11886
282.29362,1.11566
282.05255,1.11488
281.81148,1.11581
281.57041,1.11698
281.32934,1.11771
281.08827,1.11768
280.84720,1.11683
280.60613,1.11612
280.36506,1.11642
280.12399,1.11698
279.88292,1.11688
279.64185,1.11715
279.40078,1.11868
279.15970,1.11930
278.91863,1.11656
278.67756,1.11259
278.43649,1.11186
278.19542,1.11454
277.95435,1.11607
277.71328,1.11394
277.47221,1.11080
277.23114,1.10985
276.99007,1.11076
276.74900,1.11171
276.50793,1.11271
276.26686,1.11468
276.02579,1.11709
275.78472,1.11889
275.54365,1.12028
275.30258,1.12168
275.06151,1.12213
274.82043,1.12105
274.57936,1.12016
274.33829,1.12146
274.09722,1.12355
273.85615,1.12261
273.61508,1.11778
273.37401,1.11297
273.13294,1.11224
272.89187,1.11535
272.65080,1.11932
272.40973,1.12227
272.16866,1.12457
271.92759,1.12773
271.68652,1.13263
271.44545,1.13726
271.20438,1.13788
270.96331,1.13407
270.72224,1.12992
270.48116,1.12889
270.24009,1.13102
269.99902,1.13570
269.75795,1.14318
269.51688,1.15250
269.27581,1.16109
269.03474,1.16670
268.79367,1.16843
268.55260,1.16685
268.31153,1.16448
268.07046,1.16442
267.82939,1.16755
267.58832,1.17219
267.34725,1.17627
267.10618,1.17924
266.86511,1.18226
266.62404,1.18700
266.38297,1.19332
266.14189,1.19906
265.90082,1.20292
265.65975,1.20634
265.41868,1.21162
265.17761,1.21946
264.93654,1.22879
264.69547,1.23835
264.45440,1.24799
264.21333,1.25858
263.97226,1.27028
263.73119,1.28031
263.49012,1.28457
263.24905,1.28386
263.00798,1.28593
262.76691,1.29725
262.52584,1.31506
262.28477,1.33115
262.04370,1.34345
261.80262,1.35855
261.56155,1.38069
261.32048,1.40398
261.07941,1.41902
260.83834,1.42533
260.59727,1.43176
260.35620,1.44505
260.11513,1.46364
259.87406,1.48300
259.63299,1.50277
259.39192,1.52436
259.15085,1.54486
258.90978,1.55954
258.66871,1.57214
258.42764,1.59417
258.18657,1.63031
257.94550,1.66813
257.70443,1.68722
257.46335,1.68563
257.22228,1.68175
256.98121,1.68834
256.74014,1.70021
256.49907,1.70341
256.25800,1.69556
256.01693,1.68480
255.77586,1.67758
255.53479,1.67427
255.29372,1.67350
255.05265,1.67157
254.81158,1.66042
254.57051,1.63610
254.32944,1.60502
254.08837,1.57924
253.84730,1.56955
253.60623,1.57885
253.36516,1.59618
253.12408,1.60187
252.88301,1.58732
252.64194,1.56468
252.40087,1.54896
252.15980,1.54196
251.91873,1.53637
251.67766,1.52832
251.43659,1.52173
251.19552,1.52108
250.95445,1.52409
250.71338,1.52266
250.47231,1.51235
250.23124,1.49868
249.99017,1.49018
249.74910,1.48973
249.50803,1.49498
249.26696,1.50235
249.02589,1.50814
248.78481,1.50971
248.54374,1.50747
248.30267,1.50302
248.06160,1.49675
247.82053,1.49094
247.57946,1.49049
247.33839,1.49634
247.09732,1.50513
246.85625,1.51606
246.61518,1.53109
246.37411,1.55078
246.13304,1.57441
245.89197,1.60031
245.65090,1.62536
245.40983,1.64905
245.16876,1.67557
244.92769,1.70600
244.68661,1.73543
244.44554,1.75799
244.20447,1.77154
243.96340,1.78397
243.72233,1.80550
243.48126,1.83310
243.24019,1.85280
242.99912,1.85859
242.75805,1.85510
242.51698,1.83635
242.27591,1.78233
242.03484,1.70248
241.79377,1.63290
241.55270,1.58736
241.31163,1.55508
241.07056,1.52145
240.82949,1.48287
240.58842,1.44363
240.34734,1.40807
240.10627,1.37837
239.86520,1.35271
239.62413,1.32690
239.38306,1.29953
239.14199,1.27246
238.90092,1.24620
238.65985,1.21977
238.41878,1.19479
238.17771,1.17444
237.93664,1.15808
237.69557,1.14100
237.45450,1.12117
237.21343,1.10322
236.97236,1.09214
236.73129,1.08590
236.49022,1.07807
236.24915,1.06609
236.00807,1.05239
235.76700,1.03918
235.52593,1.02710
235.28486,1.01708
235.04379,1.00922
234.80272,1.00126
234.56165,0.99177
234.32058,0.98341
234.07951,0.97974
233.83844,0.98025
233.59737,0.98115
233.35630,0.97990
233.11523,0.97633
232.87416,0.96995
232.63309,0.96008
232.39202,0.94778
232.15095,0.93596
231.90988,0.92773
231.66880,0.92463
231.42773,0.92556
231.18666,0.92746
230.94559,0.92757
230.70452,0.92489
230.46345,0.91992
230.22238,0.91382
229.98131,0.90762
229.74024,0.90155
229.49917,0.89588
229.25810,0.89203
229.01703,0.89124
228.77596,0.89210
228.53489,0.89181
228.29382,0.88944
228.05275,0.88531
227.81168,0.87881
227.57061,0.87068
227.32953,0.86432
227.08846,0.86108
226.84739,0.85813
226.60632,0.85371
226.36525,0.84970
226.12418,0.84703
225.88311,0.84425
225.64204,0.84164
225.40097,0.84110
225.15990,0.84252
224.91883,0.84427
224.67776,0.84575
224.43669,0.84651
224.19562,0.84529
223.95455,0.84238
223.71348,0.84045
223.47241,0.84158
223.23134,0.84501
222.99026,0.84885
222.74919,0.85244
222.50812,0.85588
222.26705,0.85891
222.02598,0.86122
221.78491,0.86281
221.54384,0.86386
221.30277,0.86539
221.06170,0.86905
220.82063,0.87478
220.57956,0.88067
220.33849,0.88585
220.09742,0.89140
219.85635,0.89765
219.61528,0.90353
219.37421,0.90912
219.13314,0.91622
218.89207,0.92589
218.65099,0.93716
218.40992,0.94797
218.16885,0.95711
217.92778,0.96505
217.68671,0.97325
217.44564,0.98273
217.20457,0.99317
216.96350,1.00344
216.72243,1.01329
216.48136,1.02381
216.24029,1.03542
215.99922,1.04678
215.75815,1.05651
215.51708,1.06472
215.27601,1.07258
215.03494,1.08197
214.79387,1.09462
214.55280,1.11006
214.31172,1.12509
214.07065,1.13658
213.82958,1.14449
213.58851,1.15134
213.34744,1.15906
213.10637,1.16747
212.86530,1.17591
212.62423,1.18476
212.38316,1.19441
212.14209,1.20393
211.90102,1.21154
211.65995,1.21580
211.41888,1.21709
211.17781,1.21721
210.93674,1.21667
210.69567,1.21396
210.45460,1.20942
210.21353,1.20713
209.97245,1.21015
209.73138,1.21632
209.49031,1.22142
209.24924,1.22375
209.00817,1.22303
208.76710,1.21803
208.52603,1.20882
208.28496,1.20009
208.04389,1.19775
207.80282,1.20099
207.56175,1.20192
207.32068,1.19477
207.07961,1.18228
206.83854,1.17133
206.59747,1.16505
206.35640,1.16041
206.11533,1.15306
205.87426,1.14266
205.63318,1.13213
205.39211,1.12341
205.15104,1.11518
204.90997,1.10412
204.66890,1.08832
204.42783,1.07017
204.18676,1.05482
203.94569,1.04529
203.70462,1.04067
203.46355,1.03817
203.22248,1.03430
202.98141,1.02559
202.74034,1.01155
202.49927,0.99639
202.25820,0.98408
202.01713,0.97343
201.77606,0.96055
201.53499,0.94510
201.29391,0.93117
201.05284,0.92170
200.81177,0.91539
200.57070,0.90888
200.32963,0.90003
200.08856,0.88932
199.84749,0.87851
199.60642,0.86777
199.36535,0.85553
199.12428,0.84207
198.88321,0.83058
198.64214,0.82280
198.40107,0.81583
198.16000,0.80555
197.91893,0.79200
197.67786,0.77939
197.43679,0.77113
197.19572,0.76626
196.95464,0.76092
196.71357,0.75303
196.47250,0.74463
196.23143,0.73863
195.99036,0.73434
195.74929,0.72836
195.50822,0.71907
195.26715,0.70860
195.02608,0.69997
194.78501,0.69411
194.54394,0.68973
194.30287,0.68512
194.06180,0.67970
193.82073,0.67382
193.57966,0.66764
193.33859,0.66121
193.09752,0.65525
192.85645,0.65059
192.61537,0.64681
192.37430,0.64266
192.13323,0.63757
191.89216,0.63208
191.65109,0.62690
191.41002,0.62195
191.16895,0.61692
190.92788,0.61290
190.68681,0.61176
190.44574,0.61288
190.20467,0.61256
189.96360,0.60844
189.72253,0.60273
189.48146,0.59891
189.24039,0.59725
188.99932,0.59562
188.75825,0.59313
188.51718,0.59086
188.27610,0.58902
188.03503,0.58599
187.79396,0.58108
187.55289,0.57627
187.31182,0.57364
187.07075,0.57275
186.82968,0.57180
186.58861,0.57027
186.34754,0.56899
186.10647,0.56835
185.86540,0.56782
185.62433,0.56707
185.38326,0.56641
185.14219,0.56592
184.90112,0.56532
184.66005,0.56475
184.41898,0.56477
184.17791,0.56553
183.93683,0.56671
183.69576,0.56827
183.45469,0.57012
183.21362,0.57133
182.97255,0.57086
182.73148,0.56925
182.49041,0.56797
182.24934,0.56728
182.00827,0.56692
181.76720,0.56783
181.52613,0.57048
181.28506,0.57298
181.04399,0.57378
180.80292,0.57407
180.56185,0.57483
180.32078,0.57505
180.07971,0.57461
179.83864,0.57508
179.59756,0.57702
179.35649,0.57949
179.11542,0.58213
178.87435,0.58577
178.63328,0.59131
178.39221,0.59894
178.15114,0.60796
177.91007,0.61729
177.66900,0.62634
177.42793,0.63527
177.18686,0.64483
176.94579,0.65584
176.70472,0.66833
176.46365,0.68156
176.22258,0.69461
175.98151,0.70671
175.74044,0.71791
175.49937,0.72962
175.25829,0.74345
175.01722,0.75933
174.77615,0.77612
174.53508,0.79316
174.29401,0.81024
174.05294,0.82679
173.81187,0.84261
173.57080,0.85795
173.32973,0.87203
173.08866,0.88283
172.84759,0.88989
172.60652,0.89597
172.36545,0.90372
172.12438,0.91166
171.88331,0.91562
171.64224,0.91387
171.40117,0.90909
171.16010,0.90521
170.91902,0.90349
170.67795,0.90198
170.43688,0.89862
170.19581,0.89430
169.95474,0.89099
169.71367,0.88829
169.47260,0.88391
169.23153,0.87693
168.99046,0.86914
168.74939,0.86292
168.50832,0.85847
168.26725,0.85392
168.02618,0.84839
167.78511,0.84363
167.54404,0.84150
167.30297,0.84164
167.06190,0.84252
166.82083,0.84372
166.57975,0.84572
166.33868,0.84835
166.09761,0.85115
165.85654,0.85485
165.61547,0.86059
165.37440,0.86760
165.13333,0.87360
164.89226,0.87769
164.65119,0.88180
164.41012,0.88903
164.16905,0.90118
163.92798,0.91742
163.68691,0.93396
163.44584,0.94557
163.20477,0.94991
162.96370,0.95033
162.72263,0.95291
162.48156,0.96150
162.24048,0.97556
161.99941,0.99056
161.75834,0.99995
161.51727,1.00019
161.27620,0.99433
161.03513,0.98906
160.79406,0.98844
160.55299,0.99103
160.31192,0.99260
160.07085,0.99092
159.82978,0.98703
159.58871,0.98287
159.34764,0.97894
159.10657,0.97470
158.86550,0.97017
158.62443,0.96629
158.38336,0.96352
158.14229,0.96066
157.90121,0.95605
157.66014,0.95023
157.41907,0.94598
157.17800,0.94512
156.93693,0.94640
156.69586,0.94688
156.45479,0.94435
156.21372,0.93807
155.97265,0.92866
155.73158,0.91904
155.49051,0.91338
155.24944,0.91218
155.00837,0.91055
154.76730,0.90372
154.52623,0.89236
154.28516,0.88079
154.04409,0.87183
153.80302,0.86463
153.56194,0.85576
153.32087,0.84271
153.07980,0.82669
152.83873,0.81101
152.59766,0.79747
152.35659,0.78511
152.11552,0.77174
151.87445,0.75635
151.63338,0.74015
151.39231,0.72568
151.15124,0.71472
150.91017,0.70615
150.66910,0.69622
150.42803,0.68260
150.18696,0.66761
149.94589,0.65531
149.70482,0.64655
149.46375,0.63902
149.22267,0.63080
148.98160,0.62202
148.74053,0.61342
148.49946,0.60495
148.25839,0.59622
148.01732,0.58782
147.77625,0.58115
147.53518,0.57689
147.29411,0.57422
147.05304,0.57191
146.81197,0.56977
146.57090,0.56884
146.32983,0.56988
146.08876,0.57205
145.84769,0.57365
145.60662,0.57450
145.36555,0.57631
145.12448,0.58035
144.88340,0.58569
144.64233,0.59046
144.40126,0.59376
144.16019,0.59603
143.91912,0.59779
143.67805,0.59856
143.43698,0.59704
143.19591,0.59243
142.95484,0.58533
142.71377,0.57731
142.47270,0.56943
142.23163,0.56160
141.99056,0.55320
141.74949,0.54421
141.50842,0.53555
141.26735,0.52856
141.02628,0.52380
140.78521,0.52051
140.54413,0.51747
140.30306,0.51451
140.06199,0.51243
139.82092,0.51162
139.57985,0.51164
139.33878,0.51208
139.09771,0.51330
138.85664,0.51609
138.61557,0.52076
138.37450,0.52693
138.13343,0.53425
137.89236,0.54276
137.65129,0.55244
137.41022,0.56325
137.16915,0.57561
136.92808,0.58992
136.68701,0.60585
136.44594,0.62280
136.20486,0.64055
135.96379,0.65925
135.72272,0.67929
135.48165,0.70157
135.24058,0.72667
134.99951,0.75383
134.75844,0.78124
134.51737,0.80719
134.27630,0.83141
134.03523,0.85552
133.79416,0.88115
133.55309,0.90714
133.31202,0.93059
133.07095,0.95087
132.82988,0.96988
132.58881,0.98761
132.34774,1.00064
132.10667,1.00601
131.86559,1.00405
131.62452,0.99687
131.38345,0.98648
131.14238,0.97412
130.90131,0.95989
130.66024,0.94324
130.41917,0.92493
130.17810,0.90713
129.93703,0.88979
129.69596,0.86925
129.45489,0.84339
129.21382,0.81552
128.97275,0.79035
128.73168,0.76876
128.49061,0.74878
128.24954,0.72914
128.00847,0.71017
127.76740,0.69230
127.52632,0.67544
127.28525,0.65889
127.04418,0.64172
126.80311,0.62411
126.56204,0.60778
126.32097,0.59395
126.07990,0.58167
125.83883,0.56906
125.59776,0.55547
125.35669,0.54165
125.11562,0.52825
124.87455,0.51554
124.63348,0.50416
124.39241,0.49516
124.15134,0.48891
123.91027,0.48445
123.66920,0.48026
123.42812,0.47554
123.18705,0.47042
122.94598,0.46515
122.70491,0.45974
122.46384,0.45458
122.22277,0.45046
121.98170,0.44773
121.74063,0.44624
121.49956,0.44644
121.25849,0.44919
121.01742,0.45427
120.77635,0.46019
120.53528,0.46602
120.29421,0.47269
120.05314,0.48192
119.81207,0.49439
119.57100,0.50975
119.32993,0.52802
119.08885,0.54980
118.84778,0.57443
118.60671,0.59922
118.36564,0.62160
118.12457,0.64160
117.88350,0.66146
117.64243,0.68326
117.40136,0.70700
117.16029,0.73037
116.91922,0.74987
116.67815,0.76267
116.43708,0.76812
116.19601,0.76721
115.95494,0.76051
115.71387,0.74759
115.47280,0.72929
115.23173,0.70935
114.99066,0.69266
114.74958,0.68229
114.50851,0.67835
114.26744,0.67800
114.02637,0.67716
113.78530,0.67396
113.54423,0.66998
113.30316,0.66732
113.06209,0.66684
112.82102,0.66918
112.57995,0.67463
112.33888,0.68204
112.09781,0.69017
111.85674,0.69954
111.61567,0.71098
111.37460,0.72310
111.13353,0.73281
110.89246,0.73812
110.65139,0.74063
110.41031,0.74385
110.16924,0.74743
109.92817,0.74522
109.68710,0.73282
109.44603,0.71446
109.20496,0.69708
108.96389,0.68141
108.72282,0.66490
108.48175,0.64891
108.24068,0.63638
107.99961,0.62504
107.75854,0.60893
107.51747,0.58629
107.27640,0.56174
107.03533,0.54084
106.79426,0.52584
106.55319,0.51569
106.31212,0.50766
106.07104,0.49849
105.82997,0.48550
105.58890,0.46847
105.34783,0.45096
105.10676,0.43784
104.86569,0.43076
104.62462,0.42646
104.38355,0.41970
104.14248,0.40786
103.90141,0.39330
103.66034,0.38103
103.41927,0.37412
103.17820,0.37118
102.93713,0.36786
102.69606,0.36111
102.45499,0.35219
102.21392,0.34509
101.97285,0.34235
101.73177,0.34258
101.49070,0.34160
101.24963,0.33665
101.00856,0.32946
100.76749,0.32366
100.52642,0.32012
100.28535,0.31614
100.04428,0.30905
99.80321,0.29992
99.56214,0.29282
99.32107,0.29043
99.08000,0.29085
98.83893,0.28907
98.59786,0.28298
98.35679,0.27618
98.11572,0.27318
97.87465,0.27424
97.63358,0.27605
97.39250,0.27669
97.15143,0.27779
96.91036,0.28104
96.66929,0.28500
96.42822,0.28719
96.18715,0.28862
95.94608,0.29292
95.70501,0.30095
95.46394,0.30920
95.22287,0.31457
94.98180,0.31857
94.74073,0.32398
94.49966,0.32988
94.25859,0.33338
94.01752,0.33460
93.77645,0.33622
93.53538,0.33870
93.29431,0.33967
93.05323,0.33844
92.81216,0.33755
92.57109,0.33800
92.33002,0.33703
92.08895,0.33389
91.84788,0.33312
91.60681,0.33758
91.36574,0.34440
91.12467,0.35194
90.88360,0.36396
90.64253,0.38301
90.40146,0.40781
90.16039,0.43901
89.91932,0.47818
89.67825,0.52120
89.43718,0.56204
89.19611,0.60034
88.95504,0.63615
88.71396,0.66346
88.47289,0.67582
88.23182,0.67189
87.99075,0.65381
87.74968,0.62537
87.50861,0.59127
87.26754,0.55617
87.02647,0.52364
86.78540,0.49493
86.54433,0.46961
86.30326,0.44740
86.06219,0.42769
85.82112,0.40863
85.58005,0.38899
85.33898,0.36935
85.09791,0.35047
84.85684,0.33254
84.61577,0.31628
84.37469,0.30291
84.13362,0.29283
83.89255,0.28516
83.65148,0.27866
83.41041,0.27294
83.16934,0.26820
82.92827,0.26412
82.68720,0.26002
82.44613,0.25602
82.20506,0.25256
81.96399,0.24948
81.72292,0.24647
81.48185,0.24371
81.24078,0.24145
80.99971,0.23949
80.75864,0.23732
80.51757,0.23462
80.27650,0.23165
80.03542,0.22881
79.79435,0.22602
79.55328,0.22310
79.31221,0.22044
79.07114,0.21850
78.83007,0.21704
78.58900,0.21539
78.34793,0.21318
78.10686,0.21033
77.86579,0.20679
77.62472,0.20261
77.38365,0.19817
77.14258,0.19422
76.90151,0.19161
76.66044,0.19081
76.41937,0.19129
76.17830,0.19168
75.93723,0.19037
75.69615,0.18653
75.45508,0.18072
75.21401,0.17478
74.97294,0.17071
74.73187,0.16939
74.49080,0.17026
74.24973,0.17238
74.00866,0.17550
73.76759,0.17956
73.52652,0.18366
73.28545,0.18657
73.04438,0.18796
72.80331,0.18853
72.56224,0.18937
72.32117,0.19126
72.08010,0.19407
71.83903,0.19652
71.59796,0.19719
71.35688,0.19544
71.11581,0.19202
70.87474,0.18929
70.63367,0.19067
70.39260,0.19863
70.15153,0.21334
69.91046,0.23284
69.66939,0.25377
69.42832,0.27187
69.18725,0.28298
68.94618,0.28437
68.70511,0.27560
68.46404,0.25890
68.22297,0.23878
67.98190,0.22018
67.74083,0.20618
67.49976,0.19729
67.25869,0.19203
67.01761,0.18774
66.77654,0.18217
66.53547,0.17531
66.29440,0.16919
66.05333,0.16541
65.81226,0.16404
65.57119,0.16474
65.33012,0.16785
65.08905,0.17403
64.84798,0.18332
64.60691,0.19454
64.36584,0.20545
64.12477,0.21344
63.88370,0.21614
63.64263,0.21228
63.40156,0.20302
63.16049,0.19171
62.91942,0.18157
62.67834,0.17391
62.43727,0.16890
62.19620,0.16636
61.95513,0.16546
61.71406,0.16468
61.47299,0.16317
61.23192,0.16170
60.99085,0.16214
60.74978,0.16611
60.50871,0.17343
60.26764,0.18157
60.02657,0.18695
59.78550,0.18727
59.54443,0.18264
59.30336,0.17490
59.06229,0.16607
58.82122,0.15773
58.58015,0.15215
58.33907,0.15277
58.09800,0.16180
57.85693,0.17740
57.61586,0.19349
57.37479,0.20140
57.13372,0.19475
56.89265,0.17601
56.65158,0.15435
56.41051,0.13808
56.16944,0.13175
55.92837,0.13623
55.68730,0.14869
55.44623,0.16340
55.20516,0.17352
54.96409,0.17392
54.72302,0.16513
54.48195,0.15371
54.24088,0.14756
53.99980,0.15174
53.75873,0.16616
53.51766,0.18343
53.27659,0.19063
53.03552,0.18112
52.79445,0.16337
52.55338,0.15205
52.31231,0.15753
52.07124,0.18017
51.83017,0.20286
51.58910,0.19921
51.34803,0.17076
51.10696,0.14517
50.86589,0.14236
50.62482,0.16433
50.38375,0.19275
50.14268,0.19985
49.90161,0.18707
49.66053,0.18103
49.41946,0.19532
49.17839,0.21576
48.93732,0.21199
48.69625,0.18813
48.45518,0.17799
48.21411,0.19269
47.97304,0.21014
47.73197,0.20380
47.49090,0.18695
47.24983,0.18668
47.00876,0.19648
46.76769,0.18669
46.52662,0.16184
46.28555,0.15273
46.04448,0.16113
45.80341,0.16385
45.56234,0.15864
45.32126,0.16419
45.08019,0.17763
44.83912,0.18061
44.59805,0.17640
44.35698,0.17739
44.11591,0.17750
43.87484,0.16989
43.63377,0.16400
43.39270,0.16673
43.15163,0.17376
42.91056,0.18022
42.66949,0.18569
42.42842,0.19102
42.18735,0.19526
41.94628,0.19477
41.70521,0.18842
41.46414,0.18159
41.22307,0.18038
40.98199,0.18614
40.74092,0.19586
40.49985,0.20365
40.25878,0.20505
40.01771,0.20296
39.77664,0.20335
39.53557,0.20688
39.29450,0.21141
39.05343,0.21722
38.81236,0.22584
38.57129,0.23808
38.33022,0.25401
38.08915,0.27238
37.84808,0.28814
37.60701,0.29224
37.36594,0.28092
37.12487,0.26334
36.88380,0.25050
36.64272,0.24213
36.40165,0.23211
36.16058,0.22041
35.91951,0.21264
35.67844,0.21102
35.43737,0.21099
35.19630,0.20606
34.95523,0.19351
34.71416,0.17690
34.47309,0.16473
34.23202,0.16353
33.99095,0.16950
33.74988,0.17117
33.50881,0.16304
33.26774,0.15001
33.02667,0.13770
32.78560,0.12673
32.54453,0.11698
32.30345,0.11111
32.06238,0.11048
31.82131,0.10988
31.58024,0.10195
31.33917,0.08699
31.09810,0.07220
30.85703,0.06147
30.61596,0.05212
30.37489,0.04159
30.13382,0.03128
29.89275,0.02247
29.65168,0.01177
29.41061,-0.00681
29.16954,-0.03502
28.92847,-0.06643
28.68740,-0.08919
28.44633,-0.09296
28.20526,-0.08008
27.96418,-0.07024
27.72311,-0.08426
27.48204,-0.12059
27.24097,-0.15693
26.99990,-0.17394
26.75883,-0.16968
26.51776,-0.15748
26.27669,-0.15528
26.03562,-0.17275
25.79455,-0.20602
25.55348,-0.24284
25.31241,-0.26953
25.07134,-0.27534
24.83027,-0.26184
24.58920,-0.24754
24.34813,-0.25101
24.10706,-0.27248
23.86599,-0.29499
23.62491,-0.30382
23.38384,-0.30043
23.14277,-0.29389
22.90170,-0.29012
22.66063,-0.29110
22.41956,-0.29399
22.17849,-0.29560
21.93742,-0.29765
21.69635,-0.30226
21.45528,-0.30804
21.21421,-0.31410
20.97314,-0.32061
20.73207,-0.32335
20.49100,-0.31690
20.24993,-0.30255
20.00886,-0.28638
19.76779,-0.27414
19.52672,-0.27056
19.28564,-0.27835
19.04457,-0.29792
18.80350,-0.32510
18.56243,-0.35080
18.32136,-0.36823
18.08029,-0.37415
17.83922,-0.36999
17.59815,-0.36615
17.35708,-0.37182
17.11601,-0.37921
16.87494,-0.37407
16.63387,-0.36043
16.39280,-0.34837
16.15173,-0.33439
15.91066,-0.31702
15.66959,-0.30609
15.42852,-0.31004
15.18745,-0.32526
14.94637,-0.33801
14.70530,-0.34062
14.46423,-0.33887
14.22316,-0.34014
13.98209,-0.34442
13.74102,-0.34941
13.49995,-0.35493
13.25888,-0.35728
13.01781,-0.35314
12.77674,-0.35000
12.53567,-0.35449
12.29460,-0.35721
12.05353,-0.34596
11.81246,-0.32594
11.57139,-0.31445
11.33032,-0.32232
11.08925,-0.34402
10.84818,-0.36362
10.60710,-0.37156
10.36603,-0.36904
10.12496,-0.35747
9.88389,-0.33894
9.64282,-0.32253
9.40175,-0.31887
9.16068,-0.33129
8.91961,-0.35210
8.67854,-0.36771
8.43747,-0.37266
8.19640,-0.37108
7.95533,-0.36509
7.71426,-0.35825
7.47319,-0.35837
7.23212,-0.36569
6.99105,-0.37194
6.74998,-0.37082
6.50891,-0.35950
6.26783,-0.34150
6.02676,-0.33003
5.78569,-0.33231
5.54462,-0.34137
5.30355,-0.34823
5.06248,-0.35039
4.82141,-0.35210
4.58034,-0.36048
4.33927,-0.37280
4.09820,-0.37846
3.85713,-0.37781
3.61606,-0.37710
3.37499,-0.37346
3.13392,-0.36759
2.89285,-0.36756
2.65178,-0.37102
2.41071,-0.37184
2.16964,-0.37350
1.92856,-0.37303
1.68749,-0.36643
1.44642,-0.35945
1.20535,-0.35275
0.96428,-0.34754
0.72321,-0.36947
0.48214,-0.45658
0.24107,-0.48356
-0.00000,-0.10880
