399.69498,1.40610
399.45391,1.39377
399.21284,1.38744
398.97177,1.39545
398.73070,1.41729
398.48963,1.44116
398.24856,1.45300
398.00749,1.45079
397.76642,1.44604
397.52535,1.44875
397.28428,1.45752
397.04321,1.46451
396.80214,1.46530
396.56107,1.46197
396.32000,1.45628
396.07892,1.44610
395.83785,1.43157
395.59678,1.41856
395.35571,1.41677
395.11464,1.43187
394.87357,1.45586
394.63250,1.47273
394.39143,1.47624
394.15036,1.47355
393.90929,1.47371
393.66822,1.48091
393.42715,1.49212
393.18608,1.49796
392.94501,1.49621
392.70394,1.49399
392.46287,1.49548
392.22180,1.49986
391.98073,1.50420
391.73965,1.50448
391.49858,1.49662
391.25751,1.48260
391.01644,1.47189
390.77537,1.46953
390.53430,1.47008
390.29323,1.46685
390.05216,1.45873
389.81109,1.44750
389.57002,1.43646
389.32895,1.42864
389.08788,1.42349
388.84681,1.41980
388.60574,1.42086
388.36467,1.43019
388.12360,1.44354
387.88253,1.45149
387.64146,1.44870
387.40038,1.43704
387.15931,1.42237
386.91824,1.41026
386.67717,1.40512
386.43610,1.40612
386.19503,1.40691
385.95396,1.40650
385.71289,1.40826
385.47182,1.41003
385.23075,1.40390
384.98968,1.38916
384.74861,1.37549
384.50754,1.36837
384.26647,1.36336
384.02540,1.35465
383.78433,1.34189
383.54326,1.32593
383.30219,1.30307
383.06111,1.27173
382.82004,1.24200
382.57897,1.22813
382.33790,1.23210
382.09683,1.24148
381.85576,1.24480
381.61469,1.24218
381.37362,1.24090
381.13255,1.24597
380.89148,1.25480
380.65041,1.26031
380.40934,1.25679
380.16827,1.24362
379.92720,1.22664
379.68613,1.21718
379.44506,1.22444
379.20399,1.24299
378.96292,1.25549
378.72184,1.25516
378.48077,1.25351
378.23970,1.26063
377.99863,1.27533
377.75756,1.29330
377.51649,1.31061
377.27542,1.32165
377.03435,1.32439
376.79328,1.32363
376.55221,1.32458
376.31114,1.32853
376.07007,1.33213
375.82900,1.33172
375.58793,1.32950
375.34686,1.32968
375.10579,1.33187
374.86472,1.32906
374.62365,1.31685
374.38257,1.30431
374.14150,1.30371
373.90043,1.31379
373.65936,1.32250
373.41829,1.32387
373.17722,1.32302
372.93615,1.32325
372.69508,1.31879
372.45401,1.30452
372.21294,1.28438
371.97187,1.26587
371.73080,1.25407
371.48973,1.25168
371.24866,1.25731
371.00759,1.26257
370.76652,1.25862
370.52545,1.24804
370.28437,1.24064
370.04330,1.23755
369.80223,1.22992
369.56116,1.21373
369.32009,1.19693
369.07902,1.18960
368.83795,1.19396
368.59688,1.20281
368.35581,1.20512
368.11474,1.19671
367.87367,1.18532
367.63260,1.18062
367.39153,1.18251
367.15046,1.18350
366.90939,1.17916
366.66832,1.17083
366.42725,1.16127
366.18618,1.15303
365.94510,1.14812
365.70403,1.14732
365.46296,1.15049
365.22189,1.15595
364.98082,1.15976
364.73975,1.15839
364.49868,1.15268
364.25761,1.14681
364.01654,1.14343
363.77547,1.14107
363.53440,1.13638
363.29333,1.12886
363.05226,1.12149
362.81119,1.11639
362.57012,1.11401
362.32905,1.11552
362.08798,1.12075
361.84691,1.12561
361.60583,1.12703
361.36476,1.12708
361.12369,1.12739
360.88262,1.12503
360.64155,1.11744
360.40048,1.10681
360.15941,1.09714
359.91834,1.09045
359.67727,1.08653
359.43620,1.08506
359.19513,1.08690
358.95406,1.09231
358.71299,1.09825
358.47192,1.10090
358.23085,1.10026
357.98978,1.09883
357.74871,1.09799
357.50764,1.09850
357.26656,1.10062
357.02549,1.10201
356.78442,1.09998
356.54335,1.09651
356.30228,1.09581
356.06121,1.09832
355.82014,1.10176
355.57907,1.10475
355.33800,1.10580
355.09693,1.10327
354.85586,1.09850
354.61479,1.09463
354.37372,1.09332
354.13265,1.09522
353.89158,1.09985
353.65051,1.10415
353.40944,1.10494
353.16837,1.10205
352.92729,1.09804
352.68622,1.09684
352.44515,1.10099
352.20408,1.10808
351.96301,1.11351
351.72194,1.11661
351.48087,1.11824
351.23980,1.11647
350.99873,1.11179
350.75766,1.10986
350.51659,1.11354
350.27552,1.11892
350.03445,1.12164
349.79338,1.12189
349.55231,1.12194
349.31124,1.12286
349.07017,1.12493
348.82910,1.12819
348.58802,1.13176
348.34695,1.13340
348.10588,1.13127
347.86481,1.12669
347.62374,1.12313
347.38267,1.12255
347.14160,1.12479
346.90053,1.12963
346.65946,1.13723
346.41839,1.14738
346.17732,1.15807
345.93625,1.16575
345.69518,1.16799
345.45411,1.16527
345.21304,1.16130
344.97197,1.16226
344.73090,1.17172
344.48983,1.18493
344.24875,1.19245
344.00768,1.19134
343.76661,1.18780
343.52554,1.18850
343.28447,1.19402
343.04340,1.20048
342.80233,1.20540
342.56126,1.21121
342.32019,1.22102
342.07912,1.23268
341.83805,1.24050
341.59698,1.24267
341.35591,1.24320
341.11484,1.24636
340.87377,1.25246
340.63270,1.25928
340.39163,1.26452
340.15056,1.26657
339.90948,1.26589
339.66841,1.26739
339.42734,1.27758
339.18627,1.29681
338.94520,1.31572
338.70413,1.32500
338.46306,1.32818
338.22199,1.33602
337.98092,1.35017
337.73985,1.36159
337.49878,1.36337
337.25771,1.35706
337.01664,1.34838
336.77557,1.34312
336.53450,1.34326
336.29343,1.34399
336.05236,1.33964
335.81129,1.33126
335.57021,1.32564
335.32914,1.32759
335.08807,1.33483
334.84700,1.34131
334.60593,1.34559
334.36486,1.35179
334.12379,1.35899
333.88272,1.35811
333.64165,1.34259
333.40058,1.31772
333.15951,1.29483
332.91844,1.28139
332.67737,1.27684
332.43630,1.27489
332.19523,1.27085
331.95416,1.26589
331.71309,1.26271
331.47202,1.26087
331.23094,1.25802
330.98987,1.25277
330.74880,1.24684
330.50773,1.24423
330.26666,1.24652
330.02559,1.24950
329.78452,1.24676
329.54345,1.23708
329.30238,1.22584
329.06131,1.21844
328.82024,1.21388
328.57917,1.20927
328.33810,1.20722
328.09703,1.21138
327.85596,1.21863
327.61489,1.22183
327.37382,1.21874
327.13275,1.21377
326.89167,1.21195
326.65060,1.21494
326.40953,1.22109
326.16846,1.22585
325.92739,1.22558
325.68632,1.22365
325.44525,1.22631
325.20418,1.23442
324.96311,1.24398
324.72204,1.25110
324.48097,1.25305
324.23990,1.24910
323.99883,1.24351
323.75776,1.24229
323.51669,1.24525
323.27562,1.24797
323.03455,1.24896
322.79348,1.24945
322.55240,1.25126
322.31133,1.25544
322.07026,1.25865
321.82919,1.25663
321.58812,1.25323
321.34705,1.25892
321.10598,1.27558
320.86491,1.28886
320.62384,1.28541
320.38277,1.27098
320.14170,1.26016
319.90063,1.25871
319.65956,1.26274
319.41849,1.26606
319.17742,1.26354
318.93635,1.25458
318.69528,1.24786
318.45421,1.25271
318.21313,1.26593
317.97206,1.27607
317.73099,1.27877
317.48992,1.27917
317.24885,1.28150
317.00778,1.28563
316.76671,1.28904
316.52564,1.28611
316.28457,1.27377
316.04350,1.25917
315.80243,1.25287
315.56136,1.25831
315.32029,1.27211
315.07922,1.28929
314.83815,1.30310
314.59708,1.30454
314.35601,1.29168
314.11494,1.27578
313.87386,1.26964
313.63279,1.27596
313.39172,1.29112
313.15065,1.31042
312.90958,1.32687
312.66851,1.33464
312.42744,1.33570
312.18637,1.33505
311.94530,1.33294
311.70423,1.32753
311.46316,1.32021
311.22209,1.31586
310.98102,1.32034
310.73995,1.33574
310.49888,1.35487
310.25781,1.36440
310.01674,1.35704
309.77567,1.33945
309.53459,1.32559
309.29352,1.32208
309.05245,1.32500
308.81138,1.33039
308.57031,1.33931
308.32924,1.35051
308.08817,1.35884
307.84710,1.36308
307.60603,1.36568
307.36496,1.36570
307.12389,1.36065
306.88282,1.35230
306.64175,1.34598
306.40068,1.34649
306.15961,1.35372
305.91854,1.36170
305.67747,1.36435
305.43640,1.36024
305.19532,1.35076
304.95425,1.33831
304.71318,1.32658
304.47211,1.31991
304.23104,1.32025
303.98997,1.32371
303.74890,1.32222
303.50783,1.31173
303.26676,1.29660
303.02569,1.28379
302.78462,1.27672
302.54355,1.27544
302.30248,1.27866
302.06141,1.28364
301.82034,1.28454
301.57927,1.27536
301.33820,1.25825
301.09713,1.24389
300.85605,1.24111
300.61498,1.24618
300.37391,1.24555
300.13284,1.23241
299.89177,1.21426
299.65070,1.20131
299.40963,1.19557
299.16856,1.19267
298.92749,1.18900
298.68642,1.18449
298.44535,1.17992
298.20428,1.17458
297.96321,1.16747
297.72214,1.15957
297.48107,1.15332
297.24000,1.14978
296.99893,1.14716
296.75786,1.14286
296.51678,1.13651
296.27571,1.13028
296.03464,1.12635
295.79357,1.12433
295.55250,1.12177
295.31143,1.11723
295.07036,1.11205
294.82929,1.10846
294.58822,1.10698
294.34715,1.10593
294.10608,1.10286
293.86501,1.09679
293.62394,1.08972
293.38287,1.08501
293.14180,1.08359
292.90073,1.08324
292.65966,1.08174
292.41859,1.07875
292.17751,1.07417
291.93644,1.06769
291.69537,1.06080
291.45430,1.05674
291.21323,1.05743
290.97216,1.06135
290.73109,1.06434
290.49002,1.06264
290.24895,1.05626
290.00788,1.04893
289.76681,1.04383
289.52574,1.04055
289.28467,1.03720
289.04360,1.03341
288.80253,1.03016
288.56146,1.02848
288.32039,1.02862
288.07932,1.02909
287.83824,1.02759
287.59717,1.02433
287.35610,1.02211
287.11503,1.02236
286.87396,1.02381
286.63289,1.02541
286.39182,1.02710
286.15075,1.02795
285.90968,1.02694
285.66861,1.02516
285.42754,1.02407
285.18647,1.02300
284.94540,1.02054
284.70433,1.01690
284.46326,1.01334
284.22219,1.01096
283.98112,1.01073
283.74005,1.01273
283.49897,1.01544
283.25790,1.01700
283.01683,1.01715
282.77576,1.01729
282.53469,1.01797
282.29362,1.01727
282.05255,1.01341
281.81148,1.00825
281.57041,1.00561
281.32934,1.00647
281.08827,1.00851
280.84720,1.00995
280.60613,1.01088
280.36506,1.01177
280.12399,1.01264
279.88292,1.01322
279.64185,1.01304
279.40078,1.01273
279.15970,1.01472
278.91863,1.02054
278.67756,1.02715
278.43649,1.02866
278.19542,1.02362
277.95435,1.01768
277.71328,1.01636
277.47221,1.01898
277.23114,1.02190
276.99007,1.02376
276.74900,1.02475
276.50793,1.02372
276.26686,1.02023
276.02579,1.01696
275.78472,1.01686
275.54365,1.01983
275.30258,1.02356
275.06151,1.02602
274.82043,1.02686
274.57936,1.02735
274.33829,1.02900
274.09722,1.03158
273.85615,1.03304
273.61508,1.03228
273.37401,1.03129
273.13294,1.03333
272.89187,1.03985
272.65080,1.04919
272.40973,1.05730
272.16866,1.06023
271.92759,1.05761
271.68652,1.05292
271.44545,1.04993
271.20438,1.05073
270.96331,1.05598
270.72224,1.06418
270.48116,1.07161
270.24009,1.07584
269.99902,1.07820
269.75795,1.08123
269.51688,1.08564
269.27581,1.09126
269.03474,1.09821
268.79367,1.10561
268.55260,1.11109
268.31153,1.11334
268.07046,1.11450
267.82939,1.11820
267.58832,1.12512
267.34725,1.13271
267.10618,1.13897
266.86511,1.14463
266.62404,1.15189
266.38297,1.16184
266.14189,1.17328
265.90082,1.18360
265.65975,1.19118
265.41868,1.19702
265.17761,1.20349
264.93654,1.21175
264.69547,1.22044
264.45440,1.22762
264.21333,1.23472
263.97226,1.24583
263.73119,1.26183
263.49012,1.27823
263.24905,1.29084
263.00798,1.30138
262.76691,1.31451
262.52584,1.33118
262.28477,1.34925
262.04370,1.36841
261.80262,1.38918
261.56155,1.40947
261.32048,1.42859
261.07941,1.45250
260.83834,1.48704
260.59727,1.52708
260.35620,1.56021
260.11513,1.58172
259.87406,1.59975
259.63299,1.62369
259.39192,1.65329
259.15085,1.68435
258.90978,1.71423
258.66871,1.73802
258.42764,1.75450
258.18657,1.76793
257.94550,1.78052
257.70443,1.79339
257.46335,1.80529
257.22228,1.80824
256.98121,1.79392
256.74014,1.77302
256.49907,1.76602
256.25800,1.77519
256.01693,1.77732
255.77586,1.74927
255.53479,1.70196
255.29372,1.66251
255.05265,1.64216
254.81158,1.63368
254.57051,1.62318
254.32944,1.60399
254.08837,1.58494
253.84730,1.57973
253.60623,1.58683
253.36516,1.58769
253.12408,1.57010
252.88301,1.54542
252.64194,1.52982
252.40087,1.52417
252.15980,1.52134
251.91873,1.51839
251.67766,1.51438
251.43659,1.50829
251.19552,1.50454
250.95445,1.51063
250.71338,1.52571
250.47231,1.53799
250.23124,1.53769
249.99017,1.52801
249.74910,1.51973
249.50803,1.51808
249.26696,1.52072
249.02589,1.52520
248.78481,1.52922
248.54374,1.52898
248.30267,1.52237
248.06160,1.51311
247.82053,1.50800
247.57946,1.50973
247.33839,1.51493
247.09732,1.51950
246.85625,1.52147
246.61518,1.51914
246.37411,1.51355
246.13304,1.51009
245.89197,1.51269
245.65090,1.51934
245.40983,1.52591
245.16876,1.53357
244.92769,1.54742
244.68661,1.56925
244.44554,1.59776
244.20447,1.63417
243.96340,1.68367
243.72233,1.74835
243.48126,1.81752
243.24019,1.86851
242.99912,1.88842
242.75805,1.89703
242.51698,1.90407
242.27591,1.82839
242.03484,1.70472
241.79377,1.59300
241.55270,1.50455
241.31163,1.43803
241.07056,1.38527
240.82949,1.33604
240.58842,1.28550
240.34734,1.23464
240.10627,1.18578
239.86520,1.14055
239.62413,1.10080
239.38306,1.06736
239.14199,1.03837
238.90092,1.01121
238.65985,0.98530
238.41878,0.96157
238.17771,0.94069
237.93664,0.92271
237.69557,0.90683
237.45450,0.89135
237.21343,0.87505
236.97236,0.85878
236.73129,0.84468
236.49022,0.83398
236.24915,0.82602
236.00807,0.81895
235.76700,0.81151
235.52593,0.80379
235.28486,0.79632
235.04379,0.78958
234.80272,0.78426
234.56165,0.78036
234.32058,0.77622
234.07951,0.77060
233.83844,0.76533
233.59737,0.76362
233.35630,0.76538
233.11523,0.76643
232.87416,0.76341
232.63309,0.75758
232.39202,0.75227
232.15095,0.74890
231.90988,0.74728
231.66880,0.74775
231.42773,0.75048
231.18666,0.75338
230.94559,0.75309
230.70452,0.74915
230.46345,0.74505
230.22238,0.74371
229.98131,0.74402
229.74024,0.74349
229.49917,0.74218
229.25810,0.74141
229.01703,0.74090
228.77596,0.73966
228.53489,0.73833
228.29382,0.73837
228.05275,0.73968
227.81168,0.74050
227.57061,0.73949
227.32953,0.73727
227.08846,0.73534
226.84739,0.73439
226.60632,0.73416
226.36525,0.73440
226.12418,0.73514
225.88311,0.73640
225.64204,0.73781
225.40097,0.73903
225.15990,0.74022
224.91883,0.74134
224.67776,0.74146
224.43669,0.74011
224.19562,0.73880
223.95455,0.73949
223.71348,0.74205
223.47241,0.74524
223.23134,0.74923
222.99026,0.75510
222.74919,0.76282
222.50812,0.77140
222.26705,0.77977
222.02598,0.78685
221.78491,0.79232
221.54384,0.79729
221.30277,0.80297
221.06170,0.80950
220.82063,0.81681
220.57956,0.82491
220.33849,0.83312
220.09742,0.84112
219.85635,0.85006
219.61528,0.86160
219.37421,0.87625
219.13314,0.89277
218.89207,0.90876
218.65099,0.92283
218.40992,0.93579
218.16885,0.94848
217.92778,0.96071
217.68671,0.97335
217.44564,0.98839
217.20457,1.00573
216.96350,1.02327
216.72243,1.04015
216.48136,1.05698
216.24029,1.07274
215.99922,1.08464
215.75815,1.09205
215.51708,1.09900
215.27601,1.11129
215.03494,1.13026
214.79387,1.15026
214.55280,1.16422
214.31172,1.17222
214.07065,1.18116
213.82958,1.19554
213.58851,1.21296
213.34744,1.22985
213.10637,1.24653
212.86530,1.26367
212.62423,1.27925
212.38316,1.29123
212.14209,1.29781
211.90102,1.29636
211.65995,1.28861
211.41888,1.28382
211.17781,1.29098
210.93674,1.31024
210.69567,1.33276
210.45460,1.34682
210.21353,1.34553
209.97245,1.33257
209.73138,1.31854
209.49031,1.31139
209.24924,1.31400
209.00817,1.32531
208.76710,1.33788
208.52603,1.33993
208.28496,1.32587
208.04389,1.30090
207.80282,1.27364
207.56175,1.24971
207.32068,1.23219
207.07961,1.22230
206.83854,1.21910
206.59747,1.22011
206.35640,1.22105
206.11533,1.21692
205.87426,1.20573
205.63318,1.18863
205.39211,1.16740
205.15104,1.14478
204.90997,1.12458
204.66890,1.10843
204.42783,1.09435
204.18676,1.07971
203.94569,1.06397
203.70462,1.04788
203.46355,1.03242
203.22248,1.01850
202.98141,1.00534
202.74034,0.99070
202.49927,0.97413
202.25820,0.95732
202.01713,0.93990
201.77606,0.91979
201.53499,0.89796
201.29391,0.87864
201.05284,0.86429
200.81177,0.85312
200.57070,0.84184
200.32963,0.82927
200.08856,0.81625
199.84749,0.80366
199.60642,0.79180
199.36535,0.78071
199.12428,0.77034
198.88321,0.76052
198.64214,0.75067
198.40107,0.74000
198.16000,0.72857
197.91893,0.71740
197.67786,0.70716
197.43679,0.69810
197.19572,0.69080
196.95464,0.68533
196.71357,0.67977
196.47250,0.67178
196.23143,0.66127
195.99036,0.65028
195.74929,0.64042
195.50822,0.63166
195.26715,0.62337
195.02608,0.61583
194.78501,0.60996
194.54394,0.60592
194.30287,0.60259
194.06180,0.59818
193.82073,0.59167
193.57966,0.58415
193.33859,0.57815
193.09752,0.57498
192.85645,0.57323
192.61537,0.57044
192.37430,0.56588
192.13323,0.56087
191.89216,0.55689
191.65109,0.55425
191.41002,0.55201
191.16895,0.54881
190.92788,0.54430
190.68681,0.53982
190.44574,0.53679
190.20467,0.53511
189.96360,0.53379
189.72253,0.53249
189.48146,0.53108
189.24039,0.52890
188.99932,0.52600
188.75825,0.52377
188.51718,0.52314
188.27610,0.52317
188.03503,0.52237
187.79396,0.52031
187.55289,0.51738
187.31182,0.51466
187.07075,0.51381
186.82968,0.51557
186.58861,0.51797
186.34754,0.51834
186.10647,0.51715
185.86540,0.51723
185.62433,0.51916
185.38326,0.52056
185.14219,0.52044
184.90112,0.52088
184.66005,0.52342
184.41898,0.52706
184.17791,0.53023
183.93683,0.53285
183.69576,0.53540
183.45469,0.53727
183.21362,0.53737
182.97255,0.53631
182.73148,0.53621
182.49041,0.53816
182.24934,0.54105
182.00827,0.54349
181.76720,0.54519
181.52613,0.54621
181.28506,0.54661
181.04399,0.54738
180.80292,0.54973
180.56185,0.55341
180.32078,0.55692
180.07971,0.55943
179.83864,0.56162
179.59756,0.56489
179.35649,0.57032
179.11542,0.57771
178.87435,0.58574
178.63328,0.59378
178.39221,0.60287
178.15114,0.61383
177.91007,0.62565
177.66900,0.63717
177.42793,0.64881
177.18686,0.66178
176.94579,0.67652
176.70472,0.69232
176.46365,0.70842
176.22258,0.72511
175.98151,0.74323
175.74044,0.76248
175.49937,0.78191
175.25829,0.80202
175.01722,0.82424
174.77615,0.84859
174.53508,0.87340
174.29401,0.89722
174.05294,0.92017
173.81187,0.94307
173.57080,0.96532
173.32973,0.98444
173.08866,0.99905
172.84759,1.01055
172.60652,1.02078
172.36545,1.03036
172.12438,1.03891
171.88331,1.04454
171.64224,1.04477
171.40117,1.04005
171.16010,1.03350
170.91902,1.02724
170.67795,1.02149
170.43688,1.01640
170.19581,1.01235
169.95474,1.00935
169.71367,1.00664
169.47260,1.00293
169.23153,0.99734
168.99046,0.99002
168.74939,0.98216
168.50832,0.97460
168.26725,0.96604
168.02618,0.95469
167.78511,0.94207
167.54404,0.93207
167.30297,0.92666
167.06190,0.92566
166.82083,0.92942
166.57975,0.93807
166.33868,0.94891
166.09761,0.95807
165.85654,0.96476
165.61547,0.97201
165.37440,0.98274
165.13333,0.99625
164.89226,1.00935
164.65119,1.02027
164.41012,1.03024
164.16905,1.04084
163.92798,1.05134
163.68691,1.06022
163.44584,1.06863
163.20477,1.07985
162.96370,1.09491
162.72263,1.11096
162.48156,1.12528
162.24048,1.13832
161.99941,1.15132
161.75834,1.16316
161.51727,1.17166
161.27620,1.17606
161.03513,1.17734
160.79406,1.17690
160.55299,1.17599
160.31192,1.17473
160.07085,1.17082
159.82978,1.16201
159.58871,1.15055
159.34764,1.14133
159.10657,1.13426
158.86550,1.12335
158.62443,1.10680
158.38336,1.09167
158.14229,1.08482
157.90121,1.08495
157.66014,1.08605
157.41907,1.08589
157.17800,1.08705
156.93693,1.08911
156.69586,1.08552
156.45479,1.07230
156.21372,1.05423
155.97265,1.03810
155.73158,1.02523
155.49051,1.01358
155.24944,1.00286
155.00837,0.99415
154.76730,0.98623
154.52623,0.97523
154.28516,0.95884
154.04409,0.93930
153.80302,0.92097
153.56194,0.90583
153.32087,0.89197
153.07980,0.87516
152.83873,0.85277
152.59766,0.82676
152.35659,0.80164
152.11552,0.78014
151.87445,0.76233
151.63338,0.74702
151.39231,0.73254
151.15124,0.71735
150.91017,0.70069
150.66910,0.68244
150.42803,0.66359
150.18696,0.64635
149.94589,0.63207
149.70482,0.62003
149.46375,0.60915
149.22267,0.59902
148.98160,0.58919
148.74053,0.57935
148.49946,0.57021
148.25839,0.56266
148.01732,0.55660
147.77625,0.55147
147.53518,0.54702
147.29411,0.54320
147.05304,0.54027
146.81197,0.53939
146.57090,0.54178
146.32983,0.54660
146.08876,0.55103
145.84769,0.55352
145.60662,0.55589
145.36555,0.56104
145.12448,0.56916
144.88340,0.57752
144.64233,0.58387
144.40126,0.58877
144.16019,0.59383
143.91912,0.59879
143.67805,0.60153
143.43698,0.59991
143.19591,0.59346
142.95484,0.58352
142.71377,0.57225
142.47270,0.56132
142.23163,0.55146
141.99056,0.54271
141.74949,0.53465
141.50842,0.52654
141.26735,0.51824
141.02628,0.51103
140.78521,0.50682
140.54413,0.50612
140.30306,0.50717
140.06199,0.50757
139.82092,0.50699
139.57985,0.50785
139.33878,0.51299
139.09771,0.52225
138.85664,0.53229
138.61557,0.54074
138.37450,0.54903
138.13343,0.55960
137.89236,0.57222
137.65129,0.58523
137.41022,0.59902
137.16915,0.61562
136.92808,0.63574
136.68701,0.65795
136.44594,0.68070
136.20486,0.70375
135.96379,0.72782
135.72272,0.75419
135.48165,0.78462
135.24058,0.82001
134.99951,0.85923
134.75844,0.90065
134.51737,0.94345
134.27630,0.98638
134.03523,1.02637
133.79416,1.05968
133.55309,1.08412
133.31202,1.10181
133.07095,1.11919
132.82988,1.14116
132.58881,1.16547
132.34774,1.18629
132.10667,1.20096
131.86559,1.20797
131.62452,1.20470
131.38345,1.19061
131.14238,1.16814
130.90131,1.14081
130.66024,1.11125
130.41917,1.07927
130.17810,1.04381
129.93703,1.00637
129.69596,0.96925
129.45489,0.93172
129.21382,0.89129
128.97275,0.84783
128.73168,0.80462
128.49061,0.76543
128.24954,0.73137
128.00847,0.70095
127.76740,0.67243
127.52632,0.64529
127.28525,0.61980
127.04418,0.59637
126.80311,0.57535
126.56204,0.55652
126.32097,0.53911
126.07990,0.52266
125.83883,0.50739
125.59776,0.49340
125.35669,0.48034
125.11562,0.46806
124.87455,0.45725
124.63348,0.44865
124.39241,0.44181
124.15134,0.43554
123.91027,0.42942
123.66920,0.42401
123.42812,0.41986
123.18705,0.41690
122.94598,0.41448
122.70491,0.41217
122.46384,0.41057
122.22277,0.41077
121.98170,0.41265
121.74063,0.41481
121.49956,0.41659
121.25849,0.41911
121.01742,0.42420
120.77635,0.43334
120.53528,0.44712
120.29421,0.46421
120.05314,0.48159
119.81207,0.49749
119.57100,0.51354
119.32993,0.53266
119.08885,0.55631
118.84778,0.58452
118.60671,0.61690
118.36564,0.65268
118.12457,0.69004
117.88350,0.72597
117.64243,0.75709
117.40136,0.78098
117.16029,0.79656
116.91922,0.80375
116.67815,0.80343
116.43708,0.79742
116.19601,0.78800
115.95494,0.77693
115.71387,0.76427
115.47280,0.74885
115.23173,0.73091
114.99066,0.71328
114.74958,0.69829
114.50851,0.68545
114.26744,0.67327
114.02637,0.66192
113.78530,0.65350
113.54423,0.65054
113.30316,0.65390
113.06209,0.66109
112.82102,0.66767
112.57995,0.67192
112.33888,0.67668
112.09781,0.68528
111.85674,0.69736
111.61567,0.71079
111.37460,0.72563
111.13353,0.74329
110.89246,0.76209
110.65139,0.77596
110.41031,0.77861
110.16924,0.76886
109.92817,0.75095
109.68710,0.72984
109.44603,0.70698
109.20496,0.68118
108.96389,0.65264
108.72282,0.62419
108.48175,0.59866
108.24068,0.57719
107.99961,0.55954
107.75854,0.54425
107.51747,0.52922
107.27640,0.51295
107.03533,0.49468
106.79426,0.47424
106.55319,0.45263
106.31212,0.43236
106.07104,0.41656
105.82997,0.40712
105.58890,0.40275
105.34783,0.39931
105.10676,0.39327
104.86569,0.38392
104.62462,0.37165
104.38355,0.35654
104.14248,0.34032
103.90141,0.32700
103.66034,0.31955
103.41927,0.31729
103.17820,0.31724
102.93713,0.31661
102.69606,0.31369
102.45499,0.30800
102.21392,0.30041
101.97285,0.29272
101.73177,0.28664
101.49070,0.28303
101.24963,0.28162
101.00856,0.28077
100.76749,0.27780
100.52642,0.27074
100.28535,0.26063
100.04428,0.25149
99.80321,0.24731
99.56214,0.24921
99.32107,0.25465
99.08000,0.25843
98.83893,0.25619
98.59786,0.24886
98.35679,0.24253
98.11572,0.24261
97.87465,0.24926
97.63358,0.25733
97.39250,0.26070
97.15143,0.25871
96.91036,0.25698
96.66929,0.26110
96.42822,0.27103
96.18715,0.28150
95.94608,0.28796
95.70501,0.29151
95.46394,0.29709
95.22287,0.30751
94.98180,0.31997
94.74073,0.32851
94.49966,0.33103
94.25859,0.33194
94.01752,0.33568
93.77645,0.34047
93.53538,0.34083
93.29431,0.33657
93.05323,0.33415
92.81216,0.33678
92.57109,0.33939
92.33002,0.33761
92.08895,0.33639
91.84788,0.34215
91.60681,0.35230
91.36574,0.36047
91.12467,0.36921
90.88360,0.38702
90.64253,0.41547
90.40146,0.44925
90.16039,0.48637
89.91932,0.52933
89.67825,0.57760
89.43718,0.62799
89.19611,0.67752
88.95504,0.71908
88.71396,0.74433
88.47289,0.75174
88.23182,0.73962
87.99075,0.70400
87.74968,0.65196
87.50861,0.59717
87.26754,0.54500
87.02647,0.49552
86.78540,0.45172
86.54433,0.41662
86.30326,0.38922
86.06219,0.36605
85.82112,0.34384
85.58005,0.32105
85.33898,0.29852
85.09791,0.27838
84.85684,0.26224
84.61577,0.24985
84.37469,0.23938
84.13362,0.22930
83.89255,0.22023
83.65148,0.21381
83.41041,0.21024
83.16934,0.20779
82.92827,0.20400
82.68720,0.19759
82.44613,0.18982
82.20506,0.18356
81.96399,0.18009
81.72292,0.17842
81.48185,0.17753
81.24078,0.17734
80.99971,0.17734
80.75864,0.17645
80.51757,0.17476
80.27650,0.17352
80.03542,0.17291
79.79435,0.17177
79.55328,0.17003
79.31221,0.16938
79.07114,0.17028
78.83007,0.17093
78.58900,0.16996
78.34793,0.16817
78.10686,0.16650
77.86579,0.16475
77.62472,0.16282
77.38365,0.16137
77.14258,0.16098
76.90151,0.16134
76.66044,0.16128
76.41937,0.15970
76.17830,0.15699
75.93723,0.15485
75.69615,0.15420
75.45508,0.15404
75.21401,0.15282
74.97294,0.15091
74.73187,0.15053
74.49080,0.15311
74.24973,0.15740
74.00866,0.16028
73.76759,0.15956
73.52652,0.15619
73.28545,0.15365
73.04438,0.15499
72.80331,0.16006
72.56224,0.16537
72.32117,0.16733
72.08010,0.16593
71.83903,0.16439
71.59796,0.16508
71.35688,0.16765
71.11581,0.17072
70.87474,0.17334
70.63367,0.17513
70.39260,0.17712
70.15153,0.18236
69.91046,0.19484
69.66939,0.21704
69.42832,0.24673
69.18725,0.27478
68.94618,0.28862
68.70511,0.28183
68.46404,0.25935
68.22297,0.23138
67.98190,0.20556
67.74083,0.18553
67.49976,0.17243
67.25869,0.16531
67.01761,0.16138
66.77654,0.15788
66.53547,0.15393
66.29440,0.14989
66.05333,0.14605
65.81226,0.14303
65.57119,0.14259
65.33012,0.14661
65.08905,0.15577
64.84798,0.16929
64.60691,0.18509
64.36584,0.20024
64.12477,0.21161
63.88370,0.21659
63.64263,0.21434
63.40156,0.20644
63.16049,0.19567
62.91942,0.18404
62.67834,0.17263
62.43727,0.16232
62.19620,0.15374
61.95513,0.14686
61.71406,0.14099
61.47299,0.13545
61.23192,0.13007
60.99085,0.12491
60.74978,0.12036
60.50871,0.11763
60.26764,0.11793
60.02657,0.12107
59.78550,0.12589
59.54443,0.13177
59.30336,0.13874
59.06229,0.14657
58.82122,0.15480
58.58015,0.16289
58.33907,0.17011
58.09800,0.17574
57.85693,0.17945
57.61586,0.18089
57.37479,0.17922
57.13372,0.17403
56.89265,0.16607
56.65158,0.15587
56.41051,0.14338
56.16944,0.13032
55.92837,0.12083
55.68730,0.11841
55.44623,0.12385
55.20516,0.13601
54.96409,0.15277
54.72302,0.17094
54.48195,0.18717
54.24088,0.19815
53.99980,0.19898
53.75873,0.18642
53.51766,0.16475
53.27659,0.14300
53.03552,0.12854
52.79445,0.12505
52.55338,0.13364
52.31231,0.15373
52.07124,0.18046
51.83017,0.19977
51.58910,0.19582
51.34803,0.17039
51.10696,0.13973
50.86589,0.11907
50.62482,0.11770
50.38375,0.13852
50.14268,0.17591
49.90161,0.20611
49.66053,0.19503
49.41946,0.15375
49.17839,0.12323
48.93732,0.12230
48.69625,0.14948
48.45518,0.18399
48.21411,0.18339
47.97304,0.14412
47.73197,0.11449
47.49090,0.12240
47.24983,0.16000
47.00876,0.18155
46.76769,0.15815
46.52662,0.13526
46.28555,0.14333
46.04448,0.16263
45.80341,0.15832
45.56234,0.14222
45.32126,0.14558
45.08019,0.16033
44.83912,0.15865
44.59805,0.14842
44.35698,0.15039
44.11591,0.15796
43.87484,0.15838
43.63377,0.15654
43.39270,0.16015
43.15163,0.17017
42.91056,0.18468
42.66949,0.19378
42.42842,0.18630
42.18735,0.16937
41.94628,0.15713
41.70521,0.15297
41.46414,0.15586
41.22307,0.16599
40.98199,0.17950
40.74092,0.18798
40.49985,0.18679
40.25878,0.18159
40.01771,0.18251
39.77664,0.19059
39.53557,0.19727
39.29450,0.20020
39.05343,0.20794
38.81236,0.22524
38.57129,0.24592
38.33022,0.26101
38.08915,0.26623
37.84808,0.26263
37.60701,0.25372
37.36594,0.24219
37.12487,0.23057
36.88380,0.22385
36.64272,0.22650
36.40165,0.23656
36.16058,0.24577
35.91951,0.24855
35.67844,0.24824
35.43737,0.24822
35.19630,0.24355
34.95523,0.23055
34.71416,0.21461
34.47309,0.20295
34.23202,0.20020
33.99095,0.20692
33.74988,0.21354
33.50881,0.20654
33.26774,0.18973
33.02667,0.18175
32.78560,0.18777
32.54453,0.19352
32.30345,0.19038
32.06238,0.18663
31.82131,0.18744
31.58024,0.18433
31.33917,0.17027
31.09810,0.15190
30.85703,0.14089
30.61596,0.13948
30.37489,0.13939
30.13382,0.13332
29.89275,0.12122
29.65168,0.10661
29.41061,0.09358
29.16954,0.08455
28.92847,0.07693
28.68740,0.06273
28.44633,0.03596
28.20526,0.00158
27.96418,-0.02475
27.72311,-0.02986
27.48204,-0.01832
27.24097,-0.00732
26.99990,-0.00700
26.75883,-0.01577
26.51776,-0.03073
26.27669,-0.04913
26.03562,-0.06404
25.79455,-0.07085
25.55348,-0.07319
25.31241,-0.07758
25.07134,-0.08939
24.83027,-0.10886
24.58920,-0.12834
24.34813,-0.14083
24.10706,-0.14693
23.86599,-0.14945
23.62491,-0.15135
23.38384,-0.15662
23.14277,-0.16388
22.90170,-0.16710
22.66063,-0.16739
22.41956,-0.17469
22.17849,-0.19443
21.93742,-0.22039
21.69635,-0.24148
21.45528,-0.25572
21.21421,-0.27210
20.97314,-0.29063
20.73207,-0.29669
20.49100,-0.28154
20.24993,-0.25523
20.00886,-0.23373
19.76779,-0.22725
19.52672,-0.23798
19.28564,-0.26026
19.04457,-0.28522
18.80350,-0.30710
18.56243,-0.31923
18.32136,-0.31220
18.08029,-0.28857
17.83922,-0.26833
17.59815,-0.27005
17.35708,-0.29233
17.11601,-0.31569
16.87494,-0.32307
16.63387,-0.31591
16.39280,-0.30378
16.15173,-0.29538
15.91066,-0.30192
15.66959,-0.32719
15.42852,-0.35519
15.18745,-0.36095
14.94637,-0.34051
14.70530,-0.31907
14.46423,-0.31446
14.22316,-0.31571
13.98209,-0.30941
13.74102,-0.29976
13.49995,-0.29474
13.25888,-0.29855
13.01781,-0.31052
12.77674,-0.32296
12.53567,-0.32438
12.29460,-0.31290
12.05353,-0.30276
11.81246,-0.30856
11.57139,-0.32873
11.33032,-0.34767
11.08925,-0.35059
10.84818,-0.33783
10.60710,-0.32561
10.36603,-0.33035
10.12496,-0.35484
9.88389,-0.39088
9.64282,-0.42362
9.40175,-0.43646
9.16068,-0.42046
8.91961,-0.38176
8.67854,-0.34331
8.43747,-0.32758
8.19640,-0.33153
7.95533,-0.33569
7.71426,-0.33932
7.47319,-0.35539
7.23212,-0.37325
6.99105,-0.37539
6.74998,-0.36507
6.50891,-0.34527
6.26783,-0.31518
6.02676,-0.29549
5.78569,-0.30338
5.54462,-0.32843
5.30355,-0.35032
5.06248,-0.35647
4.82141,-0.34737
4.58034,-0.33697
4.33927,-0.33256
4.09820,-0.33246
3.85713,-0.33973
3.61606,-0.35393
3.37499,-0.36368
3.13392,-0.36235
2.89285,-0.35807
2.65178,-0.35826
2.41071,-0.36570
2.16964,-0.37950
1.92856,-0.38458
1.68749,-0.37399
1.44642,-0.35891
1.20535,-0.34035
0.96428,-0.31789
0.72321,-0.32659
0.48214,-0.41079
0.24107,-0.48673
-0.00000,-0.39649
