399.69498,1.44679
399.45391,1.44318
399.21284,1.43657
398.97177,1.43397
398.73070,1.44027
398.48963,1.45041
398.24856,1.45350
398.00749,1.44612
397.76642,1.43766
397.52535,1.43863
397.28428,1.44880
397.04321,1.45868
396.80214,1.46241
396.56107,1.46189
396.32000,1.45881
396.07892,1.45330
395.83785,1.44619
395.59678,1.43764
395.35571,1.42927
395.11464,1.42635
394.87357,1.43054
394.63250,1.43731
394.39143,1.44370
394.15036,1.45208
393.90929,1.46214
393.66822,1.46658
393.42715,1.46268
393.18608,1.45714
392.94501,1.45454
392.70394,1.45268
392.46287,1.45257
392.22180,1.46118
391.98073,1.47886
391.73965,1.49291
391.49858,1.48978
391.25751,1.47082
391.01644,1.44758
390.77537,1.42906
390.53430,1.41878
390.29323,1.41530
390.05216,1.41684
389.81109,1.42461
389.57002,1.43965
389.32895,1.45658
389.08788,1.46633
388.84681,1.46722
388.60574,1.46473
388.36467,1.46019
388.12360,1.44980
387.88253,1.43328
387.64146,1.41499
387.40038,1.40062
387.15931,1.39450
386.91824,1.39456
386.67717,1.39246
386.43610,1.38343
386.19503,1.37244
385.95396,1.36737
385.71289,1.37012
385.47182,1.37511
385.23075,1.37449
384.98968,1.36542
384.74861,1.35340
384.50754,1.34414
384.26647,1.33672
384.02540,1.32924
383.78433,1.32354
383.54326,1.32111
383.30219,1.32005
383.06111,1.31980
382.82004,1.32390
382.57897,1.33094
382.33790,1.33009
382.09683,1.31328
381.85576,1.28784
381.61469,1.26658
381.37362,1.24851
381.13255,1.22667
380.89148,1.20743
380.65041,1.20113
380.40934,1.20375
380.16827,1.20526
379.92720,1.20618
379.68613,1.21167
379.44506,1.21849
379.20399,1.22101
378.96292,1.22262
378.72184,1.23129
378.48077,1.24887
378.23970,1.26611
377.99863,1.27179
377.75756,1.27202
377.51649,1.28269
377.27542,1.30337
377.03435,1.31808
376.79328,1.32024
376.55221,1.32083
376.31114,1.33097
376.07007,1.35267
375.82900,1.37945
375.58793,1.39638
375.34686,1.39189
375.10579,1.37422
374.86472,1.36037
374.62365,1.35389
374.38257,1.35015
374.14150,1.35207
373.90043,1.36414
373.65936,1.37734
373.41829,1.37555
373.17722,1.35810
372.93615,1.33985
372.69508,1.32898
372.45401,1.32078
372.21294,1.31153
371.97187,1.30461
371.73080,1.30093
371.48973,1.29450
371.24866,1.28156
371.00759,1.26584
370.76652,1.25117
370.52545,1.23713
370.28437,1.22387
370.04330,1.21445
369.80223,1.21062
369.56116,1.21012
369.32009,1.20935
369.07902,1.20583
368.83795,1.19892
368.59688,1.18969
368.35581,1.18039
368.11474,1.17336
367.87367,1.17072
367.63260,1.17335
367.39153,1.17816
367.15046,1.17866
366.90939,1.17206
366.66832,1.16299
366.42725,1.15715
366.18618,1.15477
365.94510,1.15341
365.70403,1.15327
365.46296,1.15521
365.22189,1.15716
364.98082,1.15562
364.73975,1.14926
364.49868,1.14085
364.25761,1.13430
364.01654,1.13021
363.77547,1.12660
363.53440,1.12312
363.29333,1.12165
363.05226,1.12263
362.81119,1.12268
362.57012,1.11833
362.32905,1.11149
362.08798,1.10790
361.84691,1.10992
361.60583,1.11372
361.36476,1.11459
361.12369,1.11199
360.88262,1.10814
360.64155,1.10491
360.40048,1.10289
360.15941,1.10130
359.91834,1.09889
359.67727,1.09604
359.43620,1.09426
359.19513,1.09383
358.95406,1.09501
358.71299,1.09948
358.47192,1.10672
358.23085,1.11214
357.98978,1.11221
357.74871,1.10938
357.50764,1.10866
357.26656,1.11071
357.02549,1.11099
356.78442,1.10617
356.54335,1.09932
356.30228,1.09580
356.06121,1.09606
355.82014,1.09658
355.57907,1.09671
355.33800,1.09950
355.09693,1.10567
354.85586,1.11108
354.61479,1.11109
354.37372,1.10619
354.13265,1.10227
353.89158,1.10330
353.65051,1.10553
353.40944,1.10348
353.16837,1.09945
352.92729,1.09967
352.68622,1.10434
352.44515,1.10794
352.20408,1.10737
351.96301,1.10413
351.72194,1.10100
351.48087,1.10066
351.23980,1.10463
350.99873,1.11141
350.75766,1.11737
350.51659,1.12044
350.27552,1.12089
350.03445,1.11887
349.79338,1.11434
349.55231,1.10970
349.31124,1.10929
349.07017,1.11566
348.82910,1.12631
348.58802,1.13517
348.34695,1.13860
348.10588,1.13841
347.86481,1.13693
347.62374,1.13377
347.38267,1.13000
347.14160,1.12948
346.90053,1.13307
346.65946,1.13741
346.41839,1.14151
346.17732,1.14886
345.93625,1.16055
345.69518,1.17119
345.45411,1.17391
345.21304,1.16801
344.97197,1.15995
344.73090,1.15620
344.48983,1.15697
344.24875,1.15896
344.00768,1.16250
343.76661,1.17044
343.52554,1.18177
343.28447,1.19310
343.04340,1.20413
342.80233,1.21532
342.56126,1.22330
342.32019,1.22596
342.07912,1.22887
341.83805,1.23919
341.59698,1.25700
341.35591,1.27551
341.11484,1.28606
340.87377,1.28356
340.63270,1.27102
340.39163,1.25745
340.15056,1.25093
339.90948,1.25494
339.66841,1.27009
339.42734,1.29424
339.18627,1.31797
338.94520,1.32677
338.70413,1.31790
338.46306,1.30709
338.22199,1.30952
337.98092,1.32520
337.73985,1.34278
337.49878,1.35158
337.25771,1.35112
337.01664,1.35024
336.77557,1.35536
336.53450,1.36013
336.29343,1.35350
336.05236,1.33803
335.81129,1.32772
335.57021,1.32862
335.32914,1.33270
335.08807,1.33111
334.84700,1.32625
334.60593,1.32545
334.36486,1.32918
334.12379,1.33126
333.88272,1.32834
333.64165,1.32360
333.40058,1.32021
333.15951,1.31736
332.91844,1.31419
332.67737,1.31159
332.43630,1.30883
332.19523,1.30367
331.95416,1.29657
331.71309,1.29084
331.47202,1.28686
331.23094,1.28208
330.98987,1.27684
330.74880,1.27277
330.50773,1.26711
330.26666,1.25642
330.02559,1.24587
329.78452,1.24392
329.54345,1.24755
329.30238,1.24582
329.06131,1.23718
328.82024,1.22969
328.57917,1.22715
328.33810,1.22557
328.09703,1.22007
327.85596,1.21084
327.61489,1.20444
327.37382,1.20756
327.13275,1.21806
326.89167,1.22741
326.65060,1.23256
326.40953,1.23902
326.16846,1.25073
325.92739,1.26338
325.68632,1.27071
325.44525,1.27251
325.20418,1.27176
324.96311,1.26837
324.72204,1.26169
324.48097,1.25612
324.23990,1.25758
323.99883,1.26494
323.75776,1.26917
323.51669,1.26411
323.27562,1.25601
323.03455,1.25624
322.79348,1.26613
322.55240,1.27450
322.31133,1.27228
322.07026,1.26213
321.82919,1.25040
321.58812,1.24103
321.34705,1.23643
321.10598,1.23632
320.86491,1.23887
320.62384,1.24517
320.38277,1.25629
320.14170,1.26738
319.90063,1.27143
319.65956,1.26753
319.41849,1.26056
319.17742,1.25474
318.93635,1.25172
318.69528,1.25155
318.45421,1.25252
318.21313,1.25406
317.97206,1.26002
317.73099,1.27454
317.48992,1.29352
317.24885,1.30496
317.00778,1.30255
316.76671,1.29255
316.52564,1.28290
316.28457,1.27612
316.04350,1.27298
315.80243,1.27500
315.56136,1.28057
315.32029,1.28218
315.07922,1.27606
314.83815,1.27217
314.59708,1.28219
314.35601,1.30237
314.11494,1.31740
313.87386,1.31998
313.63279,1.31716
313.39172,1.31824
313.15065,1.32454
312.90958,1.33093
312.66851,1.33505
312.42744,1.33926
312.18637,1.34428
311.94530,1.34698
311.70423,1.34546
311.46316,1.34180
311.22209,1.33671
310.98102,1.33033
310.73995,1.32715
310.49888,1.33072
310.25781,1.33785
310.01674,1.34288
309.77567,1.34441
309.53459,1.34548
309.29352,1.35076
309.05245,1.36278
308.81138,1.37661
308.57031,1.38136
308.32924,1.37331
308.08817,1.36282
307.84710,1.36089
307.60603,1.36619
307.36496,1.37043
307.12389,1.37146
306.88282,1.37553
306.64175,1.38635
306.40068,1.39765
306.15961,1.39942
305.91854,1.38956
305.67747,1.37560
305.43640,1.36477
305.19532,1.35709
304.95425,1.34832
304.71318,1.33752
304.47211,1.32965
304.23104,1.32864
303.98997,1.33121
303.74890,1.33105
303.50783,1.32694
303.26676,1.32204
303.02569,1.31680
302.78462,1.30912
302.54355,1.30097
302.30248,1.29629
302.06141,1.29346
301.82034,1.28580
301.57927,1.27037
301.33820,1.25207
301.09713,1.23849
300.85605,1.23386
300.61498,1.23589
300.37391,1.23644
300.13284,1.22999
299.89177,1.22030
299.65070,1.21316
299.40963,1.20888
299.16856,1.20704
298.92749,1.21031
298.68642,1.21758
298.44535,1.22015
298.20428,1.21158
297.96321,1.19703
297.72214,1.18551
297.48107,1.17950
297.24000,1.17721
296.99893,1.17634
296.75786,1.17208
296.51678,1.16030
296.27571,1.14508
296.03464,1.13532
295.79357,1.13397
295.55250,1.13588
295.31143,1.13479
295.07036,1.12833
294.82929,1.11763
294.58822,1.10624
294.34715,1.09807
294.10608,1.09388
293.86501,1.09131
293.62394,1.08865
293.38287,1.08619
293.14180,1.08394
292.90073,1.08083
292.65966,1.07705
292.41859,1.07485
292.17751,1.07554
291.93644,1.07754
291.69537,1.07809
291.45430,1.07655
291.21323,1.07545
290.97216,1.07722
290.73109,1.08048
290.49002,1.08059
290.24895,1.07416
290.00788,1.06254
289.76681,1.05045
289.52574,1.04241
289.28467,1.04045
289.04360,1.04332
288.80253,1.04706
288.56146,1.04693
288.32039,1.04077
288.07932,1.03149
287.83824,1.02466
287.59717,1.02298
287.35610,1.02467
287.11503,1.02684
286.87396,1.02790
286.63289,1.02755
286.39182,1.02654
286.15075,1.02592
285.90968,1.02575
285.66861,1.02548
285.42754,1.02491
285.18647,1.02358
284.94540,1.02049
284.70433,1.01630
284.46326,1.01377
284.22219,1.01406
283.98112,1.01470
283.74005,1.01367
283.49897,1.01303
283.25790,1.01549
283.01683,1.01988
282.77576,1.02261
282.53469,1.02202
282.29362,1.01943
282.05255,1.01702
281.81148,1.01593
281.57041,1.01583
281.32934,1.01586
281.08827,1.01606
280.84720,1.01657
280.60613,1.01564
280.36506,1.01096
280.12399,1.00363
279.88292,0.99861
279.64185,0.99996
279.40078,1.00706
279.15970,1.01607
278.91863,1.02381
278.67756,1.02873
278.43649,1.03010
278.19542,1.02835
277.95435,1.02497
277.71328,1.02069
277.47221,1.01558
277.23114,1.01143
276.99007,1.01179
276.74900,1.01816
276.50793,1.02676
276.26686,1.03125
276.02579,1.02953
275.78472,1.02582
275.54365,1.02487
275.30258,1.02700
275.06151,1.02958
274.82043,1.03049
274.57936,1.02921
274.33829,1.02701
274.09722,1.02652
273.85615,1.02959
273.61508,1.03554
273.37401,1.04220
273.13294,1.04794
272.89187,1.05222
272.65080,1.05493
272.40973,1.05562
272.16866,1.05427
271.92759,1.05239
271.68652,1.05242
271.44545,1.05567
271.20438,1.06107
270.96331,1.06591
270.72224,1.06862
270.48116,1.07046
270.24009,1.07355
269.99902,1.07788
269.75795,1.08215
269.51688,1.08684
269.27581,1.09399
269.03474,1.10366
268.79367,1.11318
268.55260,1.11976
268.31153,1.12325
268.07046,1.12647
267.82939,1.13266
267.58832,1.14236
267.34725,1.15209
267.10618,1.15696
266.86511,1.15636
266.62404,1.15575
266.38297,1.16060
266.14189,1.17061
265.90082,1.18112
265.65975,1.18853
265.41868,1.19344
265.17761,1.19879
264.93654,1.20717
264.69547,1.21964
264.45440,1.23514
264.21333,1.25023
263.97226,1.26093
263.73119,1.26635
263.49012,1.27051
263.24905,1.27890
263.00798,1.29433
262.76691,1.31688
262.52584,1.34445
262.28477,1.37035
262.04370,1.38675
261.80262,1.39565
261.56155,1.40703
261.32048,1.42440
261.07941,1.44298
260.83834,1.46233
260.59727,1.48862
260.35620,1.52174
260.11513,1.55254
259.87406,1.57836
259.63299,1.60929
259.39192,1.65292
259.15085,1.70372
258.90978,1.74790
258.66871,1.77375
258.42764,1.78194
258.18657,1.78689
257.94550,1.79661
257.70443,1.80143
257.46335,1.79301
257.22228,1.78077
256.98121,1.78078
256.74014,1.79704
256.49907,1.81445
256.25800,1.81243
256.01693,1.79552
255.77586,1.78494
255.53479,1.77860
255.29372,1.75340
255.05265,1.70293
254.81158,1.64778
254.57051,1.60649
254.32944,1.58273
254.08837,1.57420
253.84730,1.57609
253.60623,1.57893
253.36516,1.57411
253.12408,1.56378
252.88301,1.55684
252.64194,1.55500
252.40087,1.55130
252.15980,1.54143
251.91873,1.52729
251.67766,1.51212
251.43659,1.50149
251.19552,1.50174
250.95445,1.51070
250.71338,1.51840
250.47231,1.52009
250.23124,1.51963
249.99017,1.51930
249.74910,1.51604
249.50803,1.50810
249.26696,1.49833
249.02589,1.49210
248.78481,1.49334
248.54374,1.49969
248.30267,1.50396
248.06160,1.50454
247.82053,1.50881
247.57946,1.52089
247.33839,1.53423
247.09732,1.54051
246.85625,1.53930
246.61518,1.53427
246.37411,1.52901
246.13304,1.52819
245.89197,1.53450
245.65090,1.54643
245.40983,1.55939
245.16876,1.57156
244.92769,1.58699
244.68661,1.60891
244.44554,1.63436
244.20447,1.65785
243.96340,1.68010
243.72233,1.70872
243.48126,1.74612
243.24019,1.78683
242.99912,1.83373
242.75805,1.88969
242.51698,1.89025
242.27591,1.79487
242.03484,1.69073
241.79377,1.60060
241.55270,1.52242
241.31163,1.45358
241.07056,1.38957
240.82949,1.32793
240.58842,1.27108
240.34734,1.22176
240.10627,1.17838
239.86520,1.13752
239.62413,1.09824
239.38306,1.06248
239.14199,1.03251
238.90092,1.00841
238.65985,0.98753
238.41878,0.96680
238.17771,0.94580
237.93664,0.92671
237.69557,0.91112
237.45450,0.89807
237.21343,0.88514
236.97236,0.87080
236.73129,0.85529
236.49022,0.83987
236.24915,0.82613
236.00807,0.81546
235.76700,0.80829
235.52593,0.80373
235.28486,0.79996
235.04379,0.79515
234.80272,0.78855
234.56165,0.78146
234.32058,0.77594
234.07951,0.77243
233.83844,0.76970
233.59737,0.76660
233.35630,0.76283
233.11523,0.75883
232.87416,0.75556
232.63309,0.75342
232.39202,0.75141
232.15095,0.74877
231.90988,0.74615
231.66880,0.74430
231.42773,0.74325
231.18666,0.74320
230.94559,0.74435
230.70452,0.74582
230.46345,0.74630
230.22238,0.74541
229.98131,0.74346
229.74024,0.74071
229.49917,0.73770
229.25810,0.73557
229.01703,0.73515
228.77596,0.73608
228.53489,0.73747
228.29382,0.73862
228.05275,0.73904
227.81168,0.73865
227.57061,0.73798
227.32953,0.73736
227.08846,0.73664
226.84739,0.73599
226.60632,0.73575
226.36525,0.73551
226.12418,0.73469
225.88311,0.73397
225.64204,0.73484
225.40097,0.73756
225.15990,0.74050
224.91883,0.74230
224.67776,0.74378
224.43669,0.74638
224.19562,0.74993
223.95455,0.75361
223.71348,0.75766
223.47241,0.76184
223.23134,0.76475
222.99026,0.76672
222.74919,0.77024
222.50812,0.77602
222.26705,0.78201
222.02598,0.78683
221.78491,0.79132
221.54384,0.79641
221.30277,0.80168
221.06170,0.80669
220.82063,0.81222
220.57956,0.82007
220.33849,0.83137
220.09742,0.84543
219.85635,0.86068
219.61528,0.87561
219.37421,0.88885
219.13314,0.89995
218.89207,0.90981
218.65099,0.91860
218.40992,0.92540
218.16885,0.93155
217.92778,0.94065
217.68671,0.95445
217.44564,0.97187
217.20457,0.99169
216.96350,1.01264
216.72243,1.03195
216.48136,1.04722
216.24029,1.05965
215.99922,1.07295
215.75815,1.08860
215.51708,1.10536
215.27601,1.12180
215.03494,1.13665
214.79387,1.14853
214.55280,1.15871
214.31172,1.17222
214.07065,1.19227
213.82958,1.21538
213.58851,1.23499
213.34744,1.24899
213.10637,1.25959
212.86530,1.26734
212.62423,1.27011
212.38316,1.26688
212.14209,1.26112
211.90102,1.25907
211.65995,1.26455
211.41888,1.27817
211.17781,1.29929
210.93674,1.32425
210.69567,1.34399
210.45460,1.34890
210.21353,1.33881
209.97245,1.32351
209.73138,1.31142
209.49031,1.30214
209.24924,1.29134
209.00817,1.27964
208.76710,1.27305
208.52603,1.27551
208.28496,1.28362
208.04389,1.28870
207.80282,1.28485
207.56175,1.27380
207.32068,1.25995
207.07961,1.24564
206.83854,1.23301
206.59747,1.22451
206.35640,1.21913
206.11533,1.21125
205.87426,1.19589
205.63318,1.17406
205.39211,1.15145
205.15104,1.13351
204.90997,1.12151
204.66890,1.11129
204.42783,1.09727
204.18676,1.07949
203.94569,1.06374
203.70462,1.05328
203.46355,1.04471
203.22248,1.03355
202.98141,1.01972
202.74034,1.00548
202.49927,0.99132
202.25820,0.97575
202.01713,0.95717
201.77606,0.93533
201.53499,0.91228
201.29391,0.89088
201.05284,0.87255
200.81177,0.85717
200.57070,0.84388
200.32963,0.83085
200.08856,0.81645
199.84749,0.80115
199.60642,0.78687
199.36535,0.77498
199.12428,0.76603
198.88321,0.75967
198.64214,0.75333
198.40107,0.74327
198.16000,0.72900
197.91893,0.71476
197.67786,0.70455
197.43679,0.69774
197.19572,0.69118
196.95464,0.68350
196.71357,0.67539
196.47250,0.66691
196.23143,0.65717
195.99036,0.64673
195.74929,0.63809
195.50822,0.63283
195.26715,0.62945
195.02608,0.62493
194.78501,0.61807
194.54394,0.61050
194.30287,0.60431
194.06180,0.59976
193.82073,0.59530
193.57966,0.58936
193.33859,0.58200
193.09752,0.57498
192.85645,0.57008
192.61537,0.56711
192.37430,0.56357
192.13323,0.55795
191.89216,0.55267
191.65109,0.55135
191.41002,0.55370
191.16895,0.55505
190.92788,0.55176
190.68681,0.54561
190.44574,0.54092
190.20467,0.53899
189.96360,0.53758
189.72253,0.53508
189.48146,0.53236
189.24039,0.53049
188.99932,0.52929
188.75825,0.52822
188.51718,0.52695
188.27610,0.52518
188.03503,0.52323
187.79396,0.52204
187.55289,0.52169
187.31182,0.52124
187.07075,0.52009
186.82968,0.51864
186.58861,0.51757
186.34754,0.51734
186.10647,0.51803
185.86540,0.51926
185.62433,0.52053
185.38326,0.52164
185.14219,0.52277
184.90112,0.52434
184.66005,0.52667
184.41898,0.52948
184.17791,0.53185
183.93683,0.53336
183.69576,0.53468
183.45469,0.53652
183.21362,0.53870
182.97255,0.54067
182.73148,0.54236
182.49041,0.54353
182.24934,0.54341
182.00827,0.54214
181.76720,0.54178
181.52613,0.54413
181.28506,0.54808
181.04399,0.55072
180.80292,0.55149
180.56185,0.55300
180.32078,0.55687
180.07971,0.56127
179.83864,0.56423
179.59756,0.56704
179.35649,0.57184
179.11542,0.57828
178.87435,0.58513
178.63328,0.59290
178.39221,0.60238
178.15114,0.61266
177.91007,0.62262
177.66900,0.63344
177.42793,0.64774
177.18686,0.66560
176.94579,0.68322
176.70472,0.69773
176.46365,0.71161
176.22258,0.72882
175.98151,0.74927
175.74044,0.77087
175.49937,0.79313
175.25829,0.81531
175.01722,0.83611
174.77615,0.85658
174.53508,0.87806
174.29401,0.89908
174.05294,0.91873
173.81187,0.93922
173.57080,0.96080
173.32973,0.97957
173.08866,0.99298
172.84759,1.00266
172.60652,1.01125
172.36545,1.02022
172.12438,1.02930
171.88331,1.03597
171.64224,1.03739
171.40117,1.03383
171.16010,1.02840
170.91902,1.02347
170.67795,1.01890
170.43688,1.01341
170.19581,1.00638
169.95474,0.99881
169.71367,0.99275
169.47260,0.98863
169.23153,0.98383
168.99046,0.97643
168.74939,0.96893
168.50832,0.96477
168.26725,0.96301
168.02618,0.95978
167.78511,0.95379
167.54404,0.94796
167.30297,0.94642
167.06190,0.95022
166.82083,0.95519
166.57975,0.95570
166.33868,0.95215
166.09761,0.95125
165.85654,0.95763
165.61547,0.96934
165.37440,0.98244
165.13333,0.99610
164.89226,1.01054
164.65119,1.02382
164.41012,1.03431
164.16905,1.04423
163.92798,1.05731
163.68691,1.07381
163.44584,1.08994
163.20477,1.10204
162.96370,1.11055
162.72263,1.11842
162.48156,1.12699
162.24048,1.13566
161.99941,1.14422
161.75834,1.15375
161.51727,1.16555
161.27620,1.17838
161.03513,1.18673
160.79406,1.18555
160.55299,1.17601
160.31192,1.16268
160.07085,1.14866
159.82978,1.13634
159.58871,1.12824
159.34764,1.12488
159.10657,1.12511
158.86550,1.12841
158.62443,1.13252
158.38336,1.13100
158.14229,1.11898
157.90121,1.09937
157.66014,1.07949
157.41907,1.06462
157.17800,1.05713
156.93693,1.05760
156.69586,1.06350
156.45479,1.06890
156.21372,1.06830
155.97265,1.06092
155.73158,1.04928
155.49051,1.03549
155.24944,1.02050
155.00837,1.00509
154.76730,0.99030
154.52623,0.97695
154.28516,0.96539
154.04409,0.95524
153.80302,0.94457
153.56194,0.93012
153.32087,0.90983
153.07980,0.88482
152.83873,0.85840
152.59766,0.83344
152.35659,0.81121
152.11552,0.79169
151.87445,0.77386
151.63338,0.75589
151.39231,0.73597
151.15124,0.71447
150.91017,0.69410
150.66910,0.67673
150.42803,0.66161
150.18696,0.64736
149.94589,0.63368
149.70482,0.62073
149.46375,0.60866
149.22267,0.59810
148.98160,0.58957
148.74053,0.58227
148.49946,0.57467
148.25839,0.56614
148.01732,0.55725
147.77625,0.54944
147.53518,0.54459
147.29411,0.54389
147.05304,0.54632
146.81197,0.54873
146.57090,0.54866
146.32983,0.54721
146.08876,0.54796
145.84769,0.55286
145.60662,0.56029
145.36555,0.56727
145.12448,0.57288
144.88340,0.57852
144.64233,0.58552
144.40126,0.59337
144.16019,0.60009
143.91912,0.60404
143.67805,0.60517
143.43698,0.60414
143.19591,0.60060
142.95484,0.59344
142.71377,0.58272
142.47270,0.57041
142.23163,0.55871
141.99056,0.54836
141.74949,0.53884
141.50842,0.52946
141.26735,0.52039
141.02628,0.51277
140.78521,0.50803
140.54413,0.50660
140.30306,0.50743
140.06199,0.50882
139.82092,0.50996
139.57985,0.51158
139.33878,0.51506
139.09771,0.52065
138.85664,0.52733
138.61557,0.53462
138.37450,0.54347
138.13343,0.55505
137.89236,0.56941
137.65129,0.58590
137.41022,0.60377
137.16915,0.62255
136.92808,0.64231
136.68701,0.66318
136.44594,0.68437
136.20486,0.70503
135.96379,0.72672
135.72272,0.75283
135.48165,0.78482
135.24058,0.82133
134.99951,0.86053
134.75844,0.90120
134.51737,0.94113
134.27630,0.97801
134.03523,1.01242
133.79416,1.04748
133.55309,1.08507
133.31202,1.12257
133.07095,1.15418
132.82988,1.17669
132.58881,1.19227
132.34774,1.20325
132.10667,1.20984
131.86559,1.21424
131.62452,1.21670
131.38345,1.21110
131.14238,1.19190
130.90131,1.16006
130.66024,1.11973
130.41917,1.07543
130.17810,1.03300
129.93703,0.99631
129.69596,0.96254
129.45489,0.92583
129.21382,0.88474
128.97275,0.84271
128.73168,0.80302
128.49061,0.76646
128.24954,0.73275
128.00847,0.70217
127.76740,0.67533
127.52632,0.65187
127.28525,0.62999
127.04418,0.60751
126.80311,0.58417
126.56204,0.56210
126.32097,0.54303
126.07990,0.52620
125.83883,0.51003
125.59776,0.49461
125.35669,0.48123
125.11562,0.47037
124.87455,0.46120
124.63348,0.45250
124.39241,0.44384
124.15134,0.43600
123.91027,0.42993
123.66920,0.42543
123.42812,0.42158
123.18705,0.41805
122.94598,0.41529
122.70491,0.41390
122.46384,0.41420
122.22277,0.41574
121.98170,0.41748
121.74063,0.41911
121.49956,0.42154
121.25849,0.42569
121.01742,0.43168
120.77635,0.43939
120.53528,0.44909
120.29421,0.46118
120.05314,0.47585
119.81207,0.49306
119.57100,0.51268
119.32993,0.53477
119.08885,0.55964
118.84778,0.58752
118.60671,0.61839
118.36564,0.65174
118.12457,0.68595
117.88350,0.71843
117.64243,0.74778
117.40136,0.77447
117.16029,0.79749
116.91922,0.81249
116.67815,0.81625
116.43708,0.81065
116.19601,0.80005
115.95494,0.78690
115.71387,0.77140
115.47280,0.75363
115.23173,0.73468
114.99066,0.71630
114.74958,0.69971
114.50851,0.68508
114.26744,0.67263
114.02637,0.66322
113.78530,0.65705
113.54423,0.65292
113.30316,0.65027
113.06209,0.65069
112.82102,0.65553
112.57995,0.66391
112.33888,0.67507
112.09781,0.69022
111.85674,0.70920
111.61567,0.72830
111.37460,0.74355
111.13353,0.75379
110.89246,0.75878
110.65139,0.75838
110.41031,0.75432
110.16924,0.74841
109.92817,0.73895
109.68710,0.72182
109.44603,0.69591
109.20496,0.66580
108.96389,0.63824
108.72282,0.61658
108.48175,0.59925
108.24068,0.58335
107.99961,0.56799
107.75854,0.55318
107.51747,0.53776
107.27640,0.51984
107.03533,0.49849
106.79426,0.47478
106.55319,0.45194
106.31212,0.43360
106.07104,0.42122
105.82997,0.41325
105.58890,0.40708
105.34783,0.40123
105.10676,0.39503
104.86569,0.38713
104.62462,0.37592
104.38355,0.36198
104.14248,0.34814
103.90141,0.33684
103.66034,0.32873
103.41927,0.32349
103.17820,0.32046
102.93713,0.31832
102.69606,0.31503
102.45499,0.30896
102.21392,0.30036
101.97285,0.29151
101.73177,0.28509
101.49070,0.28214
101.24963,0.28184
101.00856,0.28252
100.76749,0.28196
100.52642,0.27780
100.28535,0.27014
100.04428,0.26243
99.80321,0.25812
99.56214,0.25773
99.32107,0.25945
99.08000,0.26034
98.83893,0.25755
98.59786,0.25120
98.35679,0.24553
98.11572,0.24528
97.87465,0.25155
97.63358,0.26065
97.39250,0.26628
97.15143,0.26526
96.91036,0.26149
96.66929,0.26189
96.42822,0.26988
96.18715,0.28280
95.94608,0.29421
95.70501,0.30073
95.46394,0.30584
95.22287,0.31471
94.98180,0.32681
94.74073,0.33591
94.49966,0.33831
94.25859,0.33744
94.01752,0.33801
93.77645,0.34007
93.53538,0.34031
93.29431,0.33809
93.05323,0.33705
92.81216,0.33965
92.57109,0.34301
92.33002,0.34344
92.08895,0.34301
91.84788,0.34632
91.60681,0.35313
91.36574,0.36012
91.12467,0.36894
90.88360,0.38572
90.64253,0.41304
90.40146,0.44705
90.16039,0.48437
89.91932,0.52772
89.67825,0.58000
89.43718,0.63530
89.19611,0.68117
88.95504,0.71450
88.71396,0.73926
88.47289,0.74660
88.23182,0.72496
87.99075,0.68434
87.74968,0.63948
87.50861,0.59050
87.26754,0.53722
87.02647,0.48901
86.78540,0.45129
86.54433,0.42007
86.30326,0.39151
86.06219,0.36628
85.82112,0.34468
85.58005,0.32516
85.33898,0.30706
85.09791,0.29028
84.85684,0.27405
84.61577,0.25832
84.37469,0.24464
84.13362,0.23419
83.89255,0.22647
83.65148,0.22046
83.41041,0.21551
83.16934,0.21086
82.92827,0.20622
82.68720,0.20246
82.44613,0.19975
82.20506,0.19661
81.96399,0.19236
81.72292,0.18838
81.48185,0.18553
81.24078,0.18310
80.99971,0.18072
80.75864,0.17913
80.51757,0.17865
80.27650,0.17852
80.03542,0.17761
79.79435,0.17537
79.55328,0.17263
79.31221,0.17115
79.07114,0.17172
78.83007,0.17311
78.58900,0.17328
78.34793,0.17138
78.10686,0.16813
77.86579,0.16493
77.62472,0.16285
77.38365,0.16214
77.14258,0.16223
76.90151,0.16245
76.66044,0.16262
76.41937,0.16279
76.17830,0.16271
75.93723,0.16179
75.69615,0.15948
75.45508,0.15616
75.21401,0.15363
74.97294,0.15362
74.73187,0.15581
74.49080,0.15816
74.24973,0.15902
74.00866,0.15834
73.76759,0.15733
73.52652,0.15699
73.28545,0.15702
73.04438,0.15660
72.80331,0.15637
72.56224,0.15764
72.32117,0.15986
72.08010,0.16047
71.83903,0.15847
71.59796,0.15655
71.35688,0.15884
71.11581,0.16699
70.87474,0.17830
70.63367,0.18789
70.39260,0.19315
70.15153,0.19665
69.91046,0.20379
69.66939,0.21766
69.42832,0.23648
69.18725,0.25508
68.94618,0.26814
68.70511,0.27217
68.46404,0.26596
68.22297,0.25090
67.98190,0.23045
67.74083,0.20869
67.49976,0.18879
67.25869,0.17225
67.01761,0.15938
66.77654,0.15044
66.53547,0.14551
66.29440,0.14338
66.05333,0.14238
65.81226,0.14269
65.57119,0.14600
65.33012,0.15289
65.08905,0.16229
64.84798,0.17324
64.60691,0.18538
64.36584,0.19758
64.12477,0.20693
63.88370,0.21019
63.64263,0.20658
63.40156,0.19841
63.16049,0.18888
62.91942,0.17977
62.67834,0.17175
62.43727,0.16524
62.19620,0.15999
61.95513,0.15501
61.71406,0.14977
61.47299,0.14465
61.23192,0.13977
60.99085,0.13476
60.74978,0.13041
60.50871,0.12872
60.26764,0.13068
60.02657,0.13466
59.78550,0.13778
59.54443,0.13865
59.30336,0.13820
59.06229,0.13817
58.82122,0.13943
58.58015,0.14157
58.33907,0.14371
58.09800,0.14606
57.85693,0.15050
57.61586,0.15880
57.37479,0.16999
57.13372,0.18019
56.89265,0.18569
56.65158,0.18599
56.41051,0.18343
56.16944,0.18043
55.92837,0.17708
55.68730,0.17101
55.44623,0.16040
55.20516,0.14661
54.96409,0.13307
54.72302,0.12245
54.48195,0.11586
54.24088,0.11471
53.99980,0.12192
53.75873,0.13980
53.51766,0.16649
53.27659,0.19500
53.03552,0.21515
52.79445,0.21631
52.55338,0.19548
52.31231,0.16415
52.07124,0.13752
51.83017,0.12329
51.58910,0.12320
51.34803,0.13737
51.10696,0.16320
50.86589,0.18932
50.62482,0.19581
50.38375,0.17442
50.14268,0.14113
49.90161,0.11776
49.66053,0.11821
49.41946,0.14698
49.17839,0.18893
48.93732,0.19824
48.69625,0.15924
48.45518,0.12126
48.21411,0.11745
47.97304,0.15182
47.73197,0.19946
47.49090,0.20409
47.24983,0.16598
47.00876,0.14317
46.76769,0.15615
46.52662,0.18011
46.28555,0.17760
46.04448,0.15714
45.80341,0.15219
45.56234,0.16730
45.32126,0.17517
45.08019,0.16263
44.83912,0.15610
44.59805,0.16612
44.35698,0.16884
44.11591,0.15805
43.87484,0.16042
43.63377,0.18068
43.39270,0.18894
43.15163,0.17874
42.91056,0.17634
42.66949,0.18463
42.42842,0.18696
42.18735,0.18193
41.94628,0.17861
41.70521,0.17921
41.46414,0.18370
41.22307,0.19075
40.98199,0.19438
40.74092,0.19137
40.49985,0.18613
40.25878,0.18384
40.01771,0.18625
39.77664,0.19489
39.53557,0.21002
39.29450,0.22448
39.05343,0.22731
38.81236,0.21908
38.57129,0.21380
38.33022,0.22179
38.08915,0.24050
37.84808,0.25955
37.60701,0.26772
37.36594,0.26236
37.12487,0.25439
36.88380,0.25286
36.64272,0.25370
36.40165,0.25161
36.16058,0.24970
35.91951,0.25000
35.67844,0.24734
35.43737,0.23921
35.19630,0.22956
34.95523,0.22271
34.71416,0.21996
34.47309,0.22147
34.23202,0.22722
33.99095,0.23415
33.74988,0.23551
33.50881,0.22758
33.26774,0.21459
33.02667,0.20548
32.78560,0.20869
32.54453,0.22459
32.30345,0.24067
32.06238,0.24198
31.82131,0.22737
31.58024,0.20778
31.33917,0.18941
31.09810,0.16928
30.85703,0.14590
30.61596,0.12454
30.37489,0.10824
30.13382,0.09230
29.89275,0.07454
29.65168,0.06025
29.41061,0.05327
29.16954,0.04927
28.92847,0.04097
28.68740,0.02766
28.44633,0.01709
28.20526,0.01823
27.96418,0.02829
27.72311,0.03316
27.48204,0.02542
27.24097,0.01151
26.99990,-0.00002
26.75883,-0.00876
26.51776,-0.02024
26.27669,-0.03657
26.03562,-0.05186
25.79455,-0.06138
25.55348,-0.06984
25.31241,-0.08293
25.07134,-0.09941
24.83027,-0.11558
24.58920,-0.12859
24.34813,-0.13553
24.10706,-0.13879
23.86599,-0.14919
23.62491,-0.17581
23.38384,-0.21237
23.14277,-0.23573
22.90170,-0.22796
22.66063,-0.20250
22.41956,-0.18672
22.17849,-0.19076
21.93742,-0.20775
21.69635,-0.23044
21.45528,-0.25745
21.21421,-0.28514
20.97314,-0.30216
20.73207,-0.30193
20.49100,-0.29219
20.24993,-0.28266
20.00886,-0.27784
19.76779,-0.27887
19.52672,-0.28398
19.28564,-0.29200
19.04457,-0.30254
18.80350,-0.30970
18.56243,-0.30648
18.32136,-0.29840
18.08029,-0.30043
17.83922,-0.31669
17.59815,-0.33839
17.35708,-0.35760
17.11601,-0.36689
16.87494,-0.35954
16.63387,-0.34244
16.39280,-0.32858
16.15173,-0.32747
15.91066,-0.34080
15.66959,-0.35973
15.42852,-0.37295
15.18745,-0.37696
14.94637,-0.37576
14.70530,-0.37882
14.46423,-0.39166
14.22316,-0.40577
13.98209,-0.40544
13.74102,-0.38300
13.49995,-0.35236
13.25888,-0.33406
13.01781,-0.33607
12.77674,-0.35244
12.53567,-0.36745
12.29460,-0.36748
12.05353,-0.35603
11.81246,-0.34713
11.57139,-0.34773
11.33032,-0.35391
11.08925,-0.36264
10.84818,-0.37835
10.60710,-0.39821
10.36603,-0.41424
10.12496,-0.42585
9.88389,-0.43259
9.64282,-0.43628
9.40175,-0.43639
9.16068,-0.43485
8.91961,-0.44303
8.67854,-0.46262
8.43747,-0.47278
8.19640,-0.45529
7.95533,-0.41918
7.71426,-0.39718
7.47319,-0.40776
7.23212,-0.43505
6.99105,-0.45722
6.74998,-0.46706
6.50891,-0.44022
6.26783,-0.40370
6.02676,-0.39349
5.78569,-0.41090
5.54462,-0.44646
5.30355,-0.48935
5.06248,-0.50935
4.82141,-0.49554
4.58034,-0.46439
4.33927,-0.44119
4.09820,-0.43689
3.85713,-0.43964
3.61606,-0.44123
3.37499,-0.44032
3.13392,-0.43303
2.89285,-0.41577
2.65178,-0.39917
2.41071,-0.39196
2.16964,-0.40428
1.92856,-0.42812
1.68749,-0.45393
1.44642,-0.47535
1.20535,-0.47741
0.96428,-0.46270
0.72321,-0.44950
0.48214,-0.43270
0.24107,-0.40544
-0.00000,-0.31875
