399.69498,1.69852
399.45391,1.69551
399.21284,1.70553
398.97177,1.72705
398.73070,1.74386
398.48963,1.74974
398.24856,1.74317
398.00749,1.72341
397.76642,1.69909
397.52535,1.68039
397.28428,1.66496
397.04321,1.64108
396.80214,1.61433
396.56107,1.60365
396.32000,1.61380
396.07892,1.63174
395.83785,1.64131
395.59678,1.63992
395.35571,1.64189
395.11464,1.66653
394.87357,1.70707
394.63250,1.73055
394.39143,1.72368
394.15036,1.71290
393.90929,1.72643
393.66822,1.77260
393.42715,1.81256
393.18608,1.81032
392.94501,1.80646
392.70394,1.82343
392.46287,1.90671
392.22180,2.08370
391.98073,2.28713
391.73965,2.42511
391.49858,2.46331
391.25751,2.24470
391.01644,2.09984
390.77537,2.15119
390.53430,2.27700
390.29323,2.27948
390.05216,2.15509
389.81109,2.11802
389.57002,2.16750
389.32895,2.07507
389.08788,1.91506
388.84681,1.82434
388.60574,1.80764
388.36467,1.86842
388.12360,2.04501
387.88253,2.25075
387.64146,2.16019
387.40038,2.01969
387.15931,1.94065
386.91824,1.90934
386.67717,1.86312
386.43610,1.78602
386.19503,1.77037
385.95396,1.82985
385.71289,1.94823
385.47182,2.04156
385.23075,2.09085
384.98968,2.06326
384.74861,2.02718
384.50754,2.05403
384.26647,2.03061
384.02540,1.98903
383.78433,2.00220
383.54326,2.08327
383.30219,2.20362
383.06111,2.16006
382.82004,1.98018
382.57897,1.88231
382.33790,2.01151
382.09683,2.09544
381.85576,2.06842
381.61469,1.95756
381.37362,1.90206
381.13255,1.76140
380.89148,1.69213
380.65041,1.70366
380.40934,1.75219
380.16827,1.81727
379.92720,1.90761
379.68613,1.94892
379.44506,1.87580
379.20399,1.86399
378.96292,1.91407
378.72184,1.86955
378.48077,1.88043
378.23970,2.00711
377.99863,1.96417
377.75756,1.92759
377.51649,1.93048
377.27542,1.95796
377.03435,2.08848
376.79328,2.35632
376.55221,2.35873
376.31114,2.37795
376.07007,2.32228
375.82900,2.29936
375.58793,2.11437
375.34686,1.95536
375.10579,1.91253
374.86472,1.99446
374.62365,2.19542
374.38257,2.32928
374.14150,2.18778
373.90043,2.06694
373.65936,2.02153
373.41829,1.95601
373.17722,1.81746
372.93615,1.68307
372.69508,1.59052
372.45401,1.55228
372.21294,1.56860
371.97187,1.60668
371.73080,1.61533
371.48973,1.57805
371.24866,1.53129
371.00759,1.49846
370.76652,1.47159
370.52545,1.45239
370.28437,1.45041
370.04330,1.44457
369.80223,1.40750
369.56116,1.35968
369.32009,1.34217
369.07902,1.36243
368.83795,1.39111
368.59688,1.40008
368.35581,1.39418
368.11474,1.38319
367.87367,1.36058
367.63260,1.33124
367.39153,1.31346
367.15046,1.30869
366.90939,1.30562
366.66832,1.30330
366.42725,1.30501
366.18618,1.30480
365.94510,1.29537
365.70403,1.28024
365.46296,1.26950
365.22189,1.26773
364.98082,1.27237
364.73975,1.28100
364.49868,1.29201
364.25761,1.29820
364.01654,1.28867
363.77547,1.26285
363.53440,1.23691
363.29333,1.22829
363.05226,1.24017
362.81119,1.26089
362.57012,1.27161
362.32905,1.26153
362.08798,1.24030
361.84691,1.22734
361.60583,1.23186
361.36476,1.24637
361.12369,1.25522
360.88262,1.24887
360.64155,1.23342
360.40048,1.22321
360.15941,1.22209
359.91834,1.22328
359.67727,1.22250
359.43620,1.22222
359.19513,1.22567
358.95406,1.23048
358.71299,1.23054
358.47192,1.22665
358.23085,1.22501
357.98978,1.22443
357.74871,1.21980
357.50764,1.21209
357.26656,1.20687
357.02549,1.20713
356.78442,1.21405
356.54335,1.22663
356.30228,1.23242
356.06121,1.21677
355.82014,1.18911
355.57907,1.17685
355.33800,1.19298
355.09693,1.22312
354.85586,1.24421
354.61479,1.24934
354.37372,1.24370
354.13265,1.22809
353.89158,1.20494
353.65051,1.18575
353.40944,1.18132
353.16837,1.18974
352.92729,1.19869
352.68622,1.20323
352.44515,1.21202
352.20408,1.22996
351.96301,1.24627
351.72194,1.25073
351.48087,1.24854
351.23980,1.24792
350.99873,1.25267
350.75766,1.25981
350.51659,1.26577
350.27552,1.27265
350.03445,1.28460
349.79338,1.30104
349.55231,1.31206
349.31124,1.30840
349.07017,1.29484
348.82910,1.28385
348.58802,1.27996
348.34695,1.27803
348.10588,1.27398
347.86481,1.26958
347.62374,1.26645
347.38267,1.26448
347.14160,1.26653
346.90053,1.27566
346.65946,1.29109
346.41839,1.30624
346.17732,1.31067
345.93625,1.30177
345.69518,1.29043
345.45411,1.29041
345.21304,1.30706
344.97197,1.33319
344.73090,1.35334
344.48983,1.35973
344.24875,1.36028
344.00768,1.36377
343.76661,1.36838
343.52554,1.36807
343.28447,1.36630
343.04340,1.37792
342.80233,1.40287
342.56126,1.41959
342.32019,1.42007
342.07912,1.42264
341.83805,1.44124
341.59698,1.47104
341.35591,1.50128
341.11484,1.52461
340.87377,1.53647
340.63270,1.53826
340.39163,1.54062
340.15056,1.55456
339.90948,1.57348
339.66841,1.57909
339.42734,1.57778
339.18627,1.59495
338.94520,1.62860
338.70413,1.64594
338.46306,1.63416
338.22199,1.61442
337.98092,1.60965
337.73985,1.62423
337.49878,1.64970
337.25771,1.68648
337.01664,1.72770
336.77557,1.74923
336.53450,1.77289
336.29343,1.80951
336.05236,1.81552
335.81129,1.82073
335.57021,1.86162
335.32914,1.85617
335.08807,1.77652
334.84700,1.70518
334.60593,1.70515
334.36486,1.76949
334.12379,1.81871
333.88272,1.78582
333.64165,1.72206
333.40058,1.68799
333.15951,1.68443
332.91844,1.68772
332.67737,1.68278
332.43630,1.66577
332.19523,1.62373
331.95416,1.56201
331.71309,1.51983
331.47202,1.51974
331.23094,1.55424
330.98987,1.58178
330.74880,1.55681
330.50773,1.50654
330.26666,1.48937
330.02559,1.52011
329.78452,1.56344
329.54345,1.57539
329.30238,1.57246
329.06131,1.59740
328.82024,1.63030
328.57917,1.60437
328.33810,1.52506
328.09703,1.46219
327.85596,1.44198
327.61489,1.43479
327.37382,1.41924
327.13275,1.40807
326.89167,1.42036
326.65060,1.46856
326.40953,1.54239
326.16846,1.60112
325.92739,1.61091
325.68632,1.60186
325.44525,1.61443
325.20418,1.62925
324.96311,1.59475
324.72204,1.52294
324.48097,1.49848
324.23990,1.57748
323.99883,1.73341
323.75776,1.80769
323.51669,1.73405
323.27562,1.63985
323.03455,1.58729
322.79348,1.59504
322.55240,1.66216
322.31133,1.75169
322.07026,1.80276
321.82919,1.80579
321.58812,1.77429
321.34705,1.72271
321.10598,1.73514
320.86491,1.81670
320.62384,1.89791
320.38277,1.90483
320.14170,1.94988
319.90063,2.01723
319.65956,2.01018
319.41849,1.94231
319.17742,1.84056
318.93635,1.76427
318.69528,1.76502
318.45421,1.84008
318.21313,1.91180
317.97206,1.90309
317.73099,1.84415
317.48992,1.77316
317.24885,1.72165
317.00778,1.70282
316.76671,1.69756
316.52564,1.69780
316.28457,1.75359
316.04350,1.88906
315.80243,2.00301
315.56136,2.07247
315.32029,2.06279
315.07922,2.00586
314.83815,1.98307
314.59708,1.98729
314.35601,1.96593
314.11494,2.00939
313.87386,2.20715
313.63279,2.53902
313.39172,2.69467
313.15065,2.23703
312.90958,1.95295
312.66851,1.83909
312.42744,1.87438
312.18637,2.07424
311.94530,2.22408
311.70423,2.21805
311.46316,2.14398
311.22209,2.03332
310.98102,1.97955
310.73995,2.00510
310.49888,2.02559
310.25781,2.03642
310.01674,2.06445
309.77567,2.04085
309.53459,1.99352
309.29352,2.00049
309.05245,2.05712
308.81138,2.01494
308.57031,1.90192
308.32924,1.85970
308.08817,1.86635
307.84710,1.89121
307.60603,1.89211
307.36496,1.87403
307.12389,1.86398
306.88282,1.83372
306.64175,1.76216
306.40068,1.68089
306.15961,1.63585
305.91854,1.63827
305.67747,1.65836
305.43640,1.66010
305.19532,1.64191
304.95425,1.62152
304.71318,1.59424
304.47211,1.54822
304.23104,1.49432
303.98997,1.44756
303.74890,1.41188
303.50783,1.38678
303.26676,1.37296
303.02569,1.36877
302.78462,1.36971
302.54355,1.37245
302.30248,1.37347
302.06141,1.37091
301.82034,1.36130
301.57927,1.33722
301.33820,1.30549
301.09713,1.28494
300.85605,1.28060
300.61498,1.27787
300.37391,1.26404
300.13284,1.24484
299.89177,1.23335
299.65070,1.23188
299.40963,1.23132
299.16856,1.22422
298.92749,1.21181
298.68642,1.19944
298.44535,1.18909
298.20428,1.17731
297.96321,1.16328
297.72214,1.15042
297.48107,1.13751
297.24000,1.12091
296.99893,1.10409
296.75786,1.09268
296.51678,1.08531
296.27571,1.07678
296.03464,1.06699
295.79357,1.06064
295.55250,1.06048
295.31143,1.06361
295.07036,1.06322
294.82929,1.05645
294.58822,1.04911
294.34715,1.04885
294.10608,1.05602
293.86501,1.06442
293.62394,1.06849
293.38287,1.06672
293.14180,1.05999
292.90073,1.05028
292.65966,1.04075
292.41859,1.03356
292.17751,1.02843
291.93644,1.02499
291.69537,1.02257
291.45430,1.01955
291.21323,1.01735
290.97216,1.02030
290.73109,1.02835
290.49002,1.03451
290.24895,1.03295
290.00788,1.02578
289.76681,1.01775
289.52574,1.00934
289.28467,0.99918
289.04360,0.98930
288.80253,0.98448
288.56146,0.98691
288.32039,0.99253
288.07932,0.99365
287.83824,0.98761
287.59717,0.97994
287.35610,0.97647
287.11503,0.97610
286.87396,0.97372
286.63289,0.96809
286.39182,0.96322
286.15075,0.96262
285.90968,0.96643
285.66861,0.97281
285.42754,0.97904
285.18647,0.98151
284.94540,0.97756
284.70433,0.96827
284.46326,0.95747
284.22219,0.94846
283.98112,0.94268
283.74005,0.94057
283.49897,0.94302
283.25790,0.95103
283.01683,0.96230
282.77576,0.97066
282.53469,0.97195
282.29362,0.96952
282.05255,0.96949
281.81148,0.97199
281.57041,0.97203
281.32934,0.96739
281.08827,0.95949
280.84720,0.94952
280.60613,0.93877
280.36506,0.92970
280.12399,0.92498
279.88292,0.92570
279.64185,0.93078
279.40078,0.93745
279.15970,0.94277
278.91863,0.94636
278.67756,0.94941
278.43649,0.95089
278.19542,0.94767
277.95435,0.93940
277.71328,0.93140
277.47221,0.92960
277.23114,0.93344
276.99007,0.93553
276.74900,0.93139
276.50793,0.92606
276.26686,0.92581
276.02579,0.92953
275.78472,0.93235
275.54365,0.93268
275.30258,0.93233
275.06151,0.93343
274.82043,0.93655
274.57936,0.94105
274.33829,0.94719
274.09722,0.95507
273.85615,0.96144
273.61508,0.96269
273.37401,0.96088
273.13294,0.96060
272.89187,0.96186
272.65080,0.96127
272.40973,0.95812
272.16866,0.95573
271.92759,0.95723
271.68652,0.96135
271.44545,0.96340
271.20438,0.96089
270.96331,0.95694
270.72224,0.95675
270.48116,0.96206
270.24009,0.96984
269.99902,0.97578
269.75795,0.97937
269.51688,0.98409
269.27581,0.99043
269.03474,0.99271
268.79367,0.98750
268.55260,0.98031
268.31153,0.97927
268.07046,0.98659
267.82939,0.99756
267.58832,1.00643
267.34725,1.01210
267.10618,1.01885
266.86511,1.03134
266.62404,1.04743
266.38297,1.05918
266.14189,1.06389
265.90082,1.06732
265.65975,1.07385
265.41868,1.08226
265.17761,1.09060
264.93654,1.09684
264.69547,1.09724
264.45440,1.09277
264.21333,1.09240
263.97226,1.10259
263.73119,1.11860
263.49012,1.13058
263.24905,1.13518
263.00798,1.13753
262.76691,1.14234
262.52584,1.14755
262.28477,1.15162
262.04370,1.16098
261.80262,1.18175
261.56155,1.20681
261.32048,1.22097
261.07941,1.22204
260.83834,1.22321
260.59727,1.23517
260.35620,1.25807
260.11513,1.28759
259.87406,1.31997
259.63299,1.35021
259.39192,1.37101
259.15085,1.38394
258.90978,1.40182
258.66871,1.42799
258.42764,1.45464
258.18657,1.48089
257.94550,1.51149
257.70443,1.54242
257.46335,1.56600
257.22228,1.58730
256.98121,1.61501
256.74014,1.63385
256.49907,1.61599
256.25800,1.57713
256.01693,1.56326
255.77586,1.59868
255.53479,1.68073
255.29372,1.78396
255.05265,1.87309
254.81158,1.90775
254.57051,1.85428
254.32944,1.81308
254.08837,1.83517
253.84730,1.88412
253.60623,1.90625
253.36516,1.90734
253.12408,1.93602
252.88301,2.01855
252.64194,2.15479
252.40087,2.32719
252.15980,2.47508
251.91873,2.47635
251.67766,2.37237
251.43659,2.36478
251.19552,2.42163
250.95445,2.33694
250.71338,2.14979
250.47231,2.07530
250.23124,2.13785
249.99017,2.15283
249.74910,2.04714
249.50803,1.96208
249.26696,1.98639
249.02589,2.12482
248.78481,2.27027
248.54374,2.26725
248.30267,2.14590
248.06160,2.06096
247.82053,2.04143
247.57946,2.06684
247.33839,2.13682
247.09732,2.27853
246.85625,2.37534
246.61518,2.23649
246.37411,2.21795
246.13304,2.31365
245.89197,2.34012
245.65090,2.22572
245.40983,2.10417
245.16876,2.08702
244.92769,2.17782
244.68661,2.20519
244.44554,2.04505
244.20447,1.87909
243.96340,1.75714
243.72233,1.66084
243.48126,1.58671
243.24019,1.53142
242.99912,1.48200
242.75805,1.43161
242.51698,1.38347
242.27591,1.33634
242.03484,1.28787
241.79377,1.24416
241.55270,1.20944
241.31163,1.17652
241.07056,1.13643
240.82949,1.09111
240.58842,1.05130
240.34734,1.02347
240.10627,1.00394
239.86520,0.98551
239.62413,0.96486
239.38306,0.94046
239.14199,0.90986
238.90092,0.87484
238.65985,0.84276
238.41878,0.81927
238.17771,0.80401
237.93664,0.79375
237.69557,0.78538
237.45450,0.77612
237.21343,0.76483
236.97236,0.75364
236.73129,0.74601
236.49022,0.74215
236.24915,0.73751
236.00807,0.72727
235.76700,0.71244
235.52593,0.69926
235.28486,0.69255
235.04379,0.69134
234.80272,0.69049
234.56165,0.68622
234.32058,0.67975
234.07951,0.67445
233.83844,0.67108
233.59737,0.66803
233.35630,0.66500
233.11523,0.66377
232.87416,0.66517
232.63309,0.66727
232.39202,0.66714
232.15095,0.66385
231.90988,0.65916
231.66880,0.65534
231.42773,0.65313
231.18666,0.65211
230.94559,0.65179
230.70452,0.65168
230.46345,0.65101
230.22238,0.64989
229.98131,0.64982
229.74024,0.65148
229.49917,0.65279
229.25810,0.65190
229.01703,0.65055
228.77596,0.65107
228.53489,0.65232
228.29382,0.65217
228.05275,0.65109
227.81168,0.65056
227.57061,0.64995
227.32953,0.64787
227.08846,0.64517
226.84739,0.64429
226.60632,0.64593
226.36525,0.64728
226.12418,0.64532
225.88311,0.64198
225.64204,0.64247
225.40097,0.64825
225.15990,0.65528
224.91883,0.65924
224.67776,0.65947
224.43669,0.65794
224.19562,0.65697
223.95455,0.65772
223.71348,0.65936
223.47241,0.66053
223.23134,0.66212
222.99026,0.66668
222.74919,0.67480
222.50812,0.68367
222.26705,0.69018
222.02598,0.69419
221.78491,0.69761
221.54384,0.70187
221.30277,0.70770
221.06170,0.71570
220.82063,0.72559
220.57956,0.73588
220.33849,0.74517
220.09742,0.75334
219.85635,0.76093
219.61528,0.76799
219.37421,0.77427
219.13314,0.78024
218.89207,0.78703
218.65099,0.79543
218.40992,0.80555
218.16885,0.81709
217.92778,0.82960
217.68671,0.84258
217.44564,0.85612
217.20457,0.87143
216.96350,0.88865
216.72243,0.90392
216.48136,0.91167
216.24029,0.91144
215.99922,0.90957
215.75815,0.91274
215.51708,0.92244
215.27601,0.93647
215.03494,0.95263
214.79387,0.96921
214.55280,0.98406
214.31172,0.99561
214.07065,1.00445
213.82958,1.01188
213.58851,1.01785
213.34744,1.02161
213.10637,1.02363
212.86530,1.02655
212.62423,1.03353
212.38316,1.04435
212.14209,1.05437
211.90102,1.05921
211.65995,1.05997
211.41888,1.06148
211.17781,1.06661
210.93674,1.07478
210.69567,1.08520
210.45460,1.09723
210.21353,1.10675
209.97245,1.10651
209.73138,1.09384
209.49031,1.07731
209.24924,1.06833
209.00817,1.06827
208.76710,1.07010
208.52603,1.06743
208.28496,1.05961
208.04389,1.05019
207.80282,1.04079
207.56175,1.03230
207.32068,1.02789
207.07961,1.02782
206.83854,1.02594
206.59747,1.01670
206.35640,1.00265
206.11533,0.98979
205.87426,0.97947
205.63318,0.96899
205.39211,0.95650
205.15104,0.94216
204.90997,0.92729
204.66890,0.91478
204.42783,0.90710
204.18676,0.90251
203.94569,0.89621
203.70462,0.88727
203.46355,0.88034
203.22248,0.87723
202.98141,0.87203
202.74034,0.85870
202.49927,0.83954
202.25820,0.82039
202.01713,0.80346
201.77606,0.78933
201.53499,0.77873
201.29391,0.76992
201.05284,0.75998
200.81177,0.74901
200.57070,0.73909
200.32963,0.72967
200.08856,0.71817
199.84749,0.70464
199.60642,0.69240
199.36535,0.68374
199.12428,0.67704
198.88321,0.66902
198.64214,0.65878
198.40107,0.64843
198.16000,0.64006
197.91893,0.63324
197.67786,0.62575
197.43679,0.61593
197.19572,0.60423
196.95464,0.59248
196.71357,0.58235
196.47250,0.57486
196.23143,0.57056
195.99036,0.56884
195.74929,0.56749
195.50822,0.56461
195.26715,0.56040
195.02608,0.55604
194.78501,0.55135
194.54394,0.54527
194.30287,0.53813
194.06180,0.53189
193.82073,0.52763
193.57966,0.52411
193.33859,0.51966
193.09752,0.51424
192.85645,0.50843
192.61537,0.50231
192.37430,0.49632
192.13323,0.49132
191.89216,0.48736
191.65109,0.48395
191.41002,0.48160
191.16895,0.48140
190.92788,0.48279
190.68681,0.48299
190.44574,0.47949
190.20467,0.47292
189.96360,0.46673
189.72253,0.46369
189.48146,0.46346
189.24039,0.46378
188.99932,0.46330
188.75825,0.46262
188.51718,0.46256
188.27610,0.46227
188.03503,0.46023
187.79396,0.45681
187.55289,0.45418
187.31182,0.45352
187.07075,0.45366
186.82968,0.45301
186.58861,0.45169
186.34754,0.45111
186.10647,0.45208
185.86540,0.45396
185.62433,0.45580
185.38326,0.45712
185.14219,0.45781
184.90112,0.45828
184.66005,0.45945
184.41898,0.46168
184.17791,0.46448
183.93683,0.46751
183.69576,0.47020
183.45469,0.47090
183.21362,0.46856
182.97255,0.46496
182.73148,0.46291
182.49041,0.46346
182.24934,0.46608
182.00827,0.47038
181.76720,0.47578
181.52613,0.48046
181.28506,0.48246
181.04399,0.48187
180.80292,0.48085
180.56185,0.48152
180.32078,0.48479
180.07971,0.49002
179.83864,0.49526
179.59756,0.49899
179.35649,0.50250
179.11542,0.50876
178.87435,0.51830
178.63328,0.52788
178.39221,0.53443
178.15114,0.53899
177.91007,0.54487
177.66900,0.55342
177.42793,0.56371
177.18686,0.57544
176.94579,0.58919
176.70472,0.60390
176.46365,0.61710
176.22258,0.62862
175.98151,0.64215
175.74044,0.66130
175.49937,0.68443
175.25829,0.70481
175.01722,0.71831
174.77615,0.72914
174.53508,0.74398
174.29401,0.76403
174.05294,0.78579
173.81187,0.80581
173.57080,0.82222
173.32973,0.83419
173.08866,0.84188
172.84759,0.84672
172.60652,0.85094
172.36545,0.85630
172.12438,0.86288
171.88331,0.86892
171.64224,0.87220
171.40117,0.87208
171.16010,0.87014
170.91902,0.86761
170.67795,0.86278
170.43688,0.85273
170.19581,0.83833
169.95474,0.82521
169.71367,0.81885
169.47260,0.82061
169.23153,0.82694
168.99046,0.83140
168.74939,0.83016
168.50832,0.82536
168.26725,0.82109
168.02618,0.81777
167.78511,0.81339
167.54404,0.80922
167.30297,0.81021
167.06190,0.81832
166.82083,0.82839
166.57975,0.83305
166.33868,0.83220
166.09761,0.83325
165.85654,0.84050
165.61547,0.84978
165.37440,0.85577
165.13333,0.85965
164.89226,0.86458
164.65119,0.86898
164.41012,0.87072
164.16905,0.87374
163.92798,0.88312
163.68691,0.89675
163.44584,0.90898
163.20477,0.92083
162.96370,0.93748
162.72263,0.95704
162.48156,0.97102
162.24048,0.97520
161.99941,0.97271
161.75834,0.96812
161.51727,0.96483
161.27620,0.96397
161.03513,0.96312
160.79406,0.96004
160.55299,0.95675
160.31192,0.95638
160.07085,0.95753
159.82978,0.95539
159.58871,0.94847
159.34764,0.94125
159.10657,0.93846
158.86550,0.93863
158.62443,0.93619
158.38336,0.92906
158.14229,0.92001
157.90121,0.91177
157.66014,0.90500
157.41907,0.89954
157.17800,0.89552
156.93693,0.89325
156.69586,0.89196
156.45479,0.88918
156.21372,0.88304
155.97265,0.87543
155.73158,0.87114
155.49051,0.87335
155.24944,0.87931
155.00837,0.88115
154.76730,0.87272
154.52623,0.85516
154.28516,0.83466
154.04409,0.81636
153.80302,0.80075
153.56194,0.78483
153.32087,0.76727
153.07980,0.75021
152.83873,0.73464
152.59766,0.71853
152.35659,0.70091
152.11552,0.68312
151.87445,0.66545
151.63338,0.64722
151.39231,0.62955
151.15124,0.61418
150.91017,0.60123
150.66910,0.58959
150.42803,0.57792
150.18696,0.56542
149.94589,0.55296
149.70482,0.54229
149.46375,0.53358
149.22267,0.52486
148.98160,0.51425
148.74053,0.50199
148.49946,0.49075
148.25839,0.48373
148.01732,0.48125
147.77625,0.47993
147.53518,0.47692
147.29411,0.47325
147.05304,0.47155
146.81197,0.47259
146.57090,0.47541
146.32983,0.47890
146.08876,0.48263
145.84769,0.48679
145.60662,0.49165
145.36555,0.49746
145.12448,0.50486
144.88340,0.51393
144.64233,0.52265
144.40126,0.52826
144.16019,0.53009
143.91912,0.52899
143.67805,0.52535
143.43698,0.51938
143.19591,0.51222
142.95484,0.50545
142.71377,0.49971
142.47270,0.49405
142.23163,0.48712
141.99056,0.47863
141.74949,0.46875
141.50842,0.45764
141.26735,0.44695
141.02628,0.43990
140.78521,0.43823
140.54413,0.44043
140.30306,0.44340
140.06199,0.44464
139.82092,0.44331
139.57985,0.44094
139.33878,0.44099
139.09771,0.44645
138.85664,0.45709
138.61557,0.46897
138.37450,0.47767
138.13343,0.48286
137.89236,0.48849
137.65129,0.49852
137.41022,0.51359
137.16915,0.53188
136.92808,0.55127
136.68701,0.57047
136.44594,0.58908
136.20486,0.60726
135.96379,0.62584
135.72272,0.64591
135.48165,0.66786
135.24058,0.69157
134.99951,0.71749
134.75844,0.74570
134.51737,0.77441
134.27630,0.80079
134.03523,0.82343
133.79416,0.84343
133.55309,0.86271
133.31202,0.88156
133.07095,0.89854
132.82988,0.91310
132.58881,0.92615
132.34774,0.93609
132.10667,0.93895
131.86559,0.93492
131.62452,0.92941
131.38345,0.92545
131.14238,0.92046
130.90131,0.91131
130.66024,0.89738
130.41917,0.87853
130.17810,0.85501
129.93703,0.82871
129.69596,0.80011
129.45489,0.76800
129.21382,0.73487
128.97275,0.70532
128.73168,0.67951
128.49061,0.65405
128.24954,0.62679
128.00847,0.59744
127.76740,0.56653
127.52632,0.53635
127.28525,0.51092
127.04418,0.49256
126.80311,0.47970
126.56204,0.46861
126.32097,0.45640
126.07990,0.44286
125.83883,0.42973
125.59776,0.41815
125.35669,0.40786
125.11562,0.39897
124.87455,0.39206
124.63348,0.38589
124.39241,0.37782
124.15134,0.36735
123.91027,0.35725
123.66920,0.35035
123.42812,0.34670
123.18705,0.34422
122.94598,0.34142
122.70491,0.33869
122.46384,0.33724
122.22277,0.33799
121.98170,0.34116
121.74063,0.34607
121.49956,0.35110
121.25849,0.35475
121.01742,0.35735
120.77635,0.36157
120.53528,0.37025
120.29421,0.38329
120.05314,0.39706
119.81207,0.40842
119.57100,0.41873
119.32993,0.43221
119.08885,0.45121
118.84778,0.47469
118.60671,0.50019
118.36564,0.52609
118.12457,0.55179
117.88350,0.57583
117.64243,0.59532
117.40136,0.60933
117.16029,0.62078
116.91922,0.63101
116.67815,0.63554
116.43708,0.62949
116.19601,0.61514
115.95494,0.59972
115.71387,0.58802
115.47280,0.58100
115.23173,0.57800
114.99066,0.57645
114.74958,0.57250
114.50851,0.56459
114.26744,0.55482
114.02637,0.54689
113.78530,0.54373
113.54423,0.54519
113.30316,0.54769
113.06209,0.54857
112.82102,0.54960
112.57995,0.55278
112.33888,0.55558
112.09781,0.55535
111.85674,0.55489
111.61567,0.55887
111.37460,0.56795
111.13353,0.57899
110.89246,0.58753
110.65139,0.58938
110.41031,0.58426
110.16924,0.57709
109.92817,0.57168
109.68710,0.56641
109.44603,0.55769
109.20496,0.54340
108.96389,0.52316
108.72282,0.49883
108.48175,0.47423
108.24068,0.45210
107.99961,0.43330
107.75854,0.41874
107.51747,0.40820
107.27640,0.39815
107.03533,0.38502
106.79426,0.36973
106.55319,0.35587
106.31212,0.34474
106.07104,0.33447
105.82997,0.32296
105.58890,0.31012
105.34783,0.29751
105.10676,0.28679
104.86569,0.27897
104.62462,0.27450
104.38355,0.27279
104.14248,0.27155
103.90141,0.26798
103.66034,0.26141
103.41927,0.25388
103.17820,0.24737
102.93713,0.24167
102.69606,0.23579
102.45499,0.23019
102.21392,0.22612
101.97285,0.22375
101.73177,0.22210
101.49070,0.22032
101.24963,0.21814
101.00856,0.21592
100.76749,0.21419
100.52642,0.21251
100.28535,0.20915
100.04428,0.20323
99.80321,0.19661
99.56214,0.19217
99.32107,0.19061
99.08000,0.19011
98.83893,0.18889
98.59786,0.18694
98.35679,0.18531
98.11572,0.18501
97.87465,0.18695
97.63358,0.19129
97.39250,0.19638
97.15143,0.19969
96.91036,0.20071
96.66929,0.20213
96.42822,0.20701
96.18715,0.21523
95.94608,0.22394
95.70501,0.23111
95.46394,0.23726
95.22287,0.24338
94.98180,0.24905
94.74073,0.25364
94.49966,0.25783
94.25859,0.26244
94.01752,0.26662
93.77645,0.26884
93.53538,0.26921
93.29431,0.26889
93.05323,0.26751
92.81216,0.26418
92.57109,0.26088
92.33002,0.26154
92.08895,0.26734
91.84788,0.27584
91.60681,0.28465
91.36574,0.29358
91.12467,0.30362
90.88360,0.31619
90.64253,0.33343
90.40146,0.35703
90.16039,0.38671
89.91932,0.42079
89.67825,0.45802
89.43718,0.49742
89.19611,0.53601
88.95504,0.56820
88.71396,0.58883
88.47289,0.59498
88.23182,0.58453
87.99075,0.55671
87.74968,0.51600
87.50861,0.47183
87.26754,0.43208
87.02647,0.39885
86.78540,0.36887
86.54433,0.33784
86.30326,0.30640
86.06219,0.27975
85.82112,0.26009
85.58005,0.24359
85.33898,0.22669
85.09791,0.21083
84.85684,0.19819
84.61577,0.18757
84.37469,0.17734
84.13362,0.16821
83.89255,0.16117
83.65148,0.15562
83.41041,0.15070
83.16934,0.14670
82.92827,0.14421
82.68720,0.14249
82.44613,0.13984
82.20506,0.13569
81.96399,0.13147
81.72292,0.12889
81.48185,0.12850
81.24078,0.12981
80.99971,0.13121
80.75864,0.13047
80.51757,0.12682
80.27650,0.12189
80.03542,0.11753
79.79435,0.11423
79.55328,0.11196
79.31221,0.11129
79.07114,0.11265
78.83007,0.11501
78.58900,0.11578
78.34793,0.11315
78.10686,0.10817
77.86579,0.10345
77.62472,0.10038
77.38365,0.09867
77.14258,0.09764
76.90151,0.09689
76.66044,0.09625
76.41937,0.09574
76.17830,0.09516
75.93723,0.09381
75.69615,0.09117
75.45508,0.08827
75.21401,0.08755
74.97294,0.09078
74.73187,0.09712
74.49080,0.10348
74.24973,0.10659
74.00866,0.10550
73.76759,0.10253
73.52652,0.10086
73.28545,0.10110
73.04438,0.10126
72.80331,0.09979
72.56224,0.09747
72.32117,0.09635
72.08010,0.09776
71.83903,0.10085
71.59796,0.10347
71.35688,0.10488
71.11581,0.10650
70.87474,0.10974
70.63367,0.11517
70.39260,0.12379
70.15153,0.13617
69.91046,0.15006
69.66939,0.16156
69.42832,0.16901
69.18725,0.17385
68.94618,0.17696
68.70511,0.17645
68.46404,0.16974
68.22297,0.15685
67.98190,0.14145
67.74083,0.12812
67.49976,0.11855
67.25869,0.11115
67.01761,0.10452
66.77654,0.09912
66.53547,0.09561
66.29440,0.09380
66.05333,0.09323
65.81226,0.09295
65.57119,0.09195
65.33012,0.09147
65.08905,0.09409
64.84798,0.09999
64.60691,0.10687
64.36584,0.11335
64.12477,0.11906
63.88370,0.12220
63.64263,0.12116
63.40156,0.11739
63.16049,0.11326
62.91942,0.10847
62.67834,0.10159
62.43727,0.09361
62.19620,0.08744
61.95513,0.08454
61.71406,0.08428
61.47299,0.08520
61.23192,0.08525
60.99085,0.08272
60.74978,0.07823
60.50871,0.07421
60.26764,0.07223
60.02657,0.07226
59.78550,0.07394
59.54443,0.07630
59.30336,0.07757
59.06229,0.07695
58.82122,0.07557
58.58015,0.07476
58.33907,0.07415
58.09800,0.07271
57.85693,0.07082
57.61586,0.06994
57.37479,0.07016
57.13372,0.06944
56.89265,0.06597
56.65158,0.06060
56.41051,0.05664
56.16944,0.05705
55.92837,0.06121
55.68730,0.06522
55.44623,0.06580
55.20516,0.06364
54.96409,0.06212
54.72302,0.06360
54.48195,0.06743
54.24088,0.07150
53.99980,0.07514
53.75873,0.07973
53.51766,0.08571
53.27659,0.08963
53.03552,0.08698
52.79445,0.07844
52.55338,0.06984
52.31231,0.06492
52.07124,0.06230
51.83017,0.05998
51.58910,0.05792
51.34803,0.05587
51.10696,0.05302
50.86589,0.05027
50.62482,0.04977
50.38375,0.05204
50.14268,0.05498
49.90161,0.05489
49.66053,0.04925
49.41946,0.04047
49.17839,0.03484
48.93732,0.03504
48.69625,0.03549
48.45518,0.02885
48.21411,0.01558
47.97304,0.00378
47.73197,0.00090
47.49090,0.00778
47.24983,0.01901
47.00876,0.02674
46.76769,0.02669
46.52662,0.02250
46.28555,0.02164
46.04448,0.02673
45.80341,0.03376
45.56234,0.03814
45.32126,0.03879
45.08019,0.03732
44.83912,0.03493
44.59805,0.03075
44.35698,0.02448
44.11591,0.01937
43.87484,0.02035
43.63377,0.02830
43.39270,0.03648
43.15163,0.03573
42.91056,0.02465
42.66949,0.01048
42.42842,0.00006
42.18735,-0.00426
41.94628,-0.00137
41.70521,0.00745
41.46414,0.01518
41.22307,0.01448
40.98199,0.00629
40.74092,-0.00190
40.49985,-0.00528
40.25878,-0.00520
40.01771,-0.00372
39.77664,0.00181
39.53557,0.01417
39.29450,0.02762
39.05343,0.03276
38.81236,0.02970
38.57129,0.02528
38.33022,0.01970
38.08915,0.01037
37.84808,0.00705
37.60701,0.02351
37.36594,0.05198
37.12487,0.06666
36.88380,0.05380
36.64272,0.02002
36.40165,-0.01781
36.16058,-0.03929
35.91951,-0.03085
35.67844,0.00035
35.43737,0.03398
35.19630,0.05733
34.95523,0.07357
34.71416,0.09146
34.47309,0.10689
34.23202,0.10337
33.99095,0.07683
33.74988,0.05262
33.50881,0.06161
33.26774,0.10372
33.02667,0.15232
32.78560,0.18630
32.54453,0.20164
32.30345,0.20014
32.06238,0.18463
31.82131,0.15947
31.58024,0.12888
31.33917,0.09942
31.09810,0.08280
30.85703,0.08499
30.61596,0.09086
30.37489,0.08150
30.13382,0.06047
29.89275,0.05074
29.65168,0.06674
29.41061,0.09418
29.16954,0.10723
28.92847,0.09473
28.68740,0.06544
28.44633,0.03893
28.20526,0.03343
27.96418,0.05377
27.72311,0.09570
27.48204,0.14882
27.24097,0.20081
26.99990,0.24220
26.75883,0.25564
26.51776,0.22566
26.27669,0.17454
26.03562,0.14786
25.79455,0.16370
25.55348,0.20561
25.31241,0.24226
25.07134,0.24852
24.83027,0.22143
24.58920,0.18273
24.34813,0.16954
24.10706,0.20357
23.86599,0.26427
23.62491,0.31276
23.38384,0.34895
23.14277,0.39201
22.90170,0.45119
22.66063,0.51906
22.41956,0.54480
22.17849,0.47658
21.93742,0.36080
21.69635,0.27812
21.45528,0.29076
21.21421,0.39454
20.97314,0.49499
20.73207,0.52355
20.49100,0.52088
20.24993,0.50629
20.00886,0.45532
19.76779,0.40119
19.52672,0.39198
19.28564,0.43053
19.04457,0.52724
18.80350,0.67184
18.56243,0.73423
18.32136,0.62699
18.08029,0.49803
17.83922,0.47194
17.59815,0.53982
17.35708,0.61888
17.11601,0.67056
16.87494,0.72594
16.63387,0.78517
16.39280,0.81469
16.15173,0.77063
15.91066,0.68782
15.66959,0.67482
15.42852,0.72541
15.18745,0.77241
14.94637,0.77692
14.70530,0.74559
14.46423,0.75412
14.22316,0.83198
13.98209,0.86311
13.74102,0.80321
13.49995,0.73804
13.25888,0.61042
13.01781,0.55110
12.77674,0.58340
12.53567,0.63208
12.29460,0.72669
12.05353,0.90082
11.81246,0.81988
11.57139,0.65923
11.33032,0.56720
11.08925,0.51834
10.84818,0.46321
10.60710,0.38830
10.36603,0.38049
10.12496,0.50063
9.88389,0.65659
9.64282,0.64214
9.40175,0.52090
9.16068,0.49000
8.91961,0.57830
8.67854,0.65211
8.43747,0.64284
8.19640,0.70559
7.95533,0.76480
7.71426,0.65742
7.47319,0.63448
7.23212,0.70189
6.99105,0.76401
6.74998,0.83751
6.50891,0.78431
6.26783,0.67772
6.02676,0.69484
5.78569,0.94648
5.54462,0.91300
5.30355,0.46366
5.06248,0.29352
4.82141,0.28820
4.58034,0.37303
4.33927,0.59533
4.09820,0.97559
3.85713,1.16890
3.61606,0.95573
3.37499,0.78056
3.13392,0.69483
2.89285,0.70284
2.65178,0.81645
2.41071,0.95031
2.16964,0.92782
1.92856,0.87141
1.68749,0.86819
1.44642,0.70720
1.20535,0.57842
0.96428,0.60937
0.72321,0.87743
0.48214,1.29119
0.24107,1.32383
-0.00000,0.82387
