399.69498,1.61881
399.45391,1.62166
399.21284,1.63298
398.97177,1.64349
398.73070,1.64659
398.48963,1.64717
398.24856,1.64989
398.00749,1.65305
397.76642,1.65660
397.52535,1.66659
397.28428,1.68946
397.04321,1.72258
396.80214,1.74942
396.56107,1.75722
396.32000,1.75312
396.07892,1.74708
395.83785,1.73447
395.59678,1.70901
395.35571,1.68021
395.11464,1.66366
394.87357,1.66463
394.63250,1.67826
394.39143,1.69651
394.15036,1.71107
393.90929,1.71805
393.66822,1.72207
393.42715,1.73496
393.18608,1.76567
392.94501,1.80798
392.70394,1.84730
392.46287,1.88428
392.22180,1.93198
391.98073,1.98460
391.73965,2.01084
391.49858,2.01013
391.25751,2.01772
391.01644,2.04761
390.77537,2.09643
390.53430,2.15557
390.29323,2.17685
390.05216,2.12486
389.81109,2.08541
389.57002,2.11898
389.32895,2.18271
389.08788,2.22981
388.84681,2.25054
388.60574,2.24710
388.36467,2.24051
388.12360,2.29887
387.88253,2.42951
387.64146,2.40843
387.40038,2.30428
387.15931,2.33808
386.91824,2.59968
386.67717,2.83887
386.43610,2.48414
386.19503,2.29321
385.95396,2.26256
385.71289,2.31390
385.47182,2.42302
385.23075,2.60815
384.98968,2.75241
384.74861,2.41751
384.50754,2.19486
384.26647,2.13265
384.02540,2.12319
383.78433,2.16174
383.54326,2.23253
383.30219,2.28352
383.06111,2.27770
382.82004,2.28513
382.57897,2.27142
382.33790,2.28360
382.09683,2.30207
381.85576,2.18766
381.61469,2.04456
381.37362,1.95891
381.13255,1.91818
380.89148,1.95016
380.65041,2.07435
380.40934,2.23041
380.16827,2.33527
379.92720,2.39360
379.68613,2.22677
379.44506,2.15819
379.20399,2.12760
378.96292,2.10490
378.72184,2.11961
378.48077,2.10557
378.23970,2.03750
377.99863,2.00861
377.75756,2.03348
377.51649,2.11185
377.27542,2.16641
377.03435,2.15219
376.79328,2.12465
376.55221,2.11199
376.31114,2.12223
376.07007,2.15571
375.82900,2.22364
375.58793,2.34989
375.34686,2.48632
375.10579,2.58042
374.86472,2.51527
374.62365,2.37972
374.38257,2.28043
374.14150,2.19858
373.90043,2.09915
373.65936,1.99007
373.41829,1.90450
373.17722,1.85746
372.93615,1.83262
372.69508,1.80786
372.45401,1.78019
372.21294,1.74890
371.97187,1.70336
371.73080,1.64453
371.48973,1.59279
371.24866,1.56395
371.00759,1.55290
370.76652,1.54245
370.52545,1.52092
370.28437,1.49032
370.04330,1.46035
369.80223,1.43889
369.56116,1.42799
369.32009,1.42454
369.07902,1.42275
368.83795,1.41634
368.59688,1.40038
368.35581,1.37671
368.11474,1.35667
367.87367,1.35092
367.63260,1.35676
367.39153,1.35921
367.15046,1.34721
366.90939,1.32639
366.66832,1.31010
366.42725,1.30323
366.18618,1.29957
365.94510,1.29237
365.70403,1.28182
365.46296,1.27307
365.22189,1.27168
364.98082,1.28014
364.73975,1.29304
364.49868,1.29774
364.25761,1.28730
364.01654,1.26944
363.77547,1.25666
363.53440,1.25370
363.29333,1.25784
363.05226,1.26511
362.81119,1.27247
362.57012,1.27655
362.32905,1.27442
362.08798,1.26635
361.84691,1.25594
361.60583,1.24616
361.36476,1.23628
361.12369,1.22487
360.88262,1.21436
360.64155,1.20925
360.40048,1.21092
360.15941,1.21682
359.91834,1.22351
359.67727,1.22952
359.43620,1.23526
359.19513,1.24084
358.95406,1.24439
358.71299,1.24377
358.47192,1.23893
358.23085,1.23166
357.98978,1.22448
357.74871,1.21967
357.50764,1.21835
357.26656,1.22043
357.02549,1.22539
356.78442,1.23127
356.54335,1.23352
356.30228,1.22952
356.06121,1.22401
355.82014,1.22375
355.57907,1.22831
355.33800,1.23227
355.09693,1.23342
354.85586,1.23356
354.61479,1.23308
354.37372,1.23048
354.13265,1.22698
353.89158,1.22701
353.65051,1.23276
353.40944,1.24127
353.16837,1.24781
352.92729,1.25005
352.68622,1.24885
352.44515,1.24675
352.20408,1.24540
351.96301,1.24385
351.72194,1.24136
351.48087,1.24104
351.23980,1.24655
350.99873,1.25688
350.75766,1.26674
350.51659,1.27127
350.27552,1.26940
350.03445,1.26389
349.79338,1.26055
349.55231,1.26478
349.31124,1.27579
349.07017,1.28575
348.82910,1.28722
348.58802,1.28164
348.34695,1.27747
348.10588,1.27933
347.86481,1.28337
347.62374,1.28492
347.38267,1.28587
347.14160,1.29171
346.90053,1.30287
346.65946,1.31205
346.41839,1.31258
346.17732,1.30782
345.93625,1.30779
345.69518,1.31719
345.45411,1.33157
345.21304,1.34304
344.97197,1.34797
344.73090,1.35014
344.48983,1.35508
344.24875,1.36249
344.00768,1.36832
343.76661,1.37174
343.52554,1.37395
343.28447,1.37528
343.04340,1.37774
342.80233,1.38593
342.56126,1.40158
342.32019,1.42037
342.07912,1.43905
341.83805,1.46150
341.59698,1.49072
341.35591,1.51630
341.11484,1.52181
340.87377,1.51130
340.63270,1.50799
340.39163,1.52392
340.15056,1.54824
339.90948,1.56800
339.66841,1.58938
339.42734,1.62650
339.18627,1.67432
338.94520,1.70440
338.70413,1.70280
338.46306,1.69526
338.22199,1.70496
337.98092,1.72142
337.73985,1.73081
337.49878,1.74454
337.25771,1.78168
337.01664,1.83895
336.77557,1.88818
336.53450,1.90242
336.29343,1.87815
336.05236,1.83226
335.81129,1.79491
335.57021,1.78330
335.32914,1.79326
335.08807,1.81471
334.84700,1.83192
334.60593,1.82331
334.36486,1.78834
334.12379,1.74905
333.88272,1.72039
333.64165,1.69457
333.40058,1.65953
333.15951,1.62499
332.91844,1.60818
332.67737,1.61242
332.43630,1.62903
332.19523,1.64452
331.95416,1.64537
331.71309,1.63000
331.47202,1.61311
331.23094,1.60596
330.98987,1.60256
330.74880,1.59024
330.50773,1.56571
330.26666,1.53535
330.02559,1.50884
329.78452,1.49450
329.54345,1.49344
329.30238,1.49727
329.06131,1.49630
328.82024,1.48996
328.57917,1.48236
328.33810,1.47537
328.09703,1.47025
327.85596,1.47199
327.61489,1.48780
327.37382,1.51678
327.13275,1.54375
326.89167,1.55188
326.65060,1.54464
326.40953,1.54123
326.16846,1.55542
325.92739,1.58725
325.68632,1.62384
325.44525,1.65360
325.20418,1.67917
324.96311,1.70488
324.72204,1.71983
324.48097,1.71307
324.23990,1.69176
323.99883,1.66866
323.75776,1.65505
323.51669,1.65502
323.27562,1.66586
323.03455,1.68341
322.79348,1.71060
322.55240,1.75411
322.31133,1.80482
322.07026,1.84214
321.82919,1.86202
321.58812,1.87558
321.34705,1.90100
321.10598,1.94165
320.86491,1.99000
320.62384,2.06297
320.38277,2.11369
320.14170,2.09277
319.90063,2.02926
319.65956,1.94819
319.41849,1.87479
319.17742,1.85119
318.93635,1.89766
318.69528,1.97210
318.45421,1.98534
318.21313,1.92055
317.97206,1.84722
317.73099,1.81303
317.48992,1.81231
317.24885,1.81712
317.00778,1.81911
316.76671,1.82333
316.52564,1.82211
316.28457,1.81077
316.04350,1.80609
315.80243,1.82682
315.56136,1.89376
315.32029,2.01167
315.07922,2.11993
314.83815,2.12558
314.59708,2.08463
314.35601,2.07689
314.11494,2.10872
313.87386,2.16401
313.63279,2.26910
313.39172,2.43851
313.15065,2.44353
312.90958,2.35288
312.66851,2.34632
312.42744,2.29730
312.18637,2.23857
311.94530,2.26265
311.70423,2.36540
311.46316,2.44894
311.22209,2.47397
310.98102,2.44635
310.73995,2.38681
310.49888,2.35436
310.25781,2.33454
310.01674,2.28859
309.77567,2.23734
309.53459,2.15975
309.29352,2.09654
309.05245,2.06822
308.81138,2.06288
308.57031,2.06294
308.32924,2.04092
308.08817,1.98674
307.84710,1.93217
307.60603,1.89646
307.36496,1.87828
307.12389,1.85926
306.88282,1.81805
306.64175,1.76685
306.40068,1.72707
306.15961,1.69421
305.91854,1.65204
305.67747,1.60371
305.43640,1.56939
305.19532,1.55812
304.95425,1.55751
304.71318,1.55167
304.47211,1.54132
304.23104,1.53574
303.98997,1.53101
303.74890,1.51086
303.50783,1.47370
303.26676,1.43565
303.02569,1.40742
302.78462,1.38834
302.54355,1.37529
302.30248,1.36534
302.06141,1.35391
301.82034,1.33923
301.57927,1.32423
301.33820,1.30875
301.09713,1.28816
300.85605,1.26381
300.61498,1.24384
300.37391,1.23149
300.13284,1.22224
299.89177,1.21250
299.65070,1.20395
299.40963,1.19736
299.16856,1.18914
298.92749,1.17759
298.68642,1.16620
298.44535,1.15704
298.20428,1.14724
297.96321,1.13544
297.72214,1.12554
297.48107,1.12142
297.24000,1.12223
296.99893,1.12406
296.75786,1.12289
296.51678,1.11690
296.27571,1.10809
296.03464,1.10006
295.79357,1.09431
295.55250,1.09046
295.31143,1.08808
295.07036,1.08650
294.82929,1.08382
294.58822,1.07805
294.34715,1.06917
294.10608,1.05947
293.86501,1.05205
293.62394,1.04853
293.38287,1.04758
293.14180,1.04619
292.90073,1.04236
292.65966,1.03679
292.41859,1.03218
292.17751,1.03070
291.93644,1.03142
291.69537,1.03092
291.45430,1.02687
291.21323,1.02027
290.97216,1.01411
290.73109,1.01000
290.49002,1.00687
290.24895,1.00302
290.00788,0.99878
289.76681,0.99628
289.52574,0.99650
289.28467,0.99776
289.04360,0.99777
288.80253,0.99633
288.56146,0.99470
288.32039,0.99318
288.07932,0.99072
287.83824,0.98680
287.59717,0.98282
287.35610,0.98099
287.11503,0.98197
286.87396,0.98406
286.63289,0.98426
286.39182,0.98043
286.15075,0.97318
285.90968,0.96623
285.66861,0.96355
285.42754,0.96514
285.18647,0.96677
284.94540,0.96486
284.70433,0.95996
284.46326,0.95499
284.22219,0.95230
283.98112,0.95230
283.74005,0.95355
283.49897,0.95418
283.25790,0.95382
283.01683,0.95381
282.77576,0.95551
282.53469,0.95849
282.29362,0.96040
282.05255,0.95872
281.81148,0.95376
281.57041,0.94884
281.32934,0.94686
281.08827,0.94750
280.84720,0.94792
280.60613,0.94550
280.36506,0.94046
280.12399,0.93613
279.88292,0.93621
279.64185,0.94130
279.40078,0.94802
279.15970,0.95217
278.91863,0.95263
278.67756,0.95138
278.43649,0.95025
278.19542,0.94934
277.95435,0.94896
277.71328,0.95047
277.47221,0.95348
277.23114,0.95456
276.99007,0.95148
276.74900,0.94639
276.50793,0.94254
276.26686,0.94035
276.02579,0.93871
275.78472,0.93762
275.54365,0.93787
275.30258,0.93962
275.06151,0.94262
274.82043,0.94621
274.57936,0.94884
274.33829,0.94942
274.09722,0.94943
273.85615,0.95169
273.61508,0.95670
273.37401,0.96220
273.13294,0.96643
272.89187,0.96938
272.65080,0.97130
272.40973,0.97233
272.16866,0.97319
271.92759,0.97403
271.68652,0.97413
271.44545,0.97361
271.20438,0.97338
270.96331,0.97372
270.72224,0.97437
270.48116,0.97521
270.24009,0.97601
269.99902,0.97651
269.75795,0.97701
269.51688,0.97792
269.27581,0.97931
269.03474,0.98156
268.79367,0.98515
268.55260,0.98945
268.31153,0.99287
268.07046,0.99532
267.82939,0.99934
267.58832,1.00771
267.34725,1.02000
267.10618,1.03241
266.86511,1.04098
266.62404,1.04495
266.38297,1.04680
266.14189,1.04924
265.90082,1.05263
265.65975,1.05564
265.41868,1.05847
265.17761,1.06266
264.93654,1.06804
264.69547,1.07290
264.45440,1.07750
264.21333,1.08414
263.97226,1.09365
263.73119,1.10434
263.49012,1.11516
263.24905,1.12707
263.00798,1.14024
262.76691,1.15208
262.52584,1.16013
262.28477,1.16543
262.04370,1.17142
261.80262,1.18092
261.56155,1.19490
261.32048,1.21135
261.07941,1.22569
260.83834,1.23595
260.59727,1.24600
260.35620,1.26017
260.11513,1.27792
259.87406,1.29581
259.63299,1.31187
259.39192,1.32698
259.15085,1.34425
258.90978,1.36721
258.66871,1.39681
258.42764,1.42963
258.18657,1.46004
257.94550,1.48512
257.70443,1.50710
257.46335,1.52937
257.22228,1.55142
256.98121,1.57041
256.74014,1.58805
256.49907,1.61160
256.25800,1.64603
256.01693,1.68807
255.77586,1.72667
255.53479,1.75192
255.29372,1.76707
255.05265,1.78446
254.81158,1.81252
254.57051,1.85472
254.32944,1.91832
254.08837,2.00840
253.84730,2.10300
253.60623,2.16105
253.36516,2.18251
253.12408,2.19918
252.88301,2.21382
252.64194,2.21294
252.40087,2.21325
252.15980,2.23859
251.91873,2.29801
251.67766,2.38186
251.43659,2.43058
251.19552,2.41262
250.95445,2.40289
250.71338,2.36696
250.47231,2.31372
250.23124,2.30462
249.99017,2.37189
249.74910,2.52686
249.50803,2.68018
249.26696,2.70235
249.02589,2.59557
248.78481,2.45518
248.54374,2.40098
248.30267,2.42764
248.06160,2.48065
247.82053,2.45448
247.57946,2.36390
247.33839,2.34983
247.09732,2.37090
246.85625,2.35862
246.61518,2.30806
246.37411,2.24797
246.13304,2.16572
245.89197,2.07742
245.65090,2.01941
245.40983,1.98904
245.16876,1.95645
244.92769,1.91608
244.68661,1.87306
244.44554,1.82329
244.20447,1.76755
243.96340,1.70760
243.72233,1.64488
243.48126,1.58347
243.24019,1.52607
242.99912,1.47426
242.75805,1.42853
242.51698,1.38577
242.27591,1.34042
242.03484,1.28995
241.79377,1.23722
241.55270,1.18742
241.31163,1.14434
241.07056,1.10841
240.82949,1.07681
240.58842,1.04602
240.34734,1.01516
240.10627,0.98636
239.86520,0.96178
239.62413,0.94098
239.38306,0.92118
239.14199,0.89980
238.90092,0.87691
238.65985,0.85487
238.41878,0.83580
238.17771,0.81980
237.93664,0.80544
237.69557,0.79127
237.45450,0.77669
237.21343,0.76214
236.97236,0.74871
236.73129,0.73729
236.49022,0.72798
236.24915,0.72036
236.00807,0.71387
235.76700,0.70809
235.52593,0.70292
235.28486,0.69809
235.04379,0.69296
234.80272,0.68765
234.56165,0.68358
234.32058,0.68147
234.07951,0.67983
233.83844,0.67696
233.59737,0.67322
233.35630,0.66988
233.11523,0.66732
232.87416,0.66543
232.63309,0.66438
232.39202,0.66411
232.15095,0.66409
231.90988,0.66364
231.66880,0.66204
231.42773,0.65867
231.18666,0.65382
230.94559,0.64916
230.70452,0.64671
230.46345,0.64696
230.22238,0.64838
229.98131,0.64886
229.74024,0.64798
229.49917,0.64691
229.25810,0.64624
229.01703,0.64532
228.77596,0.64382
228.53489,0.64230
228.29382,0.64125
228.05275,0.64068
227.81168,0.64061
227.57061,0.64090
227.32953,0.64101
227.08846,0.64070
226.84739,0.64030
226.60632,0.64017
226.36525,0.64078
226.12418,0.64265
225.88311,0.64554
225.64204,0.64823
225.40097,0.64977
225.15990,0.65039
224.91883,0.65093
224.67776,0.65217
224.43669,0.65434
224.19562,0.65718
223.95455,0.66007
223.71348,0.66266
223.47241,0.66531
223.23134,0.66882
222.99026,0.67344
222.74919,0.67858
222.50812,0.68377
222.26705,0.68923
222.02598,0.69488
221.78491,0.69973
221.54384,0.70332
221.30277,0.70702
221.06170,0.71288
220.82063,0.72107
220.57956,0.72950
220.33849,0.73618
220.09742,0.74168
219.85635,0.74828
219.61528,0.75718
219.37421,0.76777
219.13314,0.77892
218.89207,0.78986
218.65099,0.80007
218.40992,0.80982
218.16885,0.82057
217.92778,0.83348
217.68671,0.84749
217.44564,0.86027
217.20457,0.87122
216.96350,0.88160
216.72243,0.89172
216.48136,0.90032
216.24029,0.90725
215.99922,0.91483
215.75815,0.92535
215.51708,0.93853
215.27601,0.95192
215.03494,0.96321
214.79387,0.97191
214.55280,0.97963
214.31172,0.98902
214.07065,1.00165
213.82958,1.01589
213.58851,1.02784
213.34744,1.03546
213.10637,1.04025
212.86530,1.04449
212.62423,1.04874
212.38316,1.05279
212.14209,1.05762
211.90102,1.06428
211.65995,1.07126
211.41888,1.07512
211.17781,1.07521
210.93674,1.07486
210.69567,1.07695
210.45460,1.08097
210.21353,1.08485
209.97245,1.08661
209.73138,1.08452
209.49031,1.07869
209.24924,1.07164
209.00817,1.06574
208.76710,1.06167
208.52603,1.05967
208.28496,1.05934
208.04389,1.05821
207.80282,1.05350
207.56175,1.04509
207.32068,1.03525
207.07961,1.02640
206.83854,1.01947
206.59747,1.01326
206.35640,1.00595
206.11533,0.99705
205.87426,0.98714
205.63318,0.97657
205.39211,0.96600
205.15104,0.95657
204.90997,0.94804
204.66890,0.93856
204.42783,0.92735
204.18676,0.91560
203.94569,0.90420
203.70462,0.89292
203.46355,0.88173
203.22248,0.87106
202.98141,0.86050
202.74034,0.84861
202.49927,0.83495
202.25820,0.82152
202.01713,0.81049
201.77606,0.80091
201.53499,0.78937
201.29391,0.77440
201.05284,0.75848
200.81177,0.74469
200.57070,0.73362
200.32963,0.72413
200.08856,0.71515
199.84749,0.70598
199.60642,0.69620
199.36535,0.68585
199.12428,0.67537
198.88321,0.66548
198.64214,0.65680
198.40107,0.64893
198.16000,0.64054
197.91893,0.63096
197.67786,0.62108
197.43679,0.61213
197.19572,0.60447
196.95464,0.59804
196.71357,0.59275
196.47250,0.58794
196.23143,0.58233
195.99036,0.57532
195.74929,0.56773
195.50822,0.56065
195.26715,0.55434
195.02608,0.54864
194.78501,0.54342
194.54394,0.53826
194.30287,0.53287
194.06180,0.52782
193.82073,0.52350
193.57966,0.51905
193.33859,0.51364
193.09752,0.50796
192.85645,0.50311
192.61537,0.49924
192.37430,0.49619
192.13323,0.49377
191.89216,0.49114
191.65109,0.48733
191.41002,0.48257
191.16895,0.47806
190.92788,0.47453
190.68681,0.47209
190.44574,0.47059
190.20467,0.46942
189.96360,0.46761
189.72253,0.46502
189.48146,0.46257
189.24039,0.46085
188.99932,0.45947
188.75825,0.45824
188.51718,0.45796
188.27610,0.45897
188.03503,0.45992
187.79396,0.45932
187.55289,0.45775
187.31182,0.45683
187.07075,0.45659
186.82968,0.45561
186.58861,0.45346
186.34754,0.45168
186.10647,0.45196
185.86540,0.45400
185.62433,0.45578
185.38326,0.45586
185.14219,0.45478
184.90112,0.45419
184.66005,0.45501
184.41898,0.45676
184.17791,0.45836
183.93683,0.45948
183.69576,0.46090
183.45469,0.46319
183.21362,0.46572
182.97255,0.46743
182.73148,0.46804
182.49041,0.46806
182.24934,0.46806
182.00827,0.46841
181.76720,0.46951
181.52613,0.47167
181.28506,0.47471
181.04399,0.47803
180.80292,0.48138
180.56185,0.48487
180.32078,0.48798
180.07971,0.49003
179.83864,0.49162
179.59756,0.49439
179.35649,0.49911
179.11542,0.50508
178.87435,0.51124
178.63328,0.51744
178.39221,0.52447
178.15114,0.53302
177.91007,0.54261
177.66900,0.55224
177.42793,0.56190
177.18686,0.57281
176.94579,0.58595
176.70472,0.60114
176.46365,0.61717
176.22258,0.63270
175.98151,0.64718
175.74044,0.66111
175.49937,0.67593
175.25829,0.69330
175.01722,0.71371
174.77615,0.73575
174.53508,0.75705
174.29401,0.77595
174.05294,0.79216
173.81187,0.80657
173.57080,0.82023
173.32973,0.83318
173.08866,0.84496
172.84759,0.85574
172.60652,0.86548
172.36545,0.87261
172.12438,0.87576
171.88331,0.87626
171.64224,0.87661
171.40117,0.87737
171.16010,0.87712
170.91902,0.87462
170.67795,0.86949
170.43688,0.86199
170.19581,0.85351
169.95474,0.84630
169.71367,0.84155
169.47260,0.83847
169.23153,0.83540
168.99046,0.83126
168.74939,0.82611
168.50832,0.82064
168.26725,0.81493
168.02618,0.80896
167.78511,0.80426
167.54404,0.80280
167.30297,0.80421
167.06190,0.80612
166.82083,0.80724
166.57975,0.80846
166.33868,0.81121
166.09761,0.81591
165.85654,0.82189
165.61547,0.82853
165.37440,0.83635
165.13333,0.84605
164.89226,0.85654
164.65119,0.86535
164.41012,0.87155
164.16905,0.87741
163.92798,0.88607
163.68691,0.89812
163.44584,0.91117
163.20477,0.92290
162.96370,0.93304
162.72263,0.94233
162.48156,0.95112
162.24048,0.95933
161.99941,0.96636
161.75834,0.97088
161.51727,0.97183
161.27620,0.96961
161.03513,0.96653
160.79406,0.96502
160.55299,0.96497
160.31192,0.96398
160.07085,0.96071
159.82978,0.95617
159.58871,0.95087
159.34764,0.94369
159.10657,0.93480
158.86550,0.92697
158.62443,0.92257
158.38336,0.92058
158.14229,0.91719
157.90121,0.90975
157.66014,0.89992
157.41907,0.89200
157.17800,0.88844
156.93693,0.88723
156.69586,0.88452
156.45479,0.87923
156.21372,0.87395
155.97265,0.87118
155.73158,0.87015
155.49051,0.86818
155.24944,0.86380
155.00837,0.85688
154.76730,0.84717
154.52623,0.83445
154.28516,0.81943
154.04409,0.80352
153.80302,0.78820
153.56194,0.77392
153.32087,0.75944
153.07980,0.74352
152.83873,0.72663
152.59766,0.70970
152.35659,0.69257
152.11552,0.67544
151.87445,0.65972
151.63338,0.64593
151.39231,0.63285
151.15124,0.61941
150.91017,0.60580
150.66910,0.59215
150.42803,0.57786
150.18696,0.56259
149.94589,0.54750
149.70482,0.53458
149.46375,0.52477
149.22267,0.51722
148.98160,0.51061
148.74053,0.50442
148.49946,0.49843
148.25839,0.49216
148.01732,0.48579
147.77625,0.48049
147.53518,0.47712
147.29411,0.47546
147.05304,0.47490
146.81197,0.47509
146.57090,0.47603
146.32983,0.47783
146.08876,0.48040
145.84769,0.48333
145.60662,0.48638
145.36555,0.49005
145.12448,0.49520
144.88340,0.50194
144.64233,0.50911
144.40126,0.51500
144.16019,0.51887
143.91912,0.52140
143.67805,0.52307
143.43698,0.52276
143.19591,0.51888
142.95484,0.51141
142.71377,0.50181
142.47270,0.49153
142.23163,0.48106
141.99056,0.47052
141.74949,0.46056
141.50842,0.45222
141.26735,0.44605
141.02628,0.44165
140.78521,0.43818
140.54413,0.43503
140.30306,0.43247
140.06199,0.43157
139.82092,0.43316
139.57985,0.43725
139.33878,0.44334
139.09771,0.45069
138.85664,0.45827
138.61557,0.46545
138.37450,0.47250
138.13343,0.48018
137.89236,0.48912
137.65129,0.49994
137.41022,0.51315
137.16915,0.52848
136.92808,0.54512
136.68701,0.56315
136.44594,0.58374
136.20486,0.60720
135.96379,0.63177
135.72272,0.65542
135.48165,0.67790
135.24058,0.70024
134.99951,0.72383
134.75844,0.75018
134.51737,0.77932
134.27630,0.80884
134.03523,0.83592
133.79416,0.85983
133.55309,0.88118
133.31202,0.90012
133.07095,0.91606
132.82988,0.92837
132.58881,0.93734
132.34774,0.94452
132.10667,0.95070
131.86559,0.95348
131.62452,0.94899
131.38345,0.93680
131.14238,0.92112
130.90131,0.90587
130.66024,0.89047
130.41917,0.87231
130.17810,0.85084
129.93703,0.82671
129.69596,0.79953
129.45489,0.76901
129.21382,0.73632
128.97275,0.70276
128.73168,0.66921
128.49061,0.63704
128.24954,0.60777
128.00847,0.58190
127.76740,0.55885
127.52632,0.53781
127.28525,0.51837
127.04418,0.50030
126.80311,0.48323
126.56204,0.46663
126.32097,0.45039
126.07990,0.43516
125.83883,0.42181
125.59776,0.41064
125.35669,0.40115
125.11562,0.39257
124.87455,0.38433
124.63348,0.37624
124.39241,0.36852
124.15134,0.36150
123.91027,0.35510
123.66920,0.34914
123.42812,0.34401
123.18705,0.34054
122.94598,0.33911
122.70491,0.33927
122.46384,0.34038
122.22277,0.34203
121.98170,0.34371
121.74063,0.34498
121.49956,0.34641
121.25849,0.34948
121.01742,0.35507
120.77635,0.36263
120.53528,0.37132
120.29421,0.38127
120.05314,0.39324
119.81207,0.40731
119.57100,0.42285
119.32993,0.43976
119.08885,0.45889
118.84778,0.48063
118.60671,0.50420
118.36564,0.52872
118.12457,0.55386
117.88350,0.57875
117.64243,0.60173
117.40136,0.62157
117.16029,0.63733
116.91922,0.64747
116.67815,0.65108
116.43708,0.64924
116.19601,0.64336
115.95494,0.63341
115.71387,0.61927
115.47280,0.60252
115.23173,0.58564
114.99066,0.57069
114.74958,0.55909
114.50851,0.55129
114.26744,0.54623
114.02637,0.54210
113.78530,0.53828
113.54423,0.53563
113.30316,0.53486
113.06209,0.53544
112.82102,0.53649
112.57995,0.53818
112.33888,0.54192
112.09781,0.54894
111.85674,0.55847
111.61567,0.56781
111.37460,0.57516
111.13353,0.58134
110.89246,0.58756
110.65139,0.59212
110.41031,0.59131
110.16924,0.58397
109.92817,0.57270
109.68710,0.56045
109.44603,0.54753
109.20496,0.53258
108.96389,0.51479
108.72282,0.49497
108.48175,0.47485
108.24068,0.45561
107.99961,0.43710
107.75854,0.41893
107.51747,0.40177
107.27640,0.38669
107.03533,0.37374
106.79426,0.36205
106.55319,0.35103
106.31212,0.34046
106.07104,0.32990
105.82997,0.31911
105.58890,0.30870
105.34783,0.29979
105.10676,0.29287
104.86569,0.28720
104.62462,0.28124
104.38355,0.27428
104.14248,0.26708
103.90141,0.26035
103.66034,0.25351
103.41927,0.24594
103.17820,0.23861
102.93713,0.23316
102.69606,0.22997
102.45499,0.22797
102.21392,0.22586
101.97285,0.22300
101.73177,0.21960
101.49070,0.21634
101.24963,0.21379
101.00856,0.21188
100.76749,0.20996
100.52642,0.20747
100.28535,0.20444
100.04428,0.20135
99.80321,0.19877
99.56214,0.19688
99.32107,0.19524
99.08000,0.19341
98.83893,0.19158
98.59786,0.19040
98.35679,0.19033
98.11572,0.19141
97.87465,0.19319
97.63358,0.19503
97.39250,0.19651
97.15143,0.19770
96.91036,0.19923
96.66929,0.20197
96.42822,0.20637
96.18715,0.21238
95.94608,0.21979
95.70501,0.22818
95.46394,0.23647
95.22287,0.24378
94.98180,0.25025
94.74073,0.25611
94.49966,0.26055
94.25859,0.26269
94.01752,0.26308
93.77645,0.26311
93.53538,0.26359
93.29431,0.26454
93.05323,0.26567
92.81216,0.26653
92.57109,0.26665
92.33002,0.26621
92.08895,0.26641
91.84788,0.26873
91.60681,0.27401
91.36574,0.28233
91.12467,0.29361
90.88360,0.30838
90.64253,0.32806
90.40146,0.35405
90.16039,0.38631
89.91932,0.42337
89.67825,0.46322
89.43718,0.50297
89.19611,0.53815
88.95504,0.56396
88.71396,0.57736
88.47289,0.57687
88.23182,0.56189
87.99075,0.53453
87.74968,0.50027
87.50861,0.46407
87.26754,0.42753
87.02647,0.39128
86.78540,0.35749
86.54433,0.32853
86.30326,0.30471
86.06219,0.28428
85.82112,0.26508
85.58005,0.24623
85.33898,0.22846
85.09791,0.21301
84.85684,0.20031
84.61577,0.18985
84.37469,0.18082
84.13362,0.17251
83.89255,0.16484
83.65148,0.15813
83.41041,0.15234
83.16934,0.14692
82.92827,0.14178
82.68720,0.13776
82.44613,0.13557
82.20506,0.13488
81.96399,0.13465
81.72292,0.13397
81.48185,0.13255
81.24078,0.13051
80.99971,0.12807
80.75864,0.12578
80.51757,0.12421
80.27650,0.12316
80.03542,0.12161
79.79435,0.11895
79.55328,0.11592
79.31221,0.11375
79.07114,0.11272
78.83007,0.11203
78.58900,0.11103
78.34793,0.10981
78.10686,0.10835
77.86579,0.10648
77.62472,0.10446
77.38365,0.10296
77.14258,0.10199
76.90151,0.10097
76.66044,0.09959
76.41937,0.09814
76.17830,0.09686
75.93723,0.09549
75.69615,0.09371
75.45508,0.09181
75.21401,0.09072
74.97294,0.09122
74.73187,0.09309
74.49080,0.09515
74.24973,0.09613
74.00866,0.09576
73.76759,0.09489
73.52652,0.09454
73.28545,0.09461
73.04438,0.09430
72.80331,0.09370
72.56224,0.09399
72.32117,0.09563
72.08010,0.09749
71.83903,0.09866
71.59796,0.09995
71.35688,0.10262
71.11581,0.10672
70.87474,0.11154
70.63367,0.11682
70.39260,0.12314
70.15153,0.13135
69.91046,0.14209
69.66939,0.15491
69.42832,0.16749
69.18725,0.17611
68.94618,0.17785
68.70511,0.17226
68.46404,0.16092
68.22297,0.14653
67.98190,0.13249
67.74083,0.12165
67.49976,0.11435
67.25869,0.10838
67.01761,0.10173
66.77654,0.09484
66.53547,0.08946
66.29440,0.08630
66.05333,0.08481
65.81226,0.08459
65.57119,0.08557
65.33012,0.08737
65.08905,0.08979
64.84798,0.09335
64.60691,0.09870
64.36584,0.10533
64.12477,0.11138
63.88370,0.11464
63.64263,0.11409
63.40156,0.11053
63.16049,0.10555
62.91942,0.10036
62.67834,0.09546
62.43727,0.09093
62.19620,0.08671
61.95513,0.08264
61.71406,0.07874
61.47299,0.07557
61.23192,0.07385
60.99085,0.07327
60.74978,0.07227
60.50871,0.06993
60.26764,0.06752
60.02657,0.06704
59.78550,0.06854
59.54443,0.06979
59.30336,0.06897
59.06229,0.06682
58.82122,0.06567
58.58015,0.06651
58.33907,0.06797
58.09800,0.06808
57.85693,0.06641
57.61586,0.06406
57.37479,0.06225
57.13372,0.06131
56.89265,0.06085
56.65158,0.06010
56.41051,0.05864
56.16944,0.05719
55.92837,0.05714
55.68730,0.05888
55.44623,0.06131
55.20516,0.06303
54.96409,0.06340
54.72302,0.06258
54.48195,0.06119
54.24088,0.05981
53.99980,0.05868
53.75873,0.05767
53.51766,0.05630
53.27659,0.05417
53.03552,0.05177
52.79445,0.05011
52.55338,0.04960
52.31231,0.05017
52.07124,0.05181
51.83017,0.05367
51.58910,0.05393
51.34803,0.05197
51.10696,0.04947
50.86589,0.04813
50.62482,0.04738
50.38375,0.04522
50.14268,0.04090
49.90161,0.03593
49.66053,0.03192
49.41946,0.02886
49.17839,0.02623
48.93732,0.02454
48.69625,0.02426
48.45518,0.02434
48.21411,0.02279
47.97304,0.01868
47.73197,0.01355
47.49090,0.01056
47.24983,0.01121
47.00876,0.01336
46.76769,0.01364
46.52662,0.01120
46.28555,0.00782
46.04448,0.00532
45.80341,0.00383
45.56234,0.00228
45.32126,0.00011
45.08019,-0.00210
44.83912,-0.00345
44.59805,-0.00383
44.35698,-0.00433
44.11591,-0.00668
43.87484,-0.01186
43.63377,-0.01930
43.39270,-0.02719
43.15163,-0.03264
42.91056,-0.03312
42.66949,-0.02939
42.42842,-0.02552
42.18735,-0.02408
41.94628,-0.02375
41.70521,-0.02237
41.46414,-0.01993
41.22307,-0.01865
40.98199,-0.02084
40.74092,-0.02612
40.49985,-0.03164
40.25878,-0.03482
40.01771,-0.03464
39.77664,-0.03095
39.53557,-0.02408
39.29450,-0.01554
39.05343,-0.00795
38.81236,-0.00334
38.57129,-0.00182
38.33022,-0.00252
38.08915,-0.00569
37.84808,-0.01242
37.60701,-0.02149
37.36594,-0.02787
37.12487,-0.02652
36.88380,-0.01749
36.64272,-0.00639
36.40165,0.00023
36.16058,0.00079
35.91951,-0.00010
35.67844,0.00286
35.43737,0.00954
35.19630,0.01417
34.95523,0.01078
34.71416,-0.00048
34.47309,-0.01343
34.23202,-0.02249
33.99095,-0.02565
33.74988,-0.02162
33.50881,-0.00943
33.26774,0.00981
33.02667,0.03331
32.78560,0.05368
32.54453,0.05802
32.30345,0.04072
32.06238,0.01524
31.82131,-0.00181
31.58024,-0.01124
31.33917,-0.02212
31.09810,-0.03563
30.85703,-0.04569
30.61596,-0.05053
30.37489,-0.05705
30.13382,-0.06875
29.89275,-0.07651
29.65168,-0.06887
29.41061,-0.04854
29.16954,-0.03158
28.92847,-0.02660
28.68740,-0.02420
28.44633,-0.01232
28.20526,0.00974
27.96418,0.03135
27.72311,0.04101
27.48204,0.03689
27.24097,0.02243
26.99990,0.00235
26.75883,-0.01076
26.51776,-0.00136
26.27669,0.03010
26.03562,0.05975
25.79455,0.06380
25.55348,0.04799
25.31241,0.03480
25.07134,0.03731
24.83027,0.05869
24.58920,0.09547
24.34813,0.14004
24.10706,0.17532
23.86599,0.18650
23.62491,0.18600
23.38384,0.19664
23.14277,0.21504
22.90170,0.21737
22.66063,0.20366
22.41956,0.19963
22.17849,0.21958
21.93742,0.25367
21.69635,0.28401
21.45528,0.30076
21.21421,0.30588
20.97314,0.30896
20.73207,0.31886
20.49100,0.32660
20.24993,0.32371
20.00886,0.31962
19.76779,0.32738
19.52672,0.35707
19.28564,0.41602
19.04457,0.50555
18.80350,0.59825
18.56243,0.62666
18.32136,0.56302
18.08029,0.50046
17.83922,0.49630
17.59815,0.52185
17.35708,0.57192
17.11601,0.66488
16.87494,0.77131
16.63387,0.85494
16.39280,0.92759
16.15173,0.93467
15.91066,0.88609
15.66959,0.84900
15.42852,0.86842
15.18745,0.99184
14.94637,1.08197
14.70530,0.94012
14.46423,0.88276
14.22316,1.00142
13.98209,1.18644
13.74102,1.17625
13.49995,1.05291
13.25888,0.91777
13.01781,0.81514
12.77674,0.73545
12.53567,0.66790
12.29460,0.65858
12.05353,0.73017
11.81246,0.90911
11.57139,1.15841
11.33032,1.03190
11.08925,0.84465
10.84818,0.75987
10.60710,0.79053
10.36603,0.91337
10.12496,1.08744
9.88389,1.24848
9.64282,1.34962
9.40175,1.17252
9.16068,1.08520
8.91961,1.06223
8.67854,0.98741
8.43747,0.92892
8.19640,0.97468
7.95533,0.93761
7.71426,0.79934
7.47319,0.80781
7.23212,0.90118
6.99105,0.97085
6.74998,1.05341
6.50891,1.11974
6.26783,1.14953
6.02676,1.16263
5.78569,1.14404
5.54462,1.01462
5.30355,0.88932
5.06248,0.89913
4.82141,0.85512
4.58034,0.80534
4.33927,0.83624
4.09820,0.92770
3.85713,1.07875
3.61606,1.18330
3.37499,1.09448
3.13392,0.96507
2.89285,0.95781
2.65178,1.01992
2.41071,1.04278
2.16964,1.07529
1.92856,1.20394
1.68749,1.04479
1.44642,0.88275
1.20535,0.88794
0.96428,1.00072
0.72321,1.09561
0.48214,0.99238
0.24107,0.78654
-0.00000,0.62197
