399.69498,1.81618
399.45391,1.84996
399.21284,1.88163
398.97177,1.90762
398.73070,1.90639
398.48963,1.88049
398.24856,1.88852
398.00749,1.97138
397.76642,2.14600
397.52535,2.24547
397.28428,2.09993
397.04321,1.92472
396.80214,1.82711
396.56107,1.81761
396.32000,1.85900
396.07892,1.88239
395.83785,1.86356
395.59678,1.84058
395.35571,1.84234
395.11464,1.86618
394.87357,1.91159
394.63250,1.96986
394.39143,2.00630
394.15036,2.03355
393.90929,2.08610
393.66822,2.11540
393.42715,2.04001
393.18608,1.91926
392.94501,1.84191
392.70394,1.83897
392.46287,1.91014
392.22180,2.01878
391.98073,2.06431
391.73965,1.97997
391.49858,1.87649
391.25751,1.88342
391.01644,2.09494
390.77537,2.53631
390.53430,2.66087
390.29323,2.28779
390.05216,2.13737
389.81109,2.18890
389.57002,2.29173
389.32895,2.43774
389.08788,2.64173
388.84681,2.39451
388.60574,2.30411
388.36467,2.22683
388.12360,2.09357
387.88253,2.00759
387.64146,1.97289
387.40038,1.97707
387.15931,1.96297
386.91824,1.91365
386.67717,2.00266
386.43610,2.28217
386.19503,2.18398
385.95396,2.02352
385.71289,1.99330
385.47182,2.05459
385.23075,2.22150
384.98968,2.47008
384.74861,2.23741
384.50754,2.02005
384.26647,1.98914
384.02540,1.96631
383.78433,1.89459
383.54326,1.82827
383.30219,1.86758
383.06111,2.05613
382.82004,2.06184
382.57897,1.87618
382.33790,1.77841
382.09683,1.75544
381.85576,1.75817
381.61469,1.80708
381.37362,1.88601
381.13255,2.06667
380.89148,2.37490
380.65041,2.18866
380.40934,1.93161
380.16827,1.80687
379.92720,1.81034
379.68613,1.85769
379.44506,1.82372
379.20399,1.72487
378.96292,1.61715
378.72184,1.58389
378.48077,1.67025
378.23970,1.84063
377.99863,1.94755
377.75756,1.95855
377.51649,1.89998
377.27542,1.88048
377.03435,1.96071
376.79328,2.04587
376.55221,2.01659
376.31114,1.98992
376.07007,2.05449
375.82900,2.17078
375.58793,2.25974
375.34686,2.25979
375.10579,2.13132
374.86472,2.04588
374.62365,2.07217
374.38257,2.19129
374.14150,2.25490
373.90043,2.08748
373.65936,1.97532
373.41829,1.99188
373.17722,2.00905
372.93615,1.96390
372.69508,1.90969
372.45401,1.86225
372.21294,1.84619
371.97187,1.87286
371.73080,1.92896
371.48973,1.98399
371.24866,1.98567
371.00759,1.88549
370.76652,1.74298
370.52545,1.65984
370.28437,1.64448
370.04330,1.64721
369.80223,1.63883
369.56116,1.62442
369.32009,1.59696
369.07902,1.54588
368.83795,1.49367
368.59688,1.47470
368.35581,1.49794
368.11474,1.53899
367.87367,1.56084
367.63260,1.54989
367.39153,1.51430
367.15046,1.47128
366.90939,1.44428
366.66832,1.44683
366.42725,1.47555
366.18618,1.50745
365.94510,1.51153
365.70403,1.48616
365.46296,1.44934
365.22189,1.41272
364.98082,1.38554
364.73975,1.37401
364.49868,1.37771
364.25761,1.39060
364.01654,1.40456
363.77547,1.41968
363.53440,1.44407
363.29333,1.47404
363.05226,1.48654
362.81119,1.46853
362.57012,1.44294
362.32905,1.43708
362.08798,1.44258
361.84691,1.43350
361.60583,1.41237
361.36476,1.40493
361.12369,1.41872
360.88262,1.43301
360.64155,1.42804
360.40048,1.40801
360.15941,1.38785
359.91834,1.37462
359.67727,1.36630
359.43620,1.35882
359.19513,1.35069
358.95406,1.34115
358.71299,1.32742
358.47192,1.31143
358.23085,1.30350
357.98978,1.31198
357.74871,1.33309
357.50764,1.35085
357.26656,1.35073
357.02549,1.33787
356.78442,1.33286
356.54335,1.34644
356.30228,1.36572
356.06121,1.37290
355.82014,1.37227
355.57907,1.37886
355.33800,1.39035
355.09693,1.39140
354.85586,1.38060
354.61479,1.36564
354.37372,1.34623
354.13265,1.32217
353.89158,1.30261
353.65051,1.30002
353.40944,1.32194
353.16837,1.36405
352.92729,1.40346
352.68622,1.41376
352.44515,1.39623
352.20408,1.37541
351.96301,1.37022
351.72194,1.38308
351.48087,1.40550
351.23980,1.42157
350.99873,1.42107
350.75766,1.40309
350.51659,1.37493
350.27552,1.35321
350.03445,1.34658
349.79338,1.35929
349.55231,1.39429
349.31124,1.44041
349.07017,1.47459
348.82910,1.47867
348.58802,1.46136
348.34695,1.44713
348.10588,1.43252
347.86481,1.40314
347.62374,1.37322
347.38267,1.36466
347.14160,1.37859
346.90053,1.40076
346.65946,1.41933
346.41839,1.43030
346.17732,1.43425
345.93625,1.43468
345.69518,1.43501
345.45411,1.43869
345.21304,1.44955
344.97197,1.46759
344.73090,1.49125
344.48983,1.51124
344.24875,1.50838
344.00768,1.49432
343.76661,1.51175
343.52554,1.57511
343.28447,1.64860
343.04340,1.68077
342.80233,1.66250
342.56126,1.62306
342.32019,1.58490
342.07912,1.56339
341.83805,1.57112
341.59698,1.60871
341.35591,1.66278
341.11484,1.71598
340.87377,1.77745
340.63270,1.87702
340.39163,1.97590
340.15056,1.98815
339.90948,1.90805
339.66841,1.80706
339.42734,1.79195
339.18627,1.85672
338.94520,1.93489
338.70413,2.01254
338.46306,2.07700
338.22199,1.99423
337.98092,1.86872
337.73985,1.80284
337.49878,1.77803
337.25771,1.79412
337.01664,1.87219
336.77557,1.99829
336.53450,2.10203
336.29343,2.05275
336.05236,1.96551
335.81129,1.94908
335.57021,1.94046
335.32914,1.92122
335.08807,1.92700
334.84700,1.94874
334.60593,1.99422
334.36486,2.05673
334.12379,2.08579
333.88272,2.07055
333.64165,2.11040
333.40058,2.28763
333.15951,2.42732
332.91844,2.13228
332.67737,1.91284
332.43630,1.83198
332.19523,1.78515
331.95416,1.73798
331.71309,1.69022
331.47202,1.64904
331.23094,1.63642
330.98987,1.66749
330.74880,1.71758
330.50773,1.72425
330.26666,1.66336
330.02559,1.59357
329.78452,1.57002
329.54345,1.60120
329.30238,1.65191
329.06131,1.67241
328.82024,1.66314
328.57917,1.66527
328.33810,1.68606
328.09703,1.69579
327.85596,1.67713
327.61489,1.62113
327.37382,1.54895
327.13275,1.49220
326.89167,1.45826
326.65060,1.47322
326.40953,1.56200
326.16846,1.69372
325.92739,1.77038
325.68632,1.77152
325.44525,1.72761
325.20418,1.69098
324.96311,1.72016
324.72204,1.74376
324.48097,1.70558
324.23990,1.66803
323.99883,1.65620
323.75776,1.66207
323.51669,1.70370
323.27562,1.83761
323.03455,2.10337
322.79348,2.28458
322.55240,2.09982
322.31133,1.94099
322.07026,1.92327
321.82919,1.97512
321.58812,1.94217
321.34705,1.89747
321.10598,1.92776
320.86491,2.00025
320.62384,2.08293
320.38277,2.12156
320.14170,1.98866
319.90063,1.83818
319.65956,1.75847
319.41849,1.76011
319.17742,1.84488
318.93635,1.95535
318.69528,1.98440
318.45421,1.93774
318.21313,1.89172
317.97206,1.85357
317.73099,1.81901
317.48992,1.77531
317.24885,1.71947
317.00778,1.68670
316.76671,1.72062
316.52564,1.86661
316.28457,2.18007
316.04350,2.49376
315.80243,2.18887
315.56136,1.92644
315.32029,1.83039
315.07922,1.86535
314.83815,1.97815
314.59708,1.98686
314.35601,1.99526
314.11494,2.05463
313.87386,2.08241
313.63279,1.93723
313.39172,1.94314
313.15065,2.15101
312.90958,2.15712
312.66851,2.01676
312.42744,2.03409
312.18637,1.98814
311.94530,1.90297
311.70423,1.90362
311.46316,1.99193
311.22209,2.06540
310.98102,2.02039
310.73995,2.04330
310.49888,2.08085
310.25781,2.07743
310.01674,2.06801
309.77567,2.09875
309.53459,2.18664
309.29352,2.24512
309.05245,2.18577
308.81138,2.11971
308.57031,2.03818
308.32924,1.93377
308.08817,1.87767
307.84710,1.86343
307.60603,1.86598
307.36496,1.85688
307.12389,1.84685
306.88282,1.85734
306.64175,1.88757
306.40068,1.90261
306.15961,1.85808
305.91854,1.77595
305.67747,1.72434
305.43640,1.73407
305.19532,1.78326
304.95425,1.80372
304.71318,1.75659
304.47211,1.69653
304.23104,1.67371
303.98997,1.68255
303.74890,1.67943
303.50783,1.62820
303.26676,1.54393
303.02569,1.46385
302.78462,1.41269
302.54355,1.39268
302.30248,1.38392
302.06141,1.36519
301.82034,1.33741
301.57927,1.31547
301.33820,1.30622
301.09713,1.30983
300.85605,1.32042
300.61498,1.32482
300.37391,1.32159
300.13284,1.31869
299.89177,1.31182
299.65070,1.28886
299.40963,1.25173
299.16856,1.22292
298.92749,1.22072
298.68642,1.24185
298.44535,1.26891
298.20428,1.28432
297.96321,1.27989
297.72214,1.25698
297.48107,1.22334
297.24000,1.19472
296.99893,1.18468
296.75786,1.18968
296.51678,1.19191
296.27571,1.17962
296.03464,1.16041
295.79357,1.14890
295.55250,1.15054
295.31143,1.15943
295.07036,1.16587
294.82929,1.16375
294.58822,1.15344
294.34715,1.14049
294.10608,1.12927
293.86501,1.11930
293.62394,1.10927
293.38287,1.10071
293.14180,1.09527
292.90073,1.09227
292.65966,1.09021
292.41859,1.08850
292.17751,1.08721
291.93644,1.08673
291.69537,1.08815
291.45430,1.09132
291.21323,1.09292
290.97216,1.09055
290.73109,1.08685
290.49002,1.08684
290.24895,1.09247
290.00788,1.10028
289.76681,1.10485
289.52574,1.10348
289.28467,1.09844
289.04360,1.09477
288.80253,1.09461
288.56146,1.09492
288.32039,1.09168
288.07932,1.08666
287.83824,1.08574
287.59717,1.08917
287.35610,1.09003
287.11503,1.08312
286.87396,1.07076
286.63289,1.06040
286.39182,1.05920
286.15075,1.06712
285.90968,1.07415
285.66861,1.06853
285.42754,1.05033
285.18647,1.03295
284.94540,1.02868
284.70433,1.03765
284.46326,1.05029
284.22219,1.05733
283.98112,1.05702
283.74005,1.05300
283.49897,1.04903
283.25790,1.04644
283.01683,1.04481
282.77576,1.04338
282.53469,1.04043
282.29362,1.03496
282.05255,1.03077
281.81148,1.03292
281.57041,1.03943
281.32934,1.04331
281.08827,1.04216
280.84720,1.03992
280.60613,1.04002
280.36506,1.04082
280.12399,1.04041
279.88292,1.04042
279.64185,1.04201
279.40078,1.04287
279.15970,1.04196
278.91863,1.04329
278.67756,1.04843
278.43649,1.05013
278.19542,1.04159
277.95435,1.02728
277.71328,1.01629
277.47221,1.01185
277.23114,1.01237
276.99007,1.01637
276.74900,1.02320
276.50793,1.03163
276.26686,1.03918
276.02579,1.04260
275.78472,1.04047
275.54365,1.03572
275.30258,1.03331
275.06151,1.03435
274.82043,1.03448
274.57936,1.02975
274.33829,1.02263
274.09722,1.01954
273.85615,1.02326
273.61508,1.03032
273.37401,1.03599
273.13294,1.03863
272.89187,1.03793
272.65080,1.03236
272.40973,1.02331
272.16866,1.01927
271.92759,1.02776
271.68652,1.04460
271.44545,1.05579
271.20438,1.05237
270.96331,1.04139
270.72224,1.03696
270.48116,1.04353
270.24009,1.05398
269.99902,1.06214
269.75795,1.06896
269.51688,1.07551
269.27581,1.08025
269.03474,1.08289
268.79367,1.08362
268.55260,1.08230
268.31153,1.08259
268.07046,1.08929
267.82939,1.09952
267.58832,1.10396
267.34725,1.09885
267.10618,1.09038
266.86511,1.08627
266.62404,1.08873
266.38297,1.09555
266.14189,1.10380
265.90082,1.11263
265.65975,1.12374
265.41868,1.13748
265.17761,1.14905
264.93654,1.15430
264.69547,1.15812
264.45440,1.16870
264.21333,1.18512
263.97226,1.19959
263.73119,1.20844
263.49012,1.21255
263.24905,1.21391
263.00798,1.21747
262.76691,1.22835
262.52584,1.24496
262.28477,1.25908
262.04370,1.26698
261.80262,1.27626
261.56155,1.29498
261.32048,1.31844
261.07941,1.33194
260.83834,1.32844
260.59727,1.31686
260.35620,1.31159
260.11513,1.32099
259.87406,1.34261
259.63299,1.36914
259.39192,1.39864
259.15085,1.43532
258.90978,1.47814
258.66871,1.51516
258.42764,1.53696
258.18657,1.54819
257.94550,1.56230
257.70443,1.58832
257.46335,1.62990
257.22228,1.69619
256.98121,1.80271
256.74014,1.94720
256.49907,2.06692
256.25800,2.06600
256.01693,2.03582
255.77586,2.04826
255.53479,2.09479
255.29372,2.10568
255.05265,2.14290
254.81158,2.22559
254.57051,2.23851
254.32944,2.29166
254.08837,2.48029
253.84730,2.65369
253.60623,2.53025
253.36516,2.43618
253.12408,2.36760
252.88301,2.29310
252.64194,2.24364
252.40087,2.22086
252.15980,2.19545
251.91873,2.19985
251.67766,2.26460
251.43659,2.37544
251.19552,2.42066
250.95445,2.28106
250.71338,2.12450
250.47231,2.05741
250.23124,2.07700
249.99017,2.09585
249.74910,2.09479
249.50803,2.13892
249.26696,2.21080
249.02589,2.22061
248.78481,2.25480
248.54374,2.41858
248.30267,2.54346
248.06160,2.31715
247.82053,2.17773
247.57946,2.17765
247.33839,2.18873
247.09732,2.22226
246.85625,2.36058
246.61518,2.49570
246.37411,2.37764
246.13304,2.22501
245.89197,2.11135
245.65090,2.06739
245.40983,2.06420
245.16876,2.06267
244.92769,2.03914
244.68661,1.97711
244.44554,1.90040
244.20447,1.84837
243.96340,1.80778
243.72233,1.73703
243.48126,1.66451
243.24019,1.62206
242.99912,1.59620
242.75805,1.56081
242.51698,1.51012
242.27591,1.45095
242.03484,1.38891
241.79377,1.33007
241.55270,1.27755
241.31163,1.22915
241.07056,1.18161
240.82949,1.13651
240.58842,1.09790
240.34734,1.06572
240.10627,1.03584
239.86520,1.00519
239.62413,0.97451
239.38306,0.94665
239.14199,0.92350
238.90092,0.90483
238.65985,0.88913
238.41878,0.87545
238.17771,0.86352
237.93664,0.85131
237.69557,0.83590
237.45450,0.81832
237.21343,0.80306
236.97236,0.79165
236.73129,0.78121
236.49022,0.76973
236.24915,0.75841
236.00807,0.74843
235.76700,0.74003
235.52593,0.73432
235.28486,0.73204
235.04379,0.73102
234.80272,0.72839
234.56165,0.72430
234.32058,0.72079
234.07951,0.71872
233.83844,0.71721
233.59737,0.71497
233.35630,0.71158
233.11523,0.70820
232.87416,0.70658
232.63309,0.70727
232.39202,0.70904
232.15095,0.71002
231.90988,0.70915
231.66880,0.70671
231.42773,0.70345
231.18666,0.69987
230.94559,0.69582
230.70452,0.69058
230.46345,0.68525
230.22238,0.68402
229.98131,0.68935
229.74024,0.69725
229.49917,0.70137
229.25810,0.70002
229.01703,0.69531
228.77596,0.68853
228.53489,0.68061
228.29382,0.67417
228.05275,0.67178
227.81168,0.67341
227.57061,0.67682
227.32953,0.68026
227.08846,0.68321
226.84739,0.68449
226.60632,0.68257
226.36525,0.67858
226.12418,0.67622
225.88311,0.67746
225.64204,0.68007
225.40097,0.67994
225.15990,0.67565
224.91883,0.67090
224.67776,0.67169
224.43669,0.68077
224.19562,0.69443
223.95455,0.70471
223.71348,0.70697
223.47241,0.70514
223.23134,0.70710
222.99026,0.71579
222.74919,0.72725
222.50812,0.73610
222.26705,0.74041
222.02598,0.74184
221.78491,0.74364
221.54384,0.74807
221.30277,0.75448
221.06170,0.76034
220.82063,0.76441
220.57956,0.76877
220.33849,0.77676
220.09742,0.78825
219.85635,0.79910
219.61528,0.80661
219.37421,0.81269
219.13314,0.82050
218.89207,0.83115
218.65099,0.84368
218.40992,0.85600
218.16885,0.86649
217.92778,0.87643
217.68671,0.88890
217.44564,0.90424
217.20457,0.91895
216.96350,0.93081
216.72243,0.94304
216.48136,0.96009
216.24029,0.98053
215.99922,0.99823
215.75815,1.00854
215.51708,1.01056
215.27601,1.00726
215.03494,1.00567
214.79387,1.01191
214.55280,1.02665
214.31172,1.04510
214.07065,1.06058
213.82958,1.06958
213.58851,1.07260
213.34744,1.07326
213.10637,1.07751
212.86530,1.08999
212.62423,1.10844
212.38316,1.12471
212.14209,1.13197
211.90102,1.12975
211.65995,1.12339
211.41888,1.12078
211.17781,1.12458
210.93674,1.12598
210.69567,1.11695
210.45460,1.10608
210.21353,1.10854
209.97245,1.12594
209.73138,1.14558
209.49031,1.15685
209.24924,1.15892
209.00817,1.15244
208.76710,1.13725
208.52603,1.11938
208.28496,1.10789
208.04389,1.10276
207.80282,1.09508
207.56175,1.08098
207.32068,1.06813
207.07961,1.06493
206.83854,1.06888
206.59747,1.06941
206.35640,1.05991
206.11533,1.04312
205.87426,1.02609
205.63318,1.01509
205.39211,1.01253
205.15104,1.01305
204.90997,1.00544
204.66890,0.98525
204.42783,0.96219
204.18676,0.94851
203.94569,0.94427
203.70462,0.93921
203.46355,0.92718
203.22248,0.91310
202.98141,0.90286
202.74034,0.89379
202.49927,0.88015
202.25820,0.86299
202.01713,0.84793
201.77606,0.83709
201.53499,0.82825
201.29391,0.81868
201.05284,0.80750
200.81177,0.79535
200.57070,0.78268
200.32963,0.76845
200.08856,0.75221
199.84749,0.73640
199.60642,0.72406
199.36535,0.71505
199.12428,0.70694
198.88321,0.69850
198.64214,0.68975
198.40107,0.68013
198.16000,0.66949
197.91893,0.65945
197.67786,0.65143
197.43679,0.64445
197.19572,0.63677
196.95464,0.62824
196.71357,0.61967
196.47250,0.61122
196.23143,0.60272
195.99036,0.59449
195.74929,0.58689
195.50822,0.57941
195.26715,0.57104
195.02608,0.56198
194.78501,0.55433
194.54394,0.55011
194.30287,0.54910
194.06180,0.54889
193.82073,0.54689
193.57966,0.54232
193.33859,0.53641
193.09752,0.53105
192.85645,0.52701
192.61537,0.52319
192.37430,0.51797
192.13323,0.51160
191.89216,0.50609
191.65109,0.50282
191.41002,0.50126
191.16895,0.50002
190.92788,0.49818
190.68681,0.49564
190.44574,0.49249
190.20467,0.48874
189.96360,0.48505
189.72253,0.48263
189.48146,0.48160
189.24039,0.48095
188.99932,0.48031
188.75825,0.48032
188.51718,0.48136
188.27610,0.48307
188.03503,0.48419
187.79396,0.48332
187.55289,0.48094
187.31182,0.47899
187.07075,0.47761
186.82968,0.47508
186.58861,0.47152
186.34754,0.46937
186.10647,0.46945
185.86540,0.46991
185.62433,0.46942
185.38326,0.46904
185.14219,0.46998
184.90112,0.47109
184.66005,0.46998
184.41898,0.46675
184.17791,0.46485
183.93683,0.46742
183.69576,0.47376
183.45469,0.48042
183.21362,0.48513
182.97255,0.48815
182.73148,0.49013
182.49041,0.49085
182.24934,0.49028
182.00827,0.48964
181.76720,0.49048
181.52613,0.49321
181.28506,0.49672
181.04399,0.49976
180.80292,0.50233
180.56185,0.50520
180.32078,0.50849
180.07971,0.51160
179.83864,0.51428
179.59756,0.51711
179.35649,0.52121
179.11542,0.52734
178.87435,0.53528
178.63328,0.54410
178.39221,0.55267
178.15114,0.56012
177.91007,0.56665
177.66900,0.57322
177.42793,0.58052
177.18686,0.58975
176.94579,0.60300
176.70472,0.62059
176.46365,0.63931
176.22258,0.65600
175.98151,0.67164
175.74044,0.68946
175.49937,0.71018
175.25829,0.73133
175.01722,0.75059
174.77615,0.76812
174.53508,0.78543
174.29401,0.80293
174.05294,0.81926
173.81187,0.83275
173.57080,0.84372
173.32973,0.85534
173.08866,0.86959
172.84759,0.88413
172.60652,0.89635
172.36545,0.90703
172.12438,0.91720
171.88331,0.92570
171.64224,0.93168
171.40117,0.93418
171.16010,0.92960
170.91902,0.91645
170.67795,0.90137
170.43688,0.89304
170.19581,0.89177
169.95474,0.89036
169.71367,0.88435
169.47260,0.87573
169.23153,0.86709
168.99046,0.85838
168.74939,0.84941
168.50832,0.84192
168.26725,0.83799
168.02618,0.83721
167.78511,0.83689
167.54404,0.83543
167.30297,0.83389
167.06190,0.83391
166.82083,0.83648
166.57975,0.84292
166.33868,0.85375
166.09761,0.86640
165.85654,0.87644
165.61547,0.88136
165.37440,0.88171
165.13333,0.87950
164.89226,0.87842
164.65119,0.88377
164.41012,0.89692
164.16905,0.91201
163.92798,0.92271
163.68691,0.93051
163.44584,0.94114
163.20477,0.95655
162.96370,0.97414
162.72263,0.99034
162.48156,1.00305
162.24048,1.01232
161.99941,1.01889
161.75834,1.02231
161.51727,1.02133
161.27620,1.01706
161.03513,1.01372
160.79406,1.01386
160.55299,1.01555
160.31192,1.01557
160.07085,1.01288
159.82978,1.00794
159.58871,1.00085
159.34764,0.99184
159.10657,0.98089
158.86550,0.96756
158.62443,0.95487
158.38336,0.94908
158.14229,0.95046
157.90121,0.95094
157.66014,0.94645
157.41907,0.94255
157.17800,0.94261
156.93693,0.94178
156.69586,0.93591
156.45479,0.92771
156.21372,0.92140
155.97265,0.91719
155.73158,0.91300
155.49051,0.90789
155.24944,0.90200
155.00837,0.89414
154.76730,0.88125
154.52623,0.86304
154.28516,0.84532
154.04409,0.83304
153.80302,0.82314
153.56194,0.80994
153.32087,0.79363
153.07980,0.77732
152.83873,0.76047
152.59766,0.74074
152.35659,0.71931
152.11552,0.69987
151.87445,0.68396
151.63338,0.66976
151.39231,0.65504
151.15124,0.63978
150.91017,0.62488
150.66910,0.60948
150.42803,0.59217
150.18696,0.57396
149.94589,0.55736
149.70482,0.54329
149.46375,0.53139
149.22267,0.52150
148.98160,0.51368
148.74053,0.50747
148.49946,0.50210
148.25839,0.49791
148.01732,0.49641
147.77625,0.49768
147.53518,0.49872
147.29411,0.49667
147.05304,0.49224
146.81197,0.48787
146.57090,0.48465
146.32983,0.48292
146.08876,0.48354
145.84769,0.48707
145.60662,0.49303
145.36555,0.50065
145.12448,0.50902
144.88340,0.51676
144.64233,0.52258
144.40126,0.52653
144.16019,0.53003
143.91912,0.53447
143.67805,0.53920
143.43698,0.54107
143.19591,0.53677
142.95484,0.52590
142.71377,0.51152
142.47270,0.49807
142.23163,0.48853
141.99056,0.48194
141.74949,0.47448
141.50842,0.46461
141.26735,0.45563
141.02628,0.45101
140.78521,0.44968
140.54413,0.44853
140.30306,0.44727
140.06199,0.44780
139.82092,0.45053
139.57985,0.45401
139.33878,0.45731
139.09771,0.46147
138.85664,0.46830
138.61557,0.47788
138.37450,0.48824
138.13343,0.49801
137.89236,0.50831
137.65129,0.52106
137.41022,0.53642
137.16915,0.55297
136.92808,0.56987
136.68701,0.58761
136.44594,0.60718
136.20486,0.62864
135.96379,0.65101
135.72272,0.67338
135.48165,0.69564
135.24058,0.71872
134.99951,0.74472
134.75844,0.77664
134.51737,0.81577
134.27630,0.85808
134.03523,0.89608
133.79416,0.92530
133.55309,0.94579
133.31202,0.95870
133.07095,0.96579
132.82988,0.97076
132.58881,0.97746
132.34774,0.98800
132.10667,1.00273
131.86559,1.01743
131.62452,1.02247
131.38345,1.01112
131.14238,0.98669
130.90131,0.95813
130.66024,0.92876
130.41917,0.89566
130.17810,0.86053
129.93703,0.83035
129.69596,0.80658
129.45489,0.78206
129.21382,0.75144
128.97275,0.71844
128.73168,0.68877
128.49061,0.66236
128.24954,0.63547
128.00847,0.60686
127.76740,0.57859
127.52632,0.55199
127.28525,0.52684
127.04418,0.50435
126.80311,0.48669
126.56204,0.47363
126.32097,0.46234
126.07990,0.45023
125.83883,0.43631
125.59776,0.42077
125.35669,0.40519
125.11562,0.39216
124.87455,0.38317
124.63348,0.37701
124.39241,0.37097
124.15134,0.36367
123.91027,0.35633
123.66920,0.35137
123.42812,0.34993
123.18705,0.35074
122.94598,0.35087
122.70491,0.34829
122.46384,0.34389
122.22277,0.34091
121.98170,0.34198
121.74063,0.34624
121.49956,0.35019
121.25849,0.35181
121.01742,0.35333
120.77635,0.35915
120.53528,0.37119
120.29421,0.38737
120.05314,0.40428
119.81207,0.42063
119.57100,0.43751
119.32993,0.45599
119.08885,0.47592
118.84778,0.49662
118.60671,0.51764
118.36564,0.53941
118.12457,0.56323
117.88350,0.58938
117.64243,0.61531
117.40136,0.63717
117.16029,0.65296
116.91922,0.66295
116.67815,0.66771
116.43708,0.66734
116.19601,0.66232
115.95494,0.65351
115.71387,0.64098
115.47280,0.62480
115.23173,0.60685
114.99066,0.59041
114.74958,0.57715
114.50851,0.56535
114.26744,0.55288
114.02637,0.54163
113.78530,0.53680
113.54423,0.54092
113.30316,0.54995
113.06209,0.55663
112.82102,0.55817
112.57995,0.55862
112.33888,0.56208
112.09781,0.56713
111.85674,0.57086
111.61567,0.57477
111.37460,0.58172
111.13353,0.58922
110.89246,0.59141
110.65139,0.58767
110.41031,0.58392
110.16924,0.58430
109.92817,0.58493
109.68710,0.57742
109.44603,0.55872
109.20496,0.53486
108.96389,0.51335
108.72282,0.49630
108.48175,0.48171
108.24068,0.46734
107.99961,0.45169
107.75854,0.43375
107.51747,0.41468
107.27640,0.39803
107.03533,0.38603
106.79426,0.37627
106.55319,0.36360
106.31212,0.34649
106.07104,0.32883
105.82997,0.31436
105.58890,0.30324
105.34783,0.29489
105.10676,0.28953
104.86569,0.28571
104.62462,0.28057
104.38355,0.27334
104.14248,0.26574
103.90141,0.25886
103.66034,0.25229
103.41927,0.24558
103.17820,0.23869
102.93713,0.23201
102.69606,0.22690
102.45499,0.22449
102.21392,0.22330
101.97285,0.22024
101.73177,0.21439
101.49070,0.20780
101.24963,0.20250
101.00856,0.19847
100.76749,0.19507
100.52642,0.19267
100.28535,0.19191
100.04428,0.19215
99.80321,0.19173
99.56214,0.18961
99.32107,0.18608
99.08000,0.18208
98.83893,0.17891
98.59786,0.17815
98.35679,0.18039
98.11572,0.18395
97.87465,0.18613
97.63358,0.18608
97.39250,0.18514
97.15143,0.18460
96.91036,0.18520
96.66929,0.18792
96.42822,0.19354
96.18715,0.20188
95.94608,0.21217
95.70501,0.22328
95.46394,0.23342
95.22287,0.24132
94.98180,0.24737
94.74073,0.25235
94.49966,0.25576
94.25859,0.25684
94.01752,0.25607
93.77645,0.25474
93.53538,0.25345
93.29431,0.25194
93.05323,0.25023
92.81216,0.24934
92.57109,0.25039
92.33002,0.25342
92.08895,0.25760
91.84788,0.26271
91.60681,0.26968
91.36574,0.27929
91.12467,0.29134
90.88360,0.30616
90.64253,0.32602
90.40146,0.35340
90.16039,0.38792
89.91932,0.42677
89.67825,0.46773
89.43718,0.50919
89.19611,0.54741
88.95504,0.57675
88.71396,0.59328
88.47289,0.59582
88.23182,0.58384
87.99075,0.55736
87.74968,0.51905
87.50861,0.47461
87.26754,0.43045
87.02647,0.39115
86.78540,0.35825
86.54433,0.32992
86.30326,0.30272
86.06219,0.27549
85.82112,0.25090
85.58005,0.23190
85.33898,0.21766
85.09791,0.20437
84.85684,0.18958
84.61577,0.17443
84.37469,0.16212
84.13362,0.15466
83.89255,0.15104
83.65148,0.14846
83.41041,0.14453
83.16934,0.13856
82.92827,0.13164
82.68720,0.12596
82.44613,0.12305
82.20506,0.12227
81.96399,0.12134
81.72292,0.11877
81.48185,0.11543
81.24078,0.11335
80.99971,0.11341
80.75864,0.11455
80.51757,0.11503
80.27650,0.11396
80.03542,0.11174
79.79435,0.10919
79.55328,0.10673
79.31221,0.10444
79.07114,0.10241
78.83007,0.10075
78.58900,0.09938
78.34793,0.09805
78.10686,0.09600
77.86579,0.09240
77.62472,0.08773
77.38365,0.08389
77.14258,0.08188
76.90151,0.08086
76.66044,0.07978
76.41937,0.07854
76.17830,0.07722
75.93723,0.07533
75.69615,0.07267
75.45508,0.07032
75.21401,0.06997
74.97294,0.07213
74.73187,0.07532
74.49080,0.07749
74.24973,0.07806
74.00866,0.07833
73.76759,0.07909
73.52652,0.07892
73.28545,0.07665
73.04438,0.07448
72.80331,0.07582
72.56224,0.08071
72.32117,0.08552
72.08010,0.08688
71.83903,0.08502
71.59796,0.08336
71.35688,0.08476
71.11581,0.08870
70.87474,0.09308
70.63367,0.09743
70.39260,0.10362
70.15153,0.11400
69.91046,0.12937
69.66939,0.14731
69.42832,0.16264
69.18725,0.17097
68.94618,0.17175
68.70511,0.16659
68.46404,0.15651
68.22297,0.14233
67.98190,0.12642
67.74083,0.11199
67.49976,0.10081
67.25869,0.09252
67.01761,0.08579
66.77654,0.07958
66.53547,0.07392
66.29440,0.07004
66.05333,0.06899
65.81226,0.06968
65.57119,0.06954
65.33012,0.06781
65.08905,0.06691
64.84798,0.06972
64.60691,0.07638
64.36584,0.08443
64.12477,0.09116
63.88370,0.09543
63.64263,0.09768
63.40156,0.09791
63.16049,0.09464
62.91942,0.08722
62.67834,0.07788
62.43727,0.06973
62.19620,0.06412
61.95513,0.06106
61.71406,0.05981
61.47299,0.05841
61.23192,0.05521
60.99085,0.05116
60.74978,0.04844
60.50871,0.04745
60.26764,0.04719
60.02657,0.04727
59.78550,0.04804
59.54443,0.04958
59.30336,0.05119
59.06229,0.05208
58.82122,0.05246
58.58015,0.05332
58.33907,0.05483
58.09800,0.05595
57.85693,0.05541
57.61586,0.05246
57.37479,0.04754
57.13372,0.04273
56.89265,0.04003
56.65158,0.03900
56.41051,0.03791
56.16944,0.03651
55.92837,0.03597
55.68730,0.03691
55.44623,0.03874
55.20516,0.04057
54.96409,0.04172
54.72302,0.04154
54.48195,0.04002
54.24088,0.03841
53.99980,0.03788
53.75873,0.03761
53.51766,0.03576
53.27659,0.03205
53.03552,0.02859
52.79445,0.02788
52.55338,0.03020
52.31231,0.03355
52.07124,0.03670
51.83017,0.04051
51.58910,0.04451
51.34803,0.04512
51.10696,0.04036
50.86589,0.03353
50.62482,0.02953
50.38375,0.02989
50.14268,0.03203
49.90161,0.03202
49.66053,0.02867
49.41946,0.02416
49.17839,0.02029
48.93732,0.01713
48.69625,0.01497
48.45518,0.01393
48.21411,0.01311
47.97304,0.01269
47.73197,0.01400
47.49090,0.01571
47.24983,0.01495
47.00876,0.01229
46.76769,0.01001
46.52662,0.00749
46.28555,0.00283
46.04448,-0.00291
45.80341,-0.00593
45.56234,-0.00427
45.32126,-0.00051
45.08019,0.00114
44.83912,-0.00126
44.59805,-0.00721
44.35698,-0.01444
44.11591,-0.01955
43.87484,-0.02158
43.63377,-0.02290
43.39270,-0.02511
43.15163,-0.02815
42.91056,-0.03111
42.66949,-0.03129
42.42842,-0.02734
42.18735,-0.02346
41.94628,-0.02548
41.70521,-0.03345
41.46414,-0.04186
41.22307,-0.04621
40.98199,-0.04711
40.74092,-0.04725
40.49985,-0.04461
40.25878,-0.03417
40.01771,-0.01798
39.77664,-0.00644
39.53557,-0.00744
39.29450,-0.01705
39.05343,-0.02452
38.81236,-0.02536
38.57129,-0.02202
38.33022,-0.01791
38.08915,-0.01509
37.84808,-0.01209
37.60701,-0.00811
37.36594,-0.00697
37.12487,-0.00884
36.88380,-0.00692
36.64272,0.00189
36.40165,0.00838
36.16058,0.00117
35.91951,-0.01576
35.67844,-0.02359
35.43737,-0.01149
35.19630,0.00785
34.95523,0.01372
34.71416,0.00138
34.47309,-0.01200
34.23202,-0.00891
33.99095,0.00506
33.74988,0.01324
33.50881,0.00885
33.26774,0.00147
33.02667,0.00782
32.78560,0.02861
32.54453,0.04433
32.30345,0.04321
32.06238,0.03475
31.82131,0.03313
31.58024,0.03622
31.33917,0.03670
31.09810,0.03521
30.85703,0.03190
30.61596,0.02329
30.37489,0.00821
30.13382,-0.00509
29.89275,-0.00438
29.65168,0.01644
29.41061,0.05497
29.16954,0.09429
28.92847,0.10761
28.68740,0.08147
28.44633,0.02421
28.20526,-0.03689
27.96418,-0.06246
27.72311,-0.03189
27.48204,0.02589
27.24097,0.06280
26.99990,0.05751
26.75883,0.02761
26.51776,0.00260
26.27669,-0.00908
26.03562,-0.02103
25.79455,-0.03963
25.55348,-0.05161
25.31241,-0.05567
25.07134,-0.05904
24.83027,-0.04405
24.58920,-0.01743
24.34813,0.05234
24.10706,0.11892
23.86599,0.14949
23.62491,0.14735
23.38384,0.13160
23.14277,0.10930
22.90170,0.13811
22.66063,0.21666
22.41956,0.24016
22.17849,0.19919
21.93742,0.14782
21.69635,0.15125
21.45528,0.22398
21.21421,0.31134
20.97314,0.41045
20.73207,0.48565
20.49100,0.44235
20.24993,0.36733
20.00886,0.35661
19.76779,0.49266
19.52672,0.80169
19.28564,0.83645
19.04457,0.66625
18.80350,0.63225
18.56243,0.62793
18.32136,0.57209
18.08029,0.61109
17.83922,0.57771
17.59815,0.45095
17.35708,0.43594
17.11601,0.58164
16.87494,0.80117
16.63387,0.85509
16.39280,0.72949
16.15173,0.58483
15.91066,0.58294
15.66959,0.68285
15.42852,0.85108
15.18745,1.11801
14.94637,0.79840
14.70530,0.49467
14.46423,0.44602
14.22316,0.55802
13.98209,0.76267
13.74102,0.76820
13.49995,0.70665
13.25888,0.71505
13.01781,0.79420
12.77674,0.87094
12.53567,0.78184
12.29460,0.60418
12.05353,0.52320
11.81246,0.49604
11.57139,0.48964
11.33032,0.51572
11.08925,0.70979
10.84818,1.15092
10.60710,0.86712
10.36603,0.62624
10.12496,0.56950
9.88389,0.54627
9.64282,0.49030
9.40175,0.44931
9.16068,0.48452
8.91961,0.62454
8.67854,0.72843
8.43747,0.68209
8.19640,0.66288
7.95533,0.70232
7.71426,0.93255
7.47319,1.24914
7.23212,0.96244
6.99105,0.92873
6.74998,0.93956
6.50891,0.70926
6.26783,0.48027
6.02676,0.45737
5.78569,0.58950
5.54462,0.78523
5.30355,0.85792
5.06248,0.85599
4.82141,0.86686
4.58034,0.94538
4.33927,1.14381
4.09820,1.12234
3.85713,0.92075
3.61606,0.81271
3.37499,0.64413
3.13392,0.55446
2.89285,0.67576
2.65178,0.89625
2.41071,0.91822
2.16964,0.80007
1.92856,0.69389
1.68749,0.61775
1.44642,0.55219
1.20535,0.52115
0.96428,0.52997
0.72321,0.57731
0.48214,0.65476
0.24107,0.63686
-0.00000,0.59311
