399.69498,1.65602
399.45391,1.65769
399.21284,1.65354
398.97177,1.66895
398.73070,1.68493
398.48963,1.66162
398.24856,1.61109
398.00749,1.56972
397.76642,1.56658
397.52535,1.60867
397.28428,1.67338
397.04321,1.71964
396.80214,1.72650
396.56107,1.71931
396.32000,1.72394
396.07892,1.72995
395.83785,1.72910
395.59678,1.71660
395.35571,1.69111
395.11464,1.66945
394.87357,1.66068
394.63250,1.66462
394.39143,1.69920
394.15036,1.78804
393.90929,1.90971
393.66822,1.97881
393.42715,1.93559
393.18608,1.82205
392.94501,1.75704
392.70394,1.76776
392.46287,1.82164
392.22180,1.88064
391.98073,1.90401
391.73965,1.89234
391.49858,1.87967
391.25751,1.88775
391.01644,1.89537
390.77537,1.86222
390.53430,1.82114
390.29323,1.82968
390.05216,1.89663
389.81109,1.99637
389.57002,2.14502
389.32895,2.25662
389.08788,2.18027
388.84681,2.23605
388.60574,2.39669
388.36467,2.19698
388.12360,2.02527
387.88253,1.99988
387.64146,1.92825
387.40038,1.82353
387.15931,1.86474
386.91824,2.08047
386.67717,2.22752
386.43610,2.14262
386.19503,1.99435
385.95396,2.00473
385.71289,2.15296
385.47182,2.06357
385.23075,1.92423
384.98968,1.92697
384.74861,1.95104
384.50754,1.87942
384.26647,1.78712
384.02540,1.82883
383.78433,1.98024
383.54326,2.09575
383.30219,2.04789
383.06111,1.95622
382.82004,1.93948
382.57897,1.97198
382.33790,1.97554
382.09683,2.01450
381.85576,2.08015
381.61469,2.10611
381.37362,2.03791
381.13255,1.96982
380.89148,1.96573
380.65041,1.98401
380.40934,2.00747
380.16827,1.98715
379.92720,1.91388
379.68613,1.86633
379.44506,1.95264
379.20399,2.13122
378.96292,2.11060
378.72184,2.12891
378.48077,2.30475
378.23970,2.42598
377.99863,2.07832
377.75756,1.87109
377.51649,1.75983
377.27542,1.68968
377.03435,1.68608
376.79328,1.74314
376.55221,1.82063
376.31114,1.84141
376.07007,1.85749
375.82900,1.95123
375.58793,2.04416
375.34686,2.11857
375.10579,2.11914
374.86472,1.92877
374.62365,1.77685
374.38257,1.74330
374.14150,1.79522
373.90043,1.86011
373.65936,1.87109
373.41829,1.81239
373.17722,1.74006
372.93615,1.71909
372.69508,1.77093
372.45401,1.80715
372.21294,1.75334
371.97187,1.68545
371.73080,1.61507
371.48973,1.54533
371.24866,1.49913
371.00759,1.47145
370.76652,1.44797
370.52545,1.43905
370.28437,1.45356
370.04330,1.47563
369.80223,1.47243
369.56116,1.43112
369.32009,1.38691
369.07902,1.37260
368.83795,1.38550
368.59688,1.39883
368.35581,1.38722
368.11474,1.35228
367.87367,1.31298
367.63260,1.28332
367.39153,1.26905
367.15046,1.26943
366.90939,1.27754
366.66832,1.28211
366.42725,1.27641
366.18618,1.26681
365.94510,1.26664
365.70403,1.28223
365.46296,1.30433
365.22189,1.31414
364.98082,1.30338
364.73975,1.28391
364.49868,1.26930
364.25761,1.25720
364.01654,1.24172
363.77547,1.22860
363.53440,1.22552
363.29333,1.23152
363.05226,1.23632
362.81119,1.23151
362.57012,1.22133
362.32905,1.21656
362.08798,1.22308
361.84691,1.23886
361.60583,1.25810
361.36476,1.27120
361.12369,1.26494
360.88262,1.23931
360.64155,1.21588
360.40048,1.21138
360.15941,1.22207
359.91834,1.23625
359.67727,1.25075
359.43620,1.26682
359.19513,1.27907
358.95406,1.27979
358.71299,1.27019
358.47192,1.25832
358.23085,1.24734
357.98978,1.23732
357.74871,1.23185
357.50764,1.23417
357.26656,1.23915
357.02549,1.23604
356.78442,1.22231
356.54335,1.20714
356.30228,1.19914
356.06121,1.19563
355.82014,1.19137
355.57907,1.19249
355.33800,1.20843
355.09693,1.23506
354.85586,1.25310
354.61479,1.24719
354.37372,1.22378
354.13265,1.20232
353.89158,1.19745
353.65051,1.21079
353.40944,1.23169
353.16837,1.24652
352.92729,1.24911
352.68622,1.24184
352.44515,1.23030
352.20408,1.22124
351.96301,1.22166
351.72194,1.23330
351.48087,1.24999
351.23980,1.25963
350.99873,1.25419
350.75766,1.24181
350.51659,1.23810
350.27552,1.24825
350.03445,1.26317
349.79338,1.27356
349.55231,1.28286
349.31124,1.29816
349.07017,1.31532
348.82910,1.32074
348.58802,1.31050
348.34695,1.29638
348.10588,1.28831
347.86481,1.28267
347.62374,1.27131
347.38267,1.25627
347.14160,1.24849
346.90053,1.25281
346.65946,1.26434
346.41839,1.27913
346.17732,1.29890
345.93625,1.32495
345.69518,1.35389
345.45411,1.37692
345.21304,1.38437
344.97197,1.37334
344.73090,1.35062
344.48983,1.33081
344.24875,1.32994
344.00768,1.35669
343.76661,1.39908
343.52554,1.42751
343.28447,1.42918
343.04340,1.41814
342.80233,1.40632
342.56126,1.39353
342.32019,1.37821
342.07912,1.36810
341.83805,1.37471
341.59698,1.39876
341.35591,1.43399
341.11484,1.47091
340.87377,1.49221
340.63270,1.49160
340.39163,1.48744
340.15056,1.49875
339.90948,1.52700
339.66841,1.56404
339.42734,1.60261
339.18627,1.64244
338.94520,1.68100
338.70413,1.71166
338.46306,1.74797
338.22199,1.77701
337.98092,1.77022
337.73985,1.75682
337.49878,1.76993
337.25771,1.79605
337.01664,1.78305
336.77557,1.73728
336.53450,1.70124
336.29343,1.69387
336.05236,1.70305
335.81129,1.72161
335.57021,1.77607
335.32914,1.87456
335.08807,1.94601
334.84700,1.90974
334.60593,1.81050
334.36486,1.72665
334.12379,1.68542
333.88272,1.67593
333.64165,1.68330
333.40058,1.69045
333.15951,1.68069
332.91844,1.65503
332.67737,1.61987
332.43630,1.58498
332.19523,1.55880
331.95416,1.54517
331.71309,1.54177
331.47202,1.54670
331.23094,1.56943
330.98987,1.61120
330.74880,1.64959
330.50773,1.65532
330.26666,1.63460
330.02559,1.61682
329.78452,1.60205
329.54345,1.57322
329.30238,1.53327
329.06131,1.51020
328.82024,1.51415
328.57917,1.51671
328.33810,1.49200
328.09703,1.45076
327.85596,1.41820
327.61489,1.41483
327.37382,1.44370
327.13275,1.48465
326.89167,1.51042
326.65060,1.51156
326.40953,1.49798
326.16846,1.48367
325.92739,1.47366
325.68632,1.46495
325.44525,1.45140
325.20418,1.44532
324.96311,1.46475
324.72204,1.50912
324.48097,1.56747
324.23990,1.62006
323.99883,1.67313
323.75776,1.75662
323.51669,1.84448
323.27562,1.82781
323.03455,1.70626
322.79348,1.60136
322.55240,1.56485
322.31133,1.58373
322.07026,1.62109
321.82919,1.64430
321.58812,1.64847
321.34705,1.66577
321.10598,1.69822
320.86491,1.71077
320.62384,1.70318
320.38277,1.72651
320.14170,1.79257
319.90063,1.85112
319.65956,1.87123
319.41849,1.83706
319.17742,1.80955
318.93635,1.82352
318.69528,1.83586
318.45421,1.84644
318.21313,1.86020
317.97206,1.78326
317.73099,1.71905
317.48992,1.74403
317.24885,1.80578
317.00778,1.82675
316.76671,1.81602
316.52564,1.80706
316.28457,1.79067
316.04350,1.79821
315.80243,1.88173
315.56136,2.01472
315.32029,2.15550
315.07922,2.17604
314.83815,2.07902
314.59708,1.96087
314.35601,1.89544
314.11494,1.93356
313.87386,2.02563
313.63279,2.06317
313.39172,2.08120
313.15065,2.06788
312.90958,1.96009
312.66851,1.91842
312.42744,2.00228
312.18637,2.15486
311.94530,2.22480
311.70423,2.22782
311.46316,2.15962
311.22209,2.31440
310.98102,2.64280
310.73995,2.14643
310.49888,1.96506
310.25781,1.98510
310.01674,1.99825
309.77567,2.08454
309.53459,2.25404
309.29352,2.19570
309.05245,2.08349
308.81138,1.95184
308.57031,1.83092
308.32924,1.79255
308.08817,1.81713
307.84710,1.80415
307.60603,1.73522
307.36496,1.69310
307.12389,1.70591
306.88282,1.74375
306.64175,1.80226
306.40068,1.85650
306.15961,1.84670
305.91854,1.77678
305.67747,1.66678
305.43640,1.56428
305.19532,1.49261
304.95425,1.45243
304.71318,1.44272
304.47211,1.46704
304.23104,1.51541
303.98997,1.54439
303.74890,1.52862
303.50783,1.49696
303.26676,1.46677
303.02569,1.42916
302.78462,1.38110
302.54355,1.33327
302.30248,1.29997
302.06141,1.28957
301.82034,1.29550
301.57927,1.29765
301.33820,1.28242
301.09713,1.25682
300.85605,1.23299
300.61498,1.21414
300.37391,1.20304
300.13284,1.20617
299.89177,1.22151
299.65070,1.23023
299.40963,1.21684
299.16856,1.19312
298.92749,1.17768
298.68642,1.17331
298.44535,1.17234
298.20428,1.16706
297.96321,1.15571
297.72214,1.14069
297.48107,1.12682
297.24000,1.11784
296.99893,1.11444
296.75786,1.11701
296.51678,1.12404
296.27571,1.12837
296.03464,1.12242
295.79357,1.10843
295.55250,1.09595
295.31143,1.09069
295.07036,1.08905
294.82929,1.08357
294.58822,1.07290
294.34715,1.06331
294.10608,1.05952
293.86501,1.05826
293.62394,1.05367
293.38287,1.04553
293.14180,1.03824
292.90073,1.03516
292.65966,1.03555
292.41859,1.03705
292.17751,1.04054
291.93644,1.04772
291.69537,1.05343
291.45430,1.04806
291.21323,1.03171
290.97216,1.01610
290.73109,1.01024
290.49002,1.01380
290.24895,1.02272
290.00788,1.03163
289.76681,1.03274
289.52574,1.02377
289.28467,1.01427
289.04360,1.01274
288.80253,1.01390
288.56146,1.00819
288.32039,0.99782
288.07932,0.99161
287.83824,0.99087
287.59717,0.99103
287.35610,0.99094
287.11503,0.99096
286.87396,0.98736
286.63289,0.97809
286.39182,0.96877
286.15075,0.96540
285.90968,0.96770
285.66861,0.97246
285.42754,0.97752
285.18647,0.98030
284.94540,0.97757
284.70433,0.97044
284.46326,0.96463
284.22219,0.96374
283.98112,0.96561
283.74005,0.96541
283.49897,0.96006
283.25790,0.95057
283.01683,0.94171
282.77576,0.93836
282.53469,0.94105
282.29362,0.94624
282.05255,0.95099
281.81148,0.95612
281.57041,0.96362
281.32934,0.97094
281.08827,0.97167
280.84720,0.96422
280.60613,0.95454
280.36506,0.94795
280.12399,0.94435
279.88292,0.94285
279.64185,0.94519
279.40078,0.95171
279.15970,0.95834
278.91863,0.95993
278.67756,0.95517
278.43649,0.94766
278.19542,0.94262
277.95435,0.94254
277.71328,0.94598
277.47221,0.94945
277.23114,0.95041
276.99007,0.94862
276.74900,0.94490
276.50793,0.94005
276.26686,0.93608
276.02579,0.93587
275.78472,0.93962
275.54365,0.94351
275.30258,0.94496
275.06151,0.94605
274.82043,0.94849
274.57936,0.95043
274.33829,0.95170
274.09722,0.95583
273.85615,0.96368
273.61508,0.97070
273.37401,0.97337
273.13294,0.97377
272.89187,0.97447
272.65080,0.97337
272.40973,0.96795
272.16866,0.96013
271.92759,0.95373
271.68652,0.95050
271.44545,0.95093
271.20438,0.95594
270.96331,0.96511
270.72224,0.97434
270.48116,0.97868
270.24009,0.97743
269.99902,0.97366
269.75795,0.97051
269.51688,0.97157
269.27581,0.98052
269.03474,0.99517
268.79367,1.00588
268.55260,1.00568
268.31153,0.99871
268.07046,0.99465
267.82939,0.99876
267.58832,1.00889
267.34725,1.01863
267.10618,1.02380
266.86511,1.02625
266.62404,1.02958
266.38297,1.03423
266.14189,1.03944
265.90082,1.04599
265.65975,1.05473
265.41868,1.06452
265.17761,1.07416
264.93654,1.08262
264.69547,1.08594
264.45440,1.08122
264.21333,1.07289
263.97226,1.06908
263.73119,1.07398
263.49012,1.08590
263.24905,1.10183
263.00798,1.12045
262.76691,1.13854
262.52584,1.15163
262.28477,1.16137
262.04370,1.17370
261.80262,1.18925
261.56155,1.20422
261.32048,1.21818
261.07941,1.23358
260.83834,1.25036
260.59727,1.26549
260.35620,1.27717
260.11513,1.28552
259.87406,1.29221
259.63299,1.30333
259.39192,1.32420
259.15085,1.34937
258.90978,1.36849
258.66871,1.38351
258.42764,1.40640
258.18657,1.43872
257.94550,1.46831
257.70443,1.48735
257.46335,1.49983
257.22228,1.51388
256.98121,1.53912
256.74014,1.57569
256.49907,1.61229
256.25800,1.63927
256.01693,1.64673
255.77586,1.64017
255.53479,1.65127
255.29372,1.70945
255.05265,1.81335
254.81158,1.92852
254.57051,2.00927
254.32944,2.03369
254.08837,2.01237
253.84730,1.96470
253.60623,1.90695
253.36516,1.86210
253.12408,1.86493
252.88301,1.95368
252.64194,2.13876
252.40087,2.30860
252.15980,2.27465
251.91873,2.16222
251.67766,2.12580
251.43659,2.16629
251.19552,2.12880
250.95445,2.04125
250.71338,2.03879
250.47231,2.16502
250.23124,2.26584
249.99017,2.22066
249.74910,2.23254
249.50803,2.31663
249.26696,2.38140
249.02589,2.38227
248.78481,2.32498
248.54374,2.30792
248.30267,2.35651
248.06160,2.36382
247.82053,2.47885
247.57946,2.81688
247.33839,2.48783
247.09732,2.29078
246.85625,2.39162
246.61518,2.55029
246.37411,2.56733
246.13304,2.39610
245.89197,2.36445
245.65090,2.29532
245.40983,2.09828
245.16876,1.95552
244.92769,1.84250
244.68661,1.75302
244.44554,1.70813
244.20447,1.69312
243.96340,1.66682
243.72233,1.61257
243.48126,1.55406
243.24019,1.51398
242.99912,1.48910
242.75805,1.45664
242.51698,1.40260
242.27591,1.34162
242.03484,1.29437
241.79377,1.26204
241.55270,1.23257
241.31163,1.19823
241.07056,1.16192
240.82949,1.12829
240.58842,1.09522
240.34734,1.05718
240.10627,1.01368
239.86520,0.97077
239.62413,0.93409
239.38306,0.90370
239.14199,0.87679
238.90092,0.85232
238.65985,0.83111
238.41878,0.81444
238.17771,0.80351
237.93664,0.79804
237.69557,0.79485
237.45450,0.78962
237.21343,0.78009
236.97236,0.76735
236.73129,0.75455
236.49022,0.74396
236.24915,0.73508
236.00807,0.72627
235.76700,0.71736
235.52593,0.70909
235.28486,0.70146
235.04379,0.69475
234.80272,0.69015
234.56165,0.68749
234.32058,0.68453
234.07951,0.68004
233.83844,0.67577
233.59737,0.67393
233.35630,0.67358
233.11523,0.67137
232.87416,0.66625
232.63309,0.66133
232.39202,0.65968
232.15095,0.66068
231.90988,0.66249
231.66880,0.66452
231.42773,0.66563
231.18666,0.66277
230.94559,0.65405
230.70452,0.64207
230.46345,0.63201
230.22238,0.62741
229.98131,0.62874
229.74024,0.63439
229.49917,0.64159
229.25810,0.64686
229.01703,0.64729
228.77596,0.64315
228.53489,0.63805
228.29382,0.63506
228.05275,0.63415
227.81168,0.63417
227.57061,0.63581
227.32953,0.64023
227.08846,0.64567
226.84739,0.64798
226.60632,0.64536
226.36525,0.64067
226.12418,0.63776
225.88311,0.63752
225.64204,0.63883
225.40097,0.64108
225.15990,0.64436
224.91883,0.64874
224.67776,0.65413
224.43669,0.65969
224.19562,0.66383
223.95455,0.66563
223.71348,0.66545
223.47241,0.66416
223.23134,0.66305
222.99026,0.66413
222.74919,0.66876
222.50812,0.67637
222.26705,0.68544
222.02598,0.69441
221.78491,0.70189
221.54384,0.70782
221.30277,0.71415
221.06170,0.72217
220.82063,0.73035
220.57956,0.73728
220.33849,0.74386
220.09742,0.75029
219.85635,0.75507
219.61528,0.75929
219.37421,0.76701
219.13314,0.77968
218.89207,0.79430
218.65099,0.80762
218.40992,0.81848
218.16885,0.82707
217.92778,0.83453
217.68671,0.84173
217.44564,0.84879
217.20457,0.85750
216.96350,0.87043
216.72243,0.88610
216.48136,0.89869
216.24029,0.90535
215.99922,0.91052
215.75815,0.92053
215.51708,0.93685
215.27601,0.95529
215.03494,0.97049
214.79387,0.98119
214.55280,0.99017
214.31172,1.00024
214.07065,1.01277
213.82958,1.02725
213.58851,1.03877
213.34744,1.04110
213.10637,1.03592
212.86530,1.03223
212.62423,1.03512
212.38316,1.04096
212.14209,1.04458
211.90102,1.04718
211.65995,1.05487
211.41888,1.07039
211.17781,1.08779
210.93674,1.09817
210.69567,1.09965
210.45460,1.09660
210.21353,1.09257
209.97245,1.08969
209.73138,1.08945
209.49031,1.09033
209.24924,1.08870
209.00817,1.08448
208.76710,1.08101
208.52603,1.07757
208.28496,1.06886
208.04389,1.05482
207.80282,1.04182
207.56175,1.03235
207.32068,1.02395
207.07961,1.01727
206.83854,1.01447
206.59747,1.01192
206.35640,1.00464
206.11533,0.99508
205.87426,0.98882
205.63318,0.98637
205.39211,0.98340
205.15104,0.97606
204.90997,0.96428
204.66890,0.95073
204.42783,0.93732
204.18676,0.92354
203.94569,0.90882
203.70462,0.89485
203.46355,0.88410
203.22248,0.87722
202.98141,0.87183
202.74034,0.86317
202.49927,0.84817
202.25820,0.82976
202.01713,0.81325
201.77606,0.80012
201.53499,0.78798
201.29391,0.77512
201.05284,0.76300
200.81177,0.75370
200.57070,0.74682
200.32963,0.73952
200.08856,0.72880
199.84749,0.71425
199.60642,0.69921
199.36535,0.68743
199.12428,0.67881
198.88321,0.67059
198.64214,0.66150
198.40107,0.65205
198.16000,0.64232
197.91893,0.63226
197.67786,0.62241
197.43679,0.61324
197.19572,0.60458
196.95464,0.59647
196.71357,0.58966
196.47250,0.58467
196.23143,0.58033
195.99036,0.57375
195.74929,0.56313
195.50822,0.55086
195.26715,0.54173
195.02608,0.53795
194.78501,0.53750
194.54394,0.53700
194.30287,0.53459
194.06180,0.53051
193.82073,0.52619
193.57966,0.52255
193.33859,0.51915
193.09752,0.51533
192.85645,0.51120
192.61537,0.50708
192.37430,0.50315
192.13323,0.49968
191.89216,0.49622
191.65109,0.49138
191.41002,0.48464
191.16895,0.47761
190.92788,0.47258
190.68681,0.47053
190.44574,0.47045
190.20467,0.47008
189.96360,0.46768
189.72253,0.46399
189.48146,0.46158
189.24039,0.46206
188.99932,0.46455
188.75825,0.46695
188.51718,0.46780
188.27610,0.46674
188.03503,0.46391
187.79396,0.45993
187.55289,0.45635
187.31182,0.45455
187.07075,0.45389
186.82968,0.45234
186.58861,0.44995
186.34754,0.44949
186.10647,0.45243
185.86540,0.45642
185.62433,0.45858
185.38326,0.45910
185.14219,0.45936
184.90112,0.45921
184.66005,0.45848
184.41898,0.45863
184.17791,0.46070
183.93683,0.46369
183.69576,0.46631
183.45469,0.46827
183.21362,0.46900
182.97255,0.46785
182.73148,0.46639
182.49041,0.46750
182.24934,0.47147
182.00827,0.47532
181.76720,0.47686
181.52613,0.47712
181.28506,0.47848
181.04399,0.48161
180.80292,0.48499
180.56185,0.48720
180.32078,0.48841
180.07971,0.48926
179.83864,0.49040
179.59756,0.49379
179.35649,0.50121
179.11542,0.51020
178.87435,0.51552
178.63328,0.51612
178.39221,0.51669
178.15114,0.52116
177.91007,0.52896
177.66900,0.53812
177.42793,0.54886
177.18686,0.56228
176.94579,0.57777
176.70472,0.59352
176.46365,0.60832
176.22258,0.62224
175.98151,0.63688
175.74044,0.65479
175.49937,0.67700
175.25829,0.70103
175.01722,0.72305
174.77615,0.74155
174.53508,0.75737
174.29401,0.77171
174.05294,0.78587
173.81187,0.80072
173.57080,0.81458
173.32973,0.82474
173.08866,0.83252
172.84759,0.84159
172.60652,0.85081
172.36545,0.85712
172.12438,0.86299
171.88331,0.87180
171.64224,0.87938
171.40117,0.87984
171.16010,0.87509
170.91902,0.87005
170.67795,0.86462
170.43688,0.85756
170.19581,0.85176
169.95474,0.84962
169.71367,0.84852
169.47260,0.84481
169.23153,0.83846
168.99046,0.83160
168.74939,0.82511
168.50832,0.81931
168.26725,0.81601
168.02618,0.81616
167.78511,0.81657
167.54404,0.81309
167.30297,0.80599
167.06190,0.79873
166.82083,0.79406
166.57975,0.79444
166.33868,0.80198
166.09761,0.81465
165.85654,0.82586
165.61547,0.83135
165.37440,0.83392
165.13333,0.83838
164.89226,0.84556
164.65119,0.85301
164.41012,0.85941
164.16905,0.86584
163.92798,0.87295
163.68691,0.87936
163.44584,0.88491
163.20477,0.89347
162.96370,0.90919
162.72263,0.93122
162.48156,0.95439
162.24048,0.97335
161.99941,0.98399
161.75834,0.98537
161.51727,0.98212
161.27620,0.97856
161.03513,0.97197
160.79406,0.95985
160.55299,0.94867
160.31192,0.94574
160.07085,0.94919
159.82978,0.95329
159.58871,0.95681
159.34764,0.95986
159.10657,0.95955
158.86550,0.95438
158.62443,0.94720
158.38336,0.93976
158.14229,0.92997
157.90121,0.91761
157.66014,0.90735
157.41907,0.90194
157.17800,0.89743
156.93693,0.89003
156.69586,0.88367
156.45479,0.88471
156.21372,0.89099
155.97265,0.89211
155.73158,0.88199
155.49051,0.86602
155.24944,0.85336
155.00837,0.84732
154.76730,0.84384
154.52623,0.83733
154.28516,0.82624
154.04409,0.81262
153.80302,0.79810
153.56194,0.78263
153.32087,0.76595
153.07980,0.74808
152.83873,0.72921
152.59766,0.71042
152.35659,0.69285
152.11552,0.67559
151.87445,0.65711
151.63338,0.63858
151.39231,0.62221
151.15124,0.60790
150.91017,0.59430
150.66910,0.58144
150.42803,0.56983
150.18696,0.55850
149.94589,0.54686
149.70482,0.53700
149.46375,0.53081
149.22267,0.52609
148.98160,0.51880
148.74053,0.50851
148.49946,0.49826
148.25839,0.49049
148.01732,0.48626
147.77625,0.48591
147.53518,0.48749
147.29411,0.48669
147.05304,0.48153
146.81197,0.47499
146.57090,0.47108
146.32983,0.47121
146.08876,0.47495
145.84769,0.48137
145.60662,0.48856
145.36555,0.49455
145.12448,0.49937
144.88340,0.50445
144.64233,0.50991
144.40126,0.51469
144.16019,0.51874
143.91912,0.52229
143.67805,0.52343
143.43698,0.51976
143.19591,0.51234
142.95484,0.50435
142.71377,0.49664
142.47270,0.48788
142.23163,0.47782
141.99056,0.46769
141.74949,0.45855
141.50842,0.45079
141.26735,0.44401
141.02628,0.43746
140.78521,0.43151
140.54413,0.42790
140.30306,0.42739
140.06199,0.42878
139.82092,0.43120
139.57985,0.43516
139.33878,0.44124
139.09771,0.44945
138.85664,0.45933
138.61557,0.46919
138.37450,0.47633
138.13343,0.47988
137.89236,0.48261
137.65129,0.48872
137.41022,0.50048
137.16915,0.51709
136.92808,0.53630
136.68701,0.55611
136.44594,0.57595
136.20486,0.59781
135.96379,0.62534
135.72272,0.65902
135.48165,0.69323
135.24058,0.72148
134.99951,0.74370
134.75844,0.76390
134.51737,0.78310
134.27630,0.80057
134.03523,0.82008
133.79416,0.84699
133.55309,0.87841
133.31202,0.90326
133.07095,0.91649
132.82988,0.92628
132.58881,0.94237
132.34774,0.96367
132.10667,0.97929
131.86559,0.97908
131.62452,0.96317
131.38345,0.94109
131.14238,0.92254
130.90131,0.90919
130.66024,0.89530
130.41917,0.87520
130.17810,0.84852
129.93703,0.81837
129.69596,0.78740
129.45489,0.75677
129.21382,0.72691
128.97275,0.69791
128.73168,0.66974
128.49061,0.64267
128.24954,0.61711
128.00847,0.59258
127.76740,0.56776
127.52632,0.54299
127.28525,0.52061
127.04418,0.50166
126.80311,0.48443
126.56204,0.46728
126.32097,0.45092
126.07990,0.43688
125.83883,0.42481
125.59776,0.41305
125.35669,0.40122
125.11562,0.39031
124.87455,0.38038
124.63348,0.37017
124.39241,0.35929
124.15134,0.34979
123.91027,0.34423
123.66920,0.34256
123.42812,0.34162
123.18705,0.33885
122.94598,0.33546
122.70491,0.33411
122.46384,0.33505
122.22277,0.33658
121.98170,0.33793
121.74063,0.33979
121.49956,0.34321
121.25849,0.34893
121.01742,0.35667
120.77635,0.36458
120.53528,0.37066
120.29421,0.37571
120.05314,0.38365
119.81207,0.39723
119.57100,0.41512
119.32993,0.43463
119.08885,0.45579
118.84778,0.48019
118.60671,0.50738
118.36564,0.53488
118.12457,0.56055
117.88350,0.58279
117.64243,0.60085
117.40136,0.61595
117.16029,0.62906
116.91922,0.63833
116.67815,0.64159
116.43708,0.63964
116.19601,0.63424
115.95494,0.62573
115.71387,0.61486
115.47280,0.60380
115.23173,0.59303
114.99066,0.58009
114.74958,0.56424
114.50851,0.54933
114.26744,0.53909
114.02637,0.53258
113.78530,0.52723
113.54423,0.52392
113.30316,0.52558
113.06209,0.53237
112.82102,0.54076
112.57995,0.54675
112.33888,0.54932
112.09781,0.55082
111.85674,0.55408
111.61567,0.55858
111.37460,0.56115
111.13353,0.56187
110.89246,0.56519
110.65139,0.57315
110.41031,0.58136
110.16924,0.58409
109.92817,0.57916
109.68710,0.56644
109.44603,0.54651
109.20496,0.52256
108.96389,0.50061
108.72282,0.48555
108.48175,0.47564
108.24068,0.46300
107.99961,0.44324
107.75854,0.42173
107.51747,0.40553
107.27640,0.39314
107.03533,0.37808
106.79426,0.35967
106.55319,0.34385
106.31212,0.33411
106.07104,0.32743
105.82997,0.31920
105.58890,0.30815
105.34783,0.29573
105.10676,0.28343
104.86569,0.27260
104.62462,0.26492
104.38355,0.26106
104.14248,0.25941
103.90141,0.25725
103.66034,0.25280
103.41927,0.24653
103.17820,0.24034
102.93713,0.23532
102.69606,0.23106
102.45499,0.22777
102.21392,0.22705
101.97285,0.22896
101.73177,0.23035
101.49070,0.22789
101.24963,0.22173
101.00856,0.21460
100.76749,0.20860
100.52642,0.20409
100.28535,0.20085
100.04428,0.19866
99.80321,0.19731
99.56214,0.19692
99.32107,0.19704
99.08000,0.19562
98.83893,0.19102
98.59786,0.18529
98.35679,0.18224
98.11572,0.18311
97.87465,0.18645
97.63358,0.19027
97.39250,0.19264
97.15143,0.19268
96.91036,0.19233
96.66929,0.19482
96.42822,0.20126
96.18715,0.21028
95.94608,0.21988
95.70501,0.22837
95.46394,0.23528
95.22287,0.24191
94.98180,0.24942
94.74073,0.25642
94.49966,0.26037
94.25859,0.26073
94.01752,0.25911
93.77645,0.25703
93.53538,0.25554
93.29431,0.25573
93.05323,0.25768
92.81216,0.26001
92.57109,0.26173
92.33002,0.26346
92.08895,0.26622
91.84788,0.27022
91.60681,0.27545
91.36574,0.28224
91.12467,0.29115
90.88360,0.30371
90.64253,0.32301
90.40146,0.35159
90.16039,0.38885
89.91932,0.43085
89.67825,0.47269
89.43718,0.51130
89.19611,0.54593
88.95504,0.57487
88.71396,0.59278
88.47289,0.59309
88.23182,0.57408
87.99075,0.54136
87.74968,0.50242
87.50861,0.46183
87.26754,0.42240
87.02647,0.38652
86.78540,0.35498
86.54433,0.32757
86.30326,0.30452
86.06219,0.28529
85.82112,0.26749
85.58005,0.24886
85.33898,0.22962
85.09791,0.21145
84.85684,0.19544
84.61577,0.18197
84.37469,0.17153
84.13362,0.16441
83.89255,0.15990
83.65148,0.15646
83.41041,0.15248
83.16934,0.14737
82.92827,0.14197
82.68720,0.13762
82.44613,0.13454
82.20506,0.13197
81.96399,0.12949
81.72292,0.12710
81.48185,0.12432
81.24078,0.12096
80.99971,0.11844
80.75864,0.11851
80.51757,0.12046
80.27650,0.12123
80.03542,0.11858
79.79435,0.11352
79.55328,0.10904
79.31221,0.10699
79.07114,0.10708
78.83007,0.10857
78.58900,0.11108
78.34793,0.11376
78.10686,0.11541
77.86579,0.11568
77.62472,0.11469
77.38365,0.11168
77.14258,0.10617
76.90151,0.09993
76.66044,0.09594
76.41937,0.09520
76.17830,0.09560
75.93723,0.09447
75.69615,0.09136
75.45508,0.08817
75.21401,0.08686
74.97294,0.08767
74.73187,0.08957
74.49080,0.09148
74.24973,0.09249
74.00866,0.09172
73.76759,0.08896
73.52652,0.08481
73.28545,0.08023
73.04438,0.07707
72.80331,0.07749
72.56224,0.08143
72.32117,0.08631
72.08010,0.09004
71.83903,0.09270
71.59796,0.09466
71.35688,0.09576
71.11581,0.09684
70.87474,0.09967
70.63367,0.10494
70.39260,0.11219
70.15153,0.12143
69.91046,0.13325
69.66939,0.14734
69.42832,0.16179
69.18725,0.17358
68.94618,0.17960
68.70511,0.17796
68.46404,0.16869
68.22297,0.15391
67.98190,0.13747
67.74083,0.12300
67.49976,0.11177
67.25869,0.10319
67.01761,0.09700
66.77654,0.09350
66.53547,0.09169
66.29440,0.08870
66.05333,0.08271
65.81226,0.07592
65.57119,0.07329
65.33012,0.07730
65.08905,0.08490
64.84798,0.09098
64.60691,0.09448
64.36584,0.09892
64.12477,0.10607
63.88370,0.11210
63.64263,0.11225
63.40156,0.10731
63.16049,0.10191
62.91942,0.09822
62.67834,0.09447
62.43727,0.08909
62.19620,0.08349
61.95513,0.07969
61.71406,0.07715
61.47299,0.07331
61.23192,0.06721
60.99085,0.06107
60.74978,0.05753
60.50871,0.05660
60.26764,0.05660
60.02657,0.05707
59.78550,0.05896
59.54443,0.06286
59.30336,0.06816
59.06229,0.07285
58.82122,0.07425
58.58015,0.07220
58.33907,0.07031
58.09800,0.07139
57.85693,0.07257
57.61586,0.06893
57.37479,0.06137
57.13372,0.05601
56.89265,0.05528
56.65158,0.05493
56.41051,0.05112
56.16944,0.04594
55.92837,0.04394
55.68730,0.04614
55.44623,0.04930
55.20516,0.05017
54.96409,0.04882
54.72302,0.04709
54.48195,0.04580
54.24088,0.04534
53.99980,0.04733
53.75873,0.05337
53.51766,0.06238
53.27659,0.06992
53.03552,0.07132
52.79445,0.06675
52.55338,0.06149
52.31231,0.05881
52.07124,0.05612
51.83017,0.05140
51.58910,0.04713
51.34803,0.04480
51.10696,0.04220
50.86589,0.03846
50.62482,0.03557
50.38375,0.03393
50.14268,0.03107
49.90161,0.02561
49.66053,0.01987
49.41946,0.01696
49.17839,0.01636
48.93732,0.01449
48.69625,0.01023
48.45518,0.00667
48.21411,0.00617
47.97304,0.00742
47.73197,0.00762
47.49090,0.00480
47.24983,-0.00199
47.00876,-0.01116
46.76769,-0.01831
46.52662,-0.01917
46.28555,-0.01291
46.04448,-0.00306
45.80341,0.00497
45.56234,0.00785
45.32126,0.00499
45.08019,-0.00217
44.83912,-0.00946
44.59805,-0.01119
44.35698,-0.00592
44.11591,0.00077
43.87484,0.00349
43.63377,0.00339
43.39270,0.00330
43.15163,0.00155
42.91056,-0.00388
42.66949,-0.01001
42.42842,-0.01368
42.18735,-0.01701
41.94628,-0.02299
41.70521,-0.02966
41.46414,-0.03389
41.22307,-0.03632
40.98199,-0.03785
40.74092,-0.03588
40.49985,-0.02543
40.25878,-0.00608
40.01771,0.01159
39.77664,0.01392
39.53557,0.00113
39.29450,-0.01302
39.05343,-0.01909
38.81236,-0.01898
38.57129,-0.01678
38.33022,-0.01296
38.08915,-0.01024
37.84808,-0.01445
37.60701,-0.02338
37.36594,-0.02491
37.12487,-0.01368
36.88380,0.00071
36.64272,0.00911
36.40165,0.00788
36.16058,-0.00737
35.91951,-0.03455
35.67844,-0.05615
35.43737,-0.05353
35.19630,-0.03297
34.95523,-0.02224
34.71416,-0.03931
34.47309,-0.07188
34.23202,-0.08671
33.99095,-0.06289
33.74988,-0.01553
33.50881,0.01870
33.26774,0.01904
33.02667,0.00153
32.78560,0.00005
32.54453,0.01991
32.30345,0.03154
32.06238,0.02028
31.82131,0.00016
31.58024,-0.01703
31.33917,-0.03148
31.09810,-0.03819
30.85703,-0.02688
30.61596,-0.00356
30.37489,0.01025
30.13382,-0.00294
29.89275,-0.04268
29.65168,-0.08388
29.41061,-0.09119
29.16954,-0.05250
28.92847,0.01741
28.68740,0.09983
28.44633,0.15439
28.20526,0.14187
27.96418,0.08197
27.72311,0.03992
27.48204,0.04431
27.24097,0.07288
26.99990,0.09773
26.75883,0.10974
26.51776,0.11254
26.27669,0.11955
26.03562,0.13731
25.79455,0.14916
25.55348,0.15505
25.31241,0.19288
25.07134,0.26982
24.83027,0.34539
24.58920,0.40350
24.34813,0.42643
24.10706,0.37111
23.86599,0.25993
23.62491,0.18973
23.38384,0.21496
23.14277,0.27429
22.90170,0.29956
22.66063,0.31173
22.41956,0.35438
22.17849,0.40121
21.93742,0.40059
21.69635,0.34664
21.45528,0.29964
21.21421,0.28250
20.97314,0.27722
20.73207,0.29324
20.49100,0.35138
20.24993,0.43350
20.00886,0.48431
19.76779,0.47611
19.52672,0.44675
19.28564,0.41297
19.04457,0.35677
18.80350,0.34526
18.56243,0.43584
18.32136,0.60706
18.08029,0.63233
17.83922,0.55994
17.59815,0.51462
17.35708,0.53342
17.11601,0.62797
16.87494,0.78372
16.63387,0.88227
16.39280,0.83126
16.15173,0.72348
15.91066,0.61840
15.66959,0.52846
15.42852,0.50398
15.18745,0.58961
14.94637,0.69376
14.70530,0.74239
14.46423,0.73122
14.22316,0.55025
13.98209,0.38851
13.74102,0.37245
13.49995,0.56133
13.25888,0.93342
13.01781,0.85582
12.77674,0.61906
12.53567,0.44840
12.29460,0.40167
12.05353,0.46417
11.81246,0.56811
11.57139,0.64003
11.33032,0.72322
11.08925,0.79784
10.84818,0.80283
10.60710,0.76938
10.36603,0.71697
10.12496,0.65791
9.88389,0.58008
9.64282,0.48103
9.40175,0.46440
9.16068,0.61967
8.91961,0.81761
8.67854,0.79995
8.43747,0.68213
8.19640,0.58059
7.95533,0.55421
7.71426,0.55446
7.47319,0.53213
7.23212,0.57961
6.99105,0.73404
6.74998,0.93510
6.50891,0.99386
6.26783,0.80892
6.02676,0.71605
5.78569,0.86621
5.54462,1.04954
5.30355,0.98855
5.06248,1.06743
4.82141,0.77834
4.58034,0.60460
4.33927,0.58232
4.09820,0.60286
3.85713,0.62601
3.61606,0.79392
3.37499,1.08355
3.13392,0.86932
2.89285,0.66158
2.65178,0.65960
2.41071,0.68012
2.16964,0.58994
1.92856,0.55040
1.68749,0.56178
1.44642,0.58366
1.20535,0.66129
0.96428,0.72654
0.72321,0.71561
0.48214,0.69641
0.24107,0.76421
-0.00000,1.02055
