399.69498,1.64606
399.45391,1.61045
399.21284,1.59135
398.97177,1.60136
398.73070,1.61640
398.48963,1.60918
398.24856,1.59480
398.00749,1.60030
397.76642,1.61962
397.52535,1.62906
397.28428,1.64202
397.04321,1.69880
396.80214,1.80232
396.56107,1.88183
396.32000,1.86902
396.07892,1.79506
395.83785,1.72136
395.59678,1.67584
395.35571,1.64775
395.11464,1.62442
394.87357,1.63213
394.63250,1.71850
394.39143,1.88029
394.15036,2.00112
393.90929,2.01408
393.66822,2.00732
393.42715,2.04538
393.18608,2.10260
392.94501,2.14361
392.70394,2.12329
392.46287,2.00281
392.22180,1.89327
391.98073,1.84243
391.73965,1.83993
391.49858,1.83083
391.25751,1.81016
391.01644,1.79207
390.77537,1.74925
390.53430,1.69672
390.29323,1.65986
390.05216,1.65181
389.81109,1.70051
389.57002,1.82875
389.32895,2.00129
389.08788,2.11260
388.84681,2.20698
388.60574,2.22645
388.36467,2.17492
388.12360,2.09196
387.88253,1.98741
387.64146,1.90422
387.40038,1.87148
387.15931,1.90298
386.91824,2.02373
386.67717,2.14236
386.43610,2.12489
386.19503,1.99867
385.95396,1.95409
385.71289,1.97357
385.47182,2.04515
385.23075,2.07879
384.98968,2.03984
384.74861,2.13856
384.50754,2.31967
384.26647,2.24361
384.02540,2.14069
383.78433,2.06551
383.54326,2.08787
383.30219,2.05409
383.06111,2.05372
382.82004,2.14105
382.57897,2.18858
382.33790,2.11239
382.09683,1.88870
381.85576,1.68454
381.61469,1.57391
381.37362,1.60171
381.13255,1.83218
380.89148,2.12663
380.65041,2.11927
380.40934,2.07117
380.16827,1.99800
379.92720,1.95969
379.68613,2.14409
379.44506,2.27682
379.20399,1.93852
378.96292,1.87889
378.72184,2.05034
378.48077,2.11089
378.23970,2.11484
377.99863,2.03733
377.75756,2.05070
377.51649,1.92925
377.27542,1.77104
377.03435,1.74230
376.79328,1.86338
376.55221,2.02363
376.31114,2.07817
376.07007,2.12120
375.82900,2.14238
375.58793,2.12655
375.34686,2.00009
375.10579,1.93927
374.86472,1.97896
374.62365,2.01977
374.38257,1.95144
374.14150,1.88083
373.90043,1.84256
373.65936,1.81260
373.41829,1.80586
373.17722,1.82497
372.93615,1.82970
372.69508,1.79926
372.45401,1.76470
372.21294,1.76387
371.97187,1.77907
371.73080,1.76363
371.48973,1.71570
371.24866,1.66101
371.00759,1.60536
370.76652,1.54471
370.52545,1.48799
370.28437,1.44392
370.04330,1.41443
369.80223,1.40093
369.56116,1.40059
369.32009,1.40506
369.07902,1.40740
368.83795,1.40650
368.59688,1.40073
368.35581,1.38640
368.11474,1.36645
367.87367,1.34795
367.63260,1.33735
367.39153,1.33663
367.15046,1.33792
366.90939,1.33219
366.66832,1.31960
366.42725,1.30708
366.18618,1.30643
365.94510,1.32135
365.70403,1.33512
365.46296,1.32943
365.22189,1.31105
364.98082,1.29961
364.73975,1.29573
364.49868,1.28490
364.25761,1.26892
364.01654,1.26589
363.77547,1.28166
363.53440,1.29873
363.29333,1.29760
363.05226,1.28128
362.81119,1.26452
362.57012,1.25763
362.32905,1.26529
362.08798,1.28659
361.84691,1.31201
361.60583,1.32392
361.36476,1.30873
361.12369,1.27147
360.88262,1.23315
360.64155,1.21366
360.40048,1.21740
360.15941,1.23371
359.91834,1.25267
359.67727,1.27231
359.43620,1.28784
359.19513,1.29010
358.95406,1.28103
358.71299,1.27814
358.47192,1.29019
358.23085,1.30123
357.98978,1.29046
357.74871,1.26242
357.50764,1.24081
357.26656,1.23951
357.02549,1.25109
356.78442,1.25906
356.54335,1.25757
356.30228,1.25518
356.06121,1.25721
355.82014,1.25399
355.57907,1.23503
355.33800,1.20823
355.09693,1.19249
354.85586,1.19598
354.61479,1.21073
354.37372,1.22434
354.13265,1.23154
353.89158,1.23455
353.65051,1.23552
353.40944,1.23412
353.16837,1.23244
352.92729,1.23521
352.68622,1.24370
352.44515,1.25358
352.20408,1.25992
351.96301,1.26190
351.72194,1.26301
351.48087,1.26564
351.23980,1.26704
350.99873,1.26542
350.75766,1.26494
350.51659,1.26927
350.27552,1.27653
350.03445,1.28209
349.79338,1.28277
349.55231,1.28012
349.31124,1.27933
349.07017,1.28217
348.82910,1.28279
348.58802,1.27604
348.34695,1.26420
348.10588,1.24798
347.86481,1.22683
347.62374,1.20964
347.38267,1.21038
347.14160,1.23229
346.90053,1.26129
346.65946,1.27945
346.41839,1.28665
346.17732,1.29749
345.93625,1.31551
345.69518,1.32879
345.45411,1.33469
345.21304,1.34986
344.97197,1.38354
344.73090,1.41569
344.48983,1.41721
344.24875,1.39006
344.00768,1.35887
343.76661,1.33716
343.52554,1.32788
343.28447,1.33331
343.04340,1.35168
342.80233,1.37602
342.56126,1.40230
342.32019,1.43157
342.07912,1.45836
341.83805,1.46712
341.59698,1.45407
341.35591,1.43783
341.11484,1.43517
340.87377,1.44518
340.63270,1.45745
340.39163,1.47435
340.15056,1.51129
339.90948,1.56261
339.66841,1.59870
339.42734,1.61507
339.18627,1.62871
338.94520,1.66422
338.70413,1.76312
338.46306,1.92118
338.22199,2.00736
337.98092,1.92060
337.73985,1.79227
337.49878,1.72353
337.25771,1.70996
337.01664,1.72386
336.77557,1.76201
336.53450,1.83174
336.29343,1.89935
336.05236,1.91487
335.81129,1.88103
335.57021,1.86189
335.32914,1.87791
335.08807,1.86435
334.84700,1.79090
334.60593,1.71981
334.36486,1.69360
334.12379,1.68340
333.88272,1.65885
333.64165,1.66097
333.40058,1.72614
333.15951,1.79100
332.91844,1.75218
332.67737,1.64627
332.43630,1.56522
332.19523,1.53709
331.95416,1.53734
331.71309,1.52645
331.47202,1.49726
331.23094,1.48195
330.98987,1.50819
330.74880,1.55371
330.50773,1.55837
330.26666,1.51800
330.02559,1.48646
329.78452,1.48682
329.54345,1.49406
329.30238,1.48768
329.06131,1.49345
328.82024,1.53805
328.57917,1.58804
328.33810,1.58346
328.09703,1.53018
327.85596,1.47285
327.61489,1.42891
327.37382,1.39625
327.13275,1.38238
326.89167,1.39673
326.65060,1.43324
326.40953,1.46839
326.16846,1.47956
325.92739,1.46966
325.68632,1.45555
325.44525,1.45023
325.20418,1.46419
324.96311,1.50297
324.72204,1.55827
324.48097,1.60959
324.23990,1.63496
323.99883,1.63273
323.75776,1.61684
323.51669,1.60563
323.27562,1.61088
323.03455,1.62810
322.79348,1.64214
322.55240,1.64519
322.31133,1.63944
322.07026,1.65857
321.82919,1.73697
321.58812,1.80983
321.34705,1.78087
321.10598,1.72385
320.86491,1.74634
320.62384,1.87628
320.38277,2.00125
320.14170,1.96074
319.90063,1.88488
319.65956,1.86044
319.41849,1.89406
319.17742,2.02008
318.93635,2.13910
318.69528,2.23342
318.45421,2.14325
318.21313,2.09771
317.97206,2.21339
317.73099,2.25243
317.48992,2.14259
317.24885,2.03482
317.00778,1.84839
316.76671,1.69169
316.52564,1.68679
316.28457,1.78062
316.04350,1.85633
315.80243,1.79401
315.56136,1.66757
315.32029,1.57942
315.07922,1.54335
314.83815,1.55484
314.59708,1.60762
314.35601,1.69598
314.11494,1.81989
313.87386,1.94225
313.63279,1.90622
313.39172,1.86189
313.15065,1.92852
312.90958,1.99796
312.66851,1.91062
312.42744,1.87168
312.18637,1.92789
311.94530,1.95608
311.70423,1.97625
311.46316,2.00675
311.22209,2.05601
310.98102,2.01258
310.73995,1.89377
310.49888,1.81339
310.25781,1.83000
310.01674,1.95176
309.77567,2.10352
309.53459,2.09751
309.29352,2.00747
309.05245,1.92127
308.81138,1.86734
308.57031,1.87910
308.32924,1.95133
308.08817,2.02646
307.84710,2.00574
307.60603,1.93180
307.36496,1.87933
307.12389,1.82774
306.88282,1.80850
306.64175,1.83431
306.40068,1.86628
306.15961,1.86942
305.91854,1.82205
305.67747,1.74229
305.43640,1.67082
305.19532,1.62228
304.95425,1.58268
304.71318,1.53642
304.47211,1.49584
304.23104,1.46907
303.98997,1.44880
303.74890,1.43224
303.50783,1.42049
303.26676,1.41508
303.02569,1.41611
302.78462,1.41908
302.54355,1.41598
302.30248,1.40649
302.06141,1.39822
301.82034,1.39330
301.57927,1.38193
301.33820,1.35569
301.09713,1.32335
300.85605,1.29568
300.61498,1.26858
300.37391,1.23432
300.13284,1.20059
299.89177,1.18047
299.65070,1.17188
299.40963,1.16213
299.16856,1.14913
298.92749,1.14566
298.68642,1.15825
298.44535,1.17631
298.20428,1.18489
297.96321,1.17980
297.72214,1.16828
297.48107,1.15519
297.24000,1.13768
296.99893,1.11694
296.75786,1.10378
296.51678,1.10656
296.27571,1.12023
296.03464,1.13207
295.79357,1.13412
295.55250,1.12438
295.31143,1.10500
295.07036,1.08336
294.82929,1.06757
294.58822,1.06109
294.34715,1.06109
294.10608,1.06254
293.86501,1.06283
293.62394,1.06085
293.38287,1.05504
293.14180,1.04540
292.90073,1.03530
292.65966,1.02882
292.41859,1.02686
292.17751,1.02663
291.93644,1.02482
291.69537,1.02146
291.45430,1.01880
291.21323,1.01643
290.97216,1.01285
290.73109,1.01122
290.49002,1.01561
290.24895,1.02249
290.00788,1.02316
289.76681,1.01620
289.52574,1.00883
289.28467,1.00505
289.04360,1.00213
288.80253,0.99790
288.56146,0.99312
288.32039,0.98785
288.07932,0.98409
287.83824,0.98717
287.59717,0.99668
287.35610,1.00294
287.11503,0.99927
286.87396,0.99039
286.63289,0.98277
286.39182,0.97704
286.15075,0.97311
285.90968,0.97291
285.66861,0.97577
285.42754,0.97792
285.18647,0.97729
284.94540,0.97494
284.70433,0.97179
284.46326,0.96637
284.22219,0.95712
283.98112,0.94555
283.74005,0.93567
283.49897,0.93105
283.25790,0.93211
283.01683,0.93531
282.77576,0.93613
282.53469,0.93408
282.29362,0.93185
282.05255,0.92969
281.81148,0.92599
281.57041,0.92250
281.32934,0.92258
281.08827,0.92592
280.84720,0.93012
280.60613,0.93522
280.36506,0.94257
280.12399,0.95044
279.88292,0.95351
279.64185,0.94795
279.40078,0.93651
279.15970,0.92665
278.91863,0.92337
278.67756,0.92538
278.43649,0.92896
278.19542,0.93285
277.95435,0.93769
277.71328,0.94343
277.47221,0.94874
277.23114,0.95154
276.99007,0.95027
276.74900,0.94566
276.50793,0.94018
276.26686,0.93555
276.02579,0.93244
275.78472,0.93104
275.54365,0.93049
275.30258,0.92968
275.06151,0.92830
274.82043,0.92755
274.57936,0.92879
274.33829,0.93120
274.09722,0.93287
273.85615,0.93397
273.61508,0.93619
273.37401,0.94011
273.13294,0.94470
272.89187,0.94788
272.65080,0.94704
272.40973,0.94264
272.16866,0.93969
271.92759,0.94135
271.68652,0.94397
271.44545,0.94352
271.20438,0.94407
270.96331,0.95284
270.72224,0.96879
270.48116,0.98217
270.24009,0.98646
269.99902,0.98526
269.75795,0.98546
269.51688,0.98939
269.27581,0.99568
269.03474,1.00144
268.79367,1.00235
268.55260,0.99686
268.31153,0.99104
268.07046,0.99287
267.82939,1.00233
267.58832,1.01219
267.34725,1.01709
267.10618,1.01838
266.86511,1.02091
266.62404,1.02766
266.38297,1.03706
266.14189,1.04421
265.90082,1.04493
265.65975,1.03985
265.41868,1.03533
265.17761,1.03898
264.93654,1.05396
264.69547,1.07666
264.45440,1.09840
264.21333,1.11150
263.97226,1.11572
263.73119,1.11785
263.49012,1.12288
263.24905,1.12788
263.00798,1.12939
262.76691,1.13163
262.52584,1.13978
262.28477,1.15077
262.04370,1.15669
261.80262,1.15696
261.56155,1.16050
261.32048,1.17397
261.07941,1.19391
260.83834,1.21164
260.59727,1.22577
260.35620,1.24375
260.11513,1.26902
259.87406,1.29525
259.63299,1.31479
259.39192,1.32876
259.15085,1.34521
258.90978,1.36524
258.66871,1.38259
258.42764,1.40005
258.18657,1.42567
257.94550,1.45420
257.70443,1.47680
257.46335,1.50221
257.22228,1.54428
256.98121,1.59738
256.74014,1.64162
256.49907,1.67035
256.25800,1.69136
256.01693,1.70448
255.77586,1.70702
255.53479,1.71797
255.29372,1.76160
255.05265,1.80403
254.81158,1.77778
254.57051,1.73001
254.32944,1.72513
254.08837,1.77367
253.84730,1.86987
253.60623,1.99661
253.36516,2.10951
253.12408,2.24919
252.88301,2.43094
252.64194,2.23260
252.40087,2.13970
252.15980,2.17278
251.91873,2.22267
251.67766,2.32596
251.43659,2.45241
251.19552,2.39867
250.95445,2.36634
250.71338,2.45989
250.47231,2.42639
250.23124,2.27145
249.99017,2.02670
249.74910,1.91717
249.50803,1.96736
249.26696,2.16641
249.02589,2.38387
248.78481,2.32607
248.54374,2.19177
248.30267,2.12026
248.06160,2.09028
247.82053,2.14413
247.57946,2.32989
247.33839,2.63316
247.09732,2.94985
246.85625,2.65931
246.61518,2.63713
246.37411,2.35875
246.13304,2.08508
245.89197,1.97427
245.65090,1.97039
245.40983,1.99036
245.16876,1.97540
244.92769,1.94383
244.68661,1.88427
244.44554,1.80353
244.20447,1.74585
243.96340,1.71805
243.72233,1.68945
243.48126,1.63427
243.24019,1.56762
242.99912,1.50944
242.75805,1.45751
242.51698,1.40637
242.27591,1.35405
242.03484,1.29720
241.79377,1.24011
241.55270,1.19116
241.31163,1.15047
241.07056,1.11222
240.82949,1.07534
240.58842,1.04299
240.34734,1.01427
240.10627,0.98494
239.86520,0.95486
239.62413,0.92829
239.38306,0.90731
239.14199,0.88929
238.90092,0.87134
238.65985,0.85404
238.41878,0.83884
238.17771,0.82465
237.93664,0.80954
237.69557,0.79357
237.45450,0.77830
237.21343,0.76519
236.97236,0.75509
236.73129,0.74813
236.49022,0.74270
236.24915,0.73559
236.00807,0.72580
235.76700,0.71593
235.52593,0.70805
235.28486,0.70119
235.04379,0.69400
234.80272,0.68716
234.56165,0.68219
234.32058,0.67908
234.07951,0.67591
233.83844,0.67099
233.59737,0.66518
233.35630,0.66109
233.11523,0.66010
232.87416,0.66122
232.63309,0.66230
232.39202,0.66170
232.15095,0.65919
231.90988,0.65590
231.66880,0.65329
231.42773,0.65222
231.18666,0.65295
230.94559,0.65530
230.70452,0.65832
230.46345,0.66038
230.22238,0.65971
229.98131,0.65541
229.74024,0.64886
229.49917,0.64310
229.25810,0.64020
229.01703,0.63948
228.77596,0.63883
228.53489,0.63732
228.29382,0.63555
228.05275,0.63411
227.81168,0.63343
227.57061,0.63408
227.32953,0.63548
227.08846,0.63580
226.84739,0.63402
226.60632,0.63099
226.36525,0.62812
226.12418,0.62747
225.88311,0.63158
225.64204,0.64044
225.40097,0.65013
225.15990,0.65623
224.91883,0.65771
224.67776,0.65651
224.43669,0.65459
224.19562,0.65285
223.95455,0.65203
223.71348,0.65292
223.47241,0.65584
223.23134,0.66093
222.99026,0.66829
222.74919,0.67678
222.50812,0.68434
222.26705,0.69045
222.02598,0.69681
221.78491,0.70412
221.54384,0.71082
221.30277,0.71619
221.06170,0.72203
220.82063,0.72957
220.57956,0.73668
220.33849,0.74107
220.09742,0.74452
219.85635,0.75105
219.61528,0.76166
219.37421,0.77366
219.13314,0.78445
218.89207,0.79353
218.65099,0.80178
218.40992,0.81071
218.16885,0.82144
217.92778,0.83352
217.68671,0.84556
217.44564,0.85707
217.20457,0.86855
216.96350,0.87989
216.72243,0.88925
216.48136,0.89463
216.24029,0.89757
215.99922,0.90380
215.75815,0.91820
215.51708,0.93907
215.27601,0.95785
215.03494,0.96721
214.79387,0.97087
214.55280,0.97969
214.31172,0.99592
214.07065,1.00882
213.82958,1.01077
213.58851,1.00897
213.34744,1.01355
213.10637,1.02519
212.86530,1.03925
212.62423,1.05342
212.38316,1.06628
212.14209,1.07316
211.90102,1.07119
211.65995,1.06617
211.41888,1.06577
211.17781,1.06917
210.93674,1.07087
210.69567,1.07216
210.45460,1.07900
210.21353,1.08918
209.97245,1.09239
209.73138,1.08495
209.49031,1.07520
209.24924,1.07288
209.00817,1.07968
208.76710,1.08997
208.52603,1.09740
208.28496,1.09986
208.04389,1.09759
207.80282,1.08835
207.56175,1.06880
207.32068,1.04132
207.07961,1.01490
206.83854,0.99789
206.59747,0.99178
206.35640,0.99133
206.11533,0.99002
205.87426,0.98565
205.63318,0.97926
205.39211,0.97104
205.15104,0.96069
204.90997,0.94918
204.66890,0.93787
204.42783,0.92625
204.18676,0.91271
203.94569,0.89766
203.70462,0.88388
203.46355,0.87342
203.22248,0.86532
202.98141,0.85697
202.74034,0.84737
202.49927,0.83770
202.25820,0.82822
202.01713,0.81783
201.77606,0.80702
201.53499,0.79756
201.29391,0.78936
201.05284,0.78000
200.81177,0.76726
200.57070,0.75132
200.32963,0.73476
200.08856,0.72056
199.84749,0.70963
199.60642,0.70050
199.36535,0.69159
199.12428,0.68273
198.88321,0.67414
198.64214,0.66550
198.40107,0.65627
198.16000,0.64646
197.91893,0.63680
197.67786,0.62822
197.43679,0.62070
197.19572,0.61241
196.95464,0.60123
196.71357,0.58826
196.47250,0.57757
196.23143,0.57170
195.99036,0.56909
195.74929,0.56652
195.50822,0.56210
195.26715,0.55536
195.02608,0.54699
194.78501,0.53943
194.54394,0.53505
194.30287,0.53340
194.06180,0.53156
193.82073,0.52730
193.57966,0.52069
193.33859,0.51307
193.09752,0.50608
192.85645,0.50111
192.61537,0.49840
192.37430,0.49662
192.13323,0.49435
191.89216,0.49127
191.65109,0.48730
191.41002,0.48180
191.16895,0.47505
190.92788,0.46876
190.68681,0.46409
190.44574,0.46103
190.20467,0.46013
189.96360,0.46222
189.72253,0.46567
189.48146,0.46690
189.24039,0.46457
188.99932,0.46094
188.75825,0.45906
188.51718,0.46034
188.27610,0.46356
188.03503,0.46516
187.79396,0.46236
187.55289,0.45651
187.31182,0.45149
187.07075,0.44920
186.82968,0.44873
186.58861,0.44927
186.34754,0.45139
186.10647,0.45503
185.86540,0.45817
185.62433,0.45921
185.38326,0.45935
185.14219,0.46037
184.90112,0.46133
184.66005,0.46060
184.41898,0.45930
184.17791,0.45947
183.93683,0.46012
183.69576,0.45900
183.45469,0.45667
183.21362,0.45557
182.97255,0.45663
182.73148,0.45925
182.49041,0.46311
182.24934,0.46771
182.00827,0.47126
181.76720,0.47224
181.52613,0.47173
181.28506,0.47253
181.04399,0.47558
180.80292,0.47896
180.56185,0.48070
180.32078,0.48141
180.07971,0.48324
179.83864,0.48723
179.59756,0.49259
179.35649,0.49815
179.11542,0.50359
178.87435,0.50890
178.63328,0.51372
178.39221,0.51839
178.15114,0.52433
177.91007,0.53284
177.66900,0.54456
177.42793,0.55979
177.18686,0.57762
176.94579,0.59536
176.70472,0.61035
176.46365,0.62257
176.22258,0.63452
175.98151,0.64877
175.74044,0.66595
175.49937,0.68459
175.25829,0.70297
175.01722,0.72107
174.77615,0.73975
174.53508,0.75831
174.29401,0.77463
174.05294,0.78848
173.81187,0.80280
173.57080,0.81996
173.32973,0.83700
173.08866,0.84800
172.84759,0.85258
172.60652,0.85713
172.36545,0.86633
172.12438,0.87760
171.88331,0.88430
171.64224,0.88305
171.40117,0.87645
171.16010,0.86846
170.91902,0.86018
170.67795,0.85224
170.43688,0.84714
170.19581,0.84608
169.95474,0.84637
169.71367,0.84477
169.47260,0.84033
169.23153,0.83324
168.99046,0.82529
168.74939,0.81972
168.50832,0.81738
168.26725,0.81584
168.02618,0.81303
167.78511,0.80938
167.54404,0.80651
167.30297,0.80546
167.06190,0.80543
166.82083,0.80362
166.57975,0.79897
166.33868,0.79541
166.09761,0.79783
165.85654,0.80648
165.61547,0.81759
165.37440,0.82814
165.13333,0.83795
164.89226,0.84822
164.65119,0.85979
164.41012,0.87229
164.16905,0.88469
163.92798,0.89732
163.68691,0.91125
163.44584,0.92518
163.20477,0.93575
162.96370,0.94140
162.72263,0.94445
162.48156,0.94887
162.24048,0.95693
161.99941,0.96730
161.75834,0.97622
161.51727,0.98141
161.27620,0.98343
161.03513,0.98231
160.79406,0.97617
160.55299,0.96558
160.31192,0.95618
160.07085,0.95305
159.82978,0.95444
159.58871,0.95398
159.34764,0.94773
159.10657,0.93693
158.86550,0.92518
158.62443,0.91597
158.38336,0.91248
158.14229,0.91493
157.90121,0.91835
157.66014,0.91773
157.41907,0.91410
157.17800,0.91109
156.93693,0.90762
156.69586,0.89997
156.45479,0.88935
156.21372,0.88045
155.97265,0.87394
155.73158,0.86669
155.49051,0.85731
155.24944,0.84686
155.00837,0.83704
154.76730,0.82964
154.52623,0.82432
154.28516,0.81809
154.04409,0.80907
153.80302,0.79769
153.56194,0.78456
153.32087,0.76957
153.07980,0.75244
152.83873,0.73347
152.59766,0.71417
152.35659,0.69598
152.11552,0.67827
151.87445,0.65985
151.63338,0.64169
151.39231,0.62563
151.15124,0.61192
150.91017,0.59965
150.66910,0.58764
150.42803,0.57439
150.18696,0.55954
149.94589,0.54540
149.70482,0.53475
149.46375,0.52776
149.22267,0.52231
148.98160,0.51637
148.74053,0.50891
148.49946,0.50019
148.25839,0.49223
148.01732,0.48684
147.77625,0.48305
147.53518,0.47876
147.29411,0.47397
147.05304,0.47026
146.81197,0.46871
146.57090,0.46986
146.32983,0.47364
146.08876,0.47827
145.84769,0.48139
145.60662,0.48320
145.36555,0.48660
145.12448,0.49359
144.88340,0.50280
144.64233,0.51134
144.40126,0.51814
144.16019,0.52414
143.91912,0.52925
143.67805,0.53129
143.43698,0.52832
143.19591,0.52053
142.95484,0.50974
142.71377,0.49804
142.47270,0.48672
142.23163,0.47614
141.99056,0.46658
141.74949,0.45861
141.50842,0.45252
141.26735,0.44802
141.02628,0.44434
140.78521,0.44078
140.54413,0.43773
140.30306,0.43650
140.06199,0.43761
139.82092,0.44036
139.57985,0.44438
139.33878,0.44972
139.09771,0.45564
138.85664,0.46104
138.61557,0.46615
138.37450,0.47243
138.13343,0.48107
137.89236,0.49229
137.65129,0.50584
137.41022,0.52144
137.16915,0.53771
136.92808,0.55190
136.68701,0.56275
136.44594,0.57331
136.20486,0.58838
135.96379,0.60975
135.72272,0.63589
135.48165,0.66464
135.24058,0.69375
134.99951,0.72109
134.75844,0.74709
134.51737,0.77410
134.27630,0.80189
134.03523,0.82686
133.79416,0.84593
133.55309,0.86000
133.31202,0.87315
133.07095,0.88981
132.82988,0.91206
132.58881,0.93644
132.34774,0.95361
132.10667,0.95650
131.86559,0.95078
131.62452,0.94903
131.38345,0.95296
131.14238,0.95066
130.90131,0.93344
130.66024,0.90490
130.41917,0.87172
130.17810,0.83708
129.93703,0.80331
129.69596,0.77294
129.45489,0.74670
129.21382,0.72266
128.97275,0.69805
128.73168,0.67192
128.49061,0.64498
128.24954,0.61763
128.00847,0.58998
127.76740,0.56275
127.52632,0.53671
127.28525,0.51232
127.04418,0.49072
126.80311,0.47309
126.56204,0.45873
126.32097,0.44576
126.07990,0.43372
125.83883,0.42352
125.59776,0.41496
125.35669,0.40577
125.11562,0.39404
124.87455,0.38071
124.63348,0.36846
124.39241,0.35857
124.15134,0.35040
123.91027,0.34366
123.66920,0.33955
123.42812,0.33886
123.18705,0.34043
122.94598,0.34212
122.70491,0.34267
122.46384,0.34209
122.22277,0.34151
121.98170,0.34273
121.74063,0.34662
121.49956,0.35138
121.25849,0.35424
121.01742,0.35545
120.77635,0.35880
120.53528,0.36740
120.29421,0.37996
120.05314,0.39246
119.81207,0.40374
119.57100,0.41766
119.32993,0.43807
119.08885,0.46366
118.84778,0.48998
118.60671,0.51507
118.36564,0.54034
118.12457,0.56638
117.88350,0.59121
117.64243,0.61249
117.40136,0.62929
117.16029,0.64162
116.91922,0.64985
116.67815,0.65439
116.43708,0.65519
116.19601,0.65169
115.95494,0.64269
115.71387,0.62678
115.47280,0.60531
115.23173,0.58444
114.99066,0.56998
114.74958,0.56042
114.50851,0.54978
114.26744,0.53708
114.02637,0.52716
113.78530,0.52264
113.54423,0.52149
113.30316,0.52155
113.06209,0.52248
112.82102,0.52386
112.57995,0.52575
112.33888,0.52929
112.09781,0.53450
111.85674,0.54138
111.61567,0.55272
111.37460,0.56993
111.13353,0.58672
110.89246,0.59384
110.65139,0.59063
110.41031,0.58392
110.16924,0.57624
109.92817,0.56466
109.68710,0.54966
109.44603,0.53560
109.20496,0.52335
108.96389,0.50892
108.72282,0.48935
108.48175,0.46678
108.24068,0.44637
107.99961,0.43114
107.75854,0.41905
107.51747,0.40597
107.27640,0.39056
107.03533,0.37475
106.79426,0.36065
106.55319,0.34925
106.31212,0.34031
106.07104,0.33249
105.82997,0.32453
105.58890,0.31603
105.34783,0.30679
105.10676,0.29676
104.86569,0.28684
104.62462,0.27844
104.38355,0.27170
104.14248,0.26537
103.90141,0.25829
103.66034,0.25065
103.41927,0.24361
103.17820,0.23794
102.93713,0.23318
102.69606,0.22862
102.45499,0.22453
102.21392,0.22196
101.97285,0.22124
101.73177,0.22103
101.49070,0.21926
101.24963,0.21564
101.00856,0.21244
100.76749,0.21183
100.52642,0.21308
100.28535,0.21329
100.04428,0.21018
99.80321,0.20388
99.56214,0.19651
99.32107,0.19052
99.08000,0.18718
98.83893,0.18649
98.59786,0.18818
98.35679,0.19149
98.11572,0.19440
97.87465,0.19482
97.63358,0.19284
97.39250,0.19082
97.15143,0.19121
96.91036,0.19434
96.66929,0.19885
96.42822,0.20443
96.18715,0.21236
95.94608,0.22249
95.70501,0.23222
95.46394,0.23988
95.22287,0.24671
94.98180,0.25412
94.74073,0.26131
94.49966,0.26632
94.25859,0.26818
94.01752,0.26773
93.77645,0.26698
93.53538,0.26741
93.29431,0.26909
93.05323,0.27090
92.81216,0.27117
92.57109,0.26896
92.33002,0.26608
92.08895,0.26660
91.84788,0.27243
91.60681,0.28107
91.36574,0.28960
91.12467,0.29936
90.88360,0.31460
90.64253,0.33705
90.40146,0.36409
90.16039,0.39306
89.91932,0.42549
89.67825,0.46532
89.43718,0.51125
89.19611,0.55220
88.95504,0.57527
88.71396,0.57957
88.47289,0.57508
88.23182,0.56720
87.99075,0.55038
87.74968,0.51803
87.50861,0.47398
87.26754,0.42905
87.02647,0.39029
86.78540,0.35851
86.54433,0.33219
86.30326,0.30982
86.06219,0.28966
85.82112,0.27025
85.58005,0.25173
85.33898,0.23504
85.09791,0.22008
84.85684,0.20591
84.61577,0.19204
84.37469,0.17864
84.13362,0.16639
83.89255,0.15689
83.65148,0.15195
83.41041,0.15102
83.16934,0.15061
82.92827,0.14762
82.68720,0.14267
82.44613,0.13866
82.20506,0.13686
81.96399,0.13652
81.72292,0.13701
81.48185,0.13762
81.24078,0.13660
80.99971,0.13292
80.75864,0.12812
80.51757,0.12420
80.27650,0.12127
80.03542,0.11855
79.79435,0.11628
79.55328,0.11515
79.31221,0.11533
79.07114,0.11684
78.83007,0.11923
78.58900,0.12057
78.34793,0.11879
78.10686,0.11444
77.86579,0.11009
77.62472,0.10710
77.38365,0.10488
77.14258,0.10292
76.90151,0.10170
76.66044,0.10167
76.41937,0.10226
76.17830,0.10198
75.93723,0.10000
75.69615,0.09748
75.45508,0.09626
75.21401,0.09653
74.97294,0.09698
74.73187,0.09683
74.49080,0.09624
74.24973,0.09559
74.00866,0.09550
73.76759,0.09650
73.52652,0.09767
73.28545,0.09709
73.04438,0.09462
72.80331,0.09266
72.56224,0.09349
72.32117,0.09714
72.08010,0.10176
71.83903,0.10535
71.59796,0.10713
71.35688,0.10834
71.11581,0.11113
70.87474,0.11637
70.63367,0.12316
70.39260,0.13086
70.15153,0.13985
69.91046,0.15018
69.66939,0.16124
69.42832,0.17217
69.18725,0.18091
68.94618,0.18384
68.70511,0.17832
68.46404,0.16556
68.22297,0.14981
67.98190,0.13549
67.74083,0.12510
67.49976,0.11877
67.25869,0.11491
67.01761,0.11113
66.77654,0.10567
66.53547,0.09882
66.29440,0.09267
66.05333,0.08926
65.81226,0.08927
65.57119,0.09188
65.33012,0.09565
65.08905,0.09979
64.84798,0.10430
64.60691,0.10897
64.36584,0.11380
64.12477,0.11907
63.88370,0.12333
63.64263,0.12360
63.40156,0.11869
63.16049,0.11029
62.91942,0.10085
62.67834,0.09237
62.43727,0.08655
62.19620,0.08432
61.95513,0.08542
61.71406,0.08873
61.47299,0.09271
61.23192,0.09567
60.99085,0.09659
60.74978,0.09554
60.50871,0.09359
60.26764,0.09201
60.02657,0.09101
59.78550,0.08964
59.54443,0.08734
59.30336,0.08420
59.06229,0.08001
58.82122,0.07502
58.58015,0.07089
58.33907,0.06907
58.09800,0.06902
57.85693,0.06919
57.61586,0.06941
57.37479,0.07132
57.13372,0.07550
56.89265,0.07911
56.65158,0.07880
56.41051,0.07557
56.16944,0.07360
55.92837,0.07463
55.68730,0.07670
55.44623,0.07743
55.20516,0.07585
54.96409,0.07189
54.72302,0.06721
54.48195,0.06506
54.24088,0.06739
53.99980,0.07286
53.75873,0.07842
53.51766,0.08191
53.27659,0.08297
53.03552,0.08226
52.79445,0.07925
52.55338,0.07226
52.31231,0.06306
52.07124,0.05835
51.83017,0.06339
51.58910,0.07532
51.34803,0.08453
51.10696,0.08354
50.86589,0.07383
50.62482,0.06277
50.38375,0.05594
50.14268,0.05372
49.90161,0.05343
49.66053,0.05281
49.41946,0.05146
49.17839,0.05044
48.93732,0.05063
48.69625,0.05099
48.45518,0.04949
48.21411,0.04666
47.97304,0.04693
47.73197,0.05336
47.49090,0.06209
47.24983,0.06596
47.00876,0.06319
46.76769,0.05885
46.52662,0.05783
46.28555,0.05963
46.04448,0.06039
45.80341,0.05810
45.56234,0.05508
45.32126,0.05450
45.08019,0.05519
44.83912,0.05284
44.59805,0.04731
44.35698,0.04410
44.11591,0.04646
43.87484,0.05011
43.63377,0.04911
43.39270,0.04480
43.15163,0.04443
42.91056,0.05133
42.66949,0.06022
42.42842,0.06456
42.18735,0.06372
41.94628,0.06121
41.70521,0.05986
41.46414,0.06007
41.22307,0.06106
40.98199,0.06228
40.74092,0.06362
40.49985,0.06269
40.25878,0.05288
40.01771,0.03300
39.77664,0.01757
39.53557,0.02349
39.29450,0.04635
39.05343,0.06607
38.81236,0.07615
38.57129,0.08668
38.33022,0.09903
38.08915,0.10017
37.84808,0.08536
37.60701,0.06723
37.36594,0.05842
37.12487,0.05993
36.88380,0.06592
36.64272,0.07039
36.40165,0.07159
36.16058,0.07368
35.91951,0.08106
35.67844,0.09083
35.43737,0.09679
35.19630,0.09820
34.95523,0.09622
34.71416,0.09233
34.47309,0.08832
34.23202,0.08597
33.99095,0.08826
33.74988,0.09478
33.50881,0.10369
33.26774,0.11702
33.02667,0.13635
32.78560,0.15536
32.54453,0.15979
32.30345,0.14520
32.06238,0.12970
31.82131,0.13766
31.58024,0.16807
31.33917,0.19013
31.09810,0.18327
30.85703,0.16014
30.61596,0.13549
30.37489,0.10512
30.13382,0.06428
29.89275,0.02495
29.65168,0.01455
29.41061,0.04639
29.16954,0.09604
28.92847,0.13216
28.68740,0.14935
28.44633,0.16564
28.20526,0.20297
27.96418,0.25553
27.72311,0.28968
27.48204,0.28603
27.24097,0.25642
26.99990,0.22288
26.75883,0.20340
26.51776,0.21192
26.27669,0.25163
26.03562,0.30199
25.79455,0.33391
25.55348,0.34988
25.31241,0.37023
25.07134,0.37864
24.83027,0.35204
24.58920,0.32612
24.34813,0.34098
24.10706,0.37458
23.86599,0.38069
23.62491,0.36710
23.38384,0.36602
23.14277,0.36969
22.90170,0.38761
22.66063,0.41046
22.41956,0.39929
22.17849,0.35024
21.93742,0.31310
21.69635,0.33485
21.45528,0.40574
21.21421,0.45999
20.97314,0.43670
20.73207,0.35780
20.49100,0.26154
20.24993,0.15916
20.00886,0.10183
19.76779,0.14824
19.52672,0.24630
19.28564,0.38595
19.04457,0.61449
18.80350,0.87350
18.56243,0.87697
18.32136,0.81354
18.08029,0.81785
17.83922,0.85577
17.59815,0.89387
17.35708,0.70300
17.11601,0.54392
16.87494,0.55362
16.63387,0.53250
16.39280,0.45424
16.15173,0.44224
15.91066,0.48940
15.66959,0.58794
15.42852,0.72739
15.18745,0.71417
14.94637,0.55723
14.70530,0.46237
14.46423,0.47676
14.22316,0.61872
13.98209,0.78351
13.74102,0.80437
13.49995,0.67301
13.25888,0.56446
13.01781,0.56255
12.77674,0.62546
12.53567,0.65626
12.29460,0.62207
12.05353,0.56165
11.81246,0.54608
11.57139,0.68242
11.33032,0.86287
11.08925,0.80578
10.84818,0.76950
10.60710,0.61763
10.36603,0.55291
10.12496,0.63283
9.88389,0.83840
9.64282,0.91543
9.40175,0.88690
9.16068,0.88734
8.91961,0.89549
8.67854,0.85332
8.43747,0.71028
8.19640,0.59902
7.95533,0.56702
7.71426,0.57979
7.47319,0.58508
7.23212,0.57061
6.99105,0.60467
6.74998,0.79880
6.50891,1.04714
6.26783,0.97435
6.02676,0.81595
5.78569,0.83281
5.54462,0.84901
5.30355,0.65541
5.06248,0.48902
4.82141,0.43396
4.58034,0.45927
4.33927,0.52026
4.09820,0.48556
3.85713,0.40550
3.61606,0.41092
3.37499,0.58134
3.13392,0.88492
2.89285,1.20968
2.65178,1.23191
2.41071,1.03579
2.16964,0.83906
1.92856,0.69017
1.68749,0.64003
1.44642,0.69450
1.20535,0.82388
0.96428,0.88089
0.72321,0.77513
0.48214,0.55544
0.24107,0.38961
-0.00000,0.33774
