399.69498,1.49980
399.45391,1.50932
399.21284,1.50852
398.97177,1.48966
398.73070,1.46393
398.48963,1.45151
398.24856,1.45778
398.00749,1.47150
397.76642,1.48181
397.52535,1.48960
397.28428,1.50046
397.04321,1.51614
396.80214,1.53537
396.56107,1.55403
396.32000,1.56123
396.07892,1.54798
395.83785,1.52295
395.59678,1.50450
395.35571,1.50119
395.11464,1.50480
394.87357,1.50214
394.63250,1.49309
394.39143,1.48852
394.15036,1.49512
393.90929,1.50872
393.66822,1.51662
393.42715,1.51031
393.18608,1.50050
392.94501,1.50647
392.70394,1.52978
392.46287,1.55006
392.22180,1.54946
391.98073,1.53497
391.73965,1.52735
391.49858,1.53589
391.25751,1.55313
391.01644,1.56780
390.77537,1.57775
390.53430,1.58665
390.29323,1.58825
390.05216,1.56687
389.81109,1.52388
389.57002,1.48445
389.32895,1.46973
389.08788,1.47910
388.84681,1.49945
388.60574,1.52055
388.36467,1.53303
388.12360,1.52925
387.88253,1.51460
387.64146,1.50665
387.40038,1.51503
387.15931,1.52374
386.91824,1.50825
386.67717,1.46951
386.43610,1.42940
386.19503,1.40879
385.95396,1.41360
385.71289,1.42894
385.47182,1.43396
385.23075,1.42291
384.98968,1.40048
384.74861,1.37072
384.50754,1.34010
384.26647,1.31967
384.02540,1.31876
383.78433,1.33667
383.54326,1.36187
383.30219,1.37837
383.06111,1.37445
382.82004,1.35294
382.57897,1.33134
382.33790,1.32558
382.09683,1.33502
381.85576,1.34278
381.61469,1.33339
381.37362,1.31209
381.13255,1.29933
380.89148,1.30510
380.65041,1.31585
380.40934,1.30778
380.16827,1.27579
379.92720,1.23937
379.68613,1.21886
379.44506,1.22086
379.20399,1.24020
378.96292,1.26312
378.72184,1.27546
378.48077,1.27653
378.23970,1.27963
377.99863,1.29444
377.75756,1.31355
377.51649,1.32435
377.27542,1.33139
377.03435,1.34537
376.79328,1.35985
376.55221,1.36279
376.31114,1.35885
376.07007,1.36290
375.82900,1.37815
375.58793,1.39090
375.34686,1.38809
375.10579,1.37457
374.86472,1.36496
374.62365,1.36593
374.38257,1.37454
374.14150,1.38428
373.90043,1.39234
373.65936,1.39714
373.41829,1.39521
373.17722,1.38837
372.93615,1.38115
372.69508,1.37909
372.45401,1.38379
372.21294,1.38945
371.97187,1.38963
371.73080,1.38230
371.48973,1.36651
371.24866,1.34364
371.00759,1.32310
370.76652,1.31807
370.52545,1.32968
370.28437,1.34069
370.04330,1.33385
369.80223,1.31169
369.56116,1.28701
369.32009,1.26540
369.07902,1.24695
368.83795,1.23445
368.59688,1.23105
368.35581,1.23393
368.11474,1.23685
367.87367,1.23758
367.63260,1.23768
367.39153,1.23624
367.15046,1.23082
366.90939,1.22307
366.66832,1.21709
366.42725,1.21391
366.18618,1.21163
365.94510,1.20858
365.70403,1.20444
365.46296,1.20031
365.22189,1.19705
364.98082,1.19224
364.73975,1.18303
364.49868,1.17258
364.25761,1.16909
364.01654,1.17718
363.77547,1.19211
363.53440,1.20292
363.29333,1.20097
363.05226,1.18765
362.81119,1.17293
362.57012,1.16467
362.32905,1.16161
362.08798,1.15891
361.84691,1.15678
361.60583,1.15870
361.36476,1.16330
361.12369,1.16363
360.88262,1.15574
360.64155,1.14425
360.40048,1.13619
360.15941,1.13376
359.91834,1.13595
359.67727,1.14190
359.43620,1.15035
359.19513,1.15808
358.95406,1.16132
358.71299,1.15893
358.47192,1.15385
358.23085,1.15156
357.98978,1.15525
357.74871,1.16221
357.50764,1.16735
357.26656,1.16952
357.02549,1.17127
356.78442,1.17305
356.54335,1.17077
356.30228,1.16094
356.06121,1.14700
355.82014,1.13687
355.57907,1.13401
355.33800,1.13471
355.09693,1.13608
354.85586,1.14188
354.61479,1.15464
354.37372,1.16594
354.13265,1.16493
353.89158,1.15483
353.65051,1.14828
353.40944,1.15050
353.16837,1.15475
352.92729,1.15290
352.68622,1.14527
352.44515,1.13793
352.20408,1.13511
351.96301,1.13741
351.72194,1.14283
351.48087,1.14770
351.23980,1.15004
350.99873,1.15133
350.75766,1.15434
350.51659,1.15916
350.27552,1.16248
350.03445,1.16420
349.79338,1.16952
349.55231,1.17969
349.31124,1.18778
349.07017,1.18824
348.82910,1.18383
348.58802,1.17963
348.34695,1.17792
348.10588,1.18028
347.86481,1.18740
347.62374,1.19548
347.38267,1.19886
347.14160,1.19777
346.90053,1.19910
346.65946,1.20711
346.41839,1.21526
346.17732,1.21199
345.93625,1.19751
345.69518,1.18579
345.45411,1.18805
345.21304,1.20336
344.97197,1.22303
344.73090,1.23866
344.48983,1.24664
344.24875,1.24867
344.00768,1.24874
343.76661,1.24775
343.52554,1.24313
343.28447,1.23724
343.04340,1.23895
342.80233,1.25232
342.56126,1.27014
342.32019,1.28248
342.07912,1.28741
341.83805,1.28913
341.59698,1.29010
341.35591,1.29008
341.11484,1.29068
340.87377,1.29610
340.63270,1.30721
340.39163,1.31946
340.15056,1.32868
339.90948,1.33475
339.66841,1.33923
339.42734,1.34367
339.18627,1.35025
338.94520,1.36014
338.70413,1.37060
338.46306,1.37593
338.22199,1.37299
337.98092,1.36451
337.73985,1.35593
337.49878,1.35187
337.25771,1.35712
337.01664,1.37405
336.77557,1.39654
336.53450,1.41251
336.29343,1.41755
336.05236,1.41804
335.81129,1.41874
335.57021,1.41602
335.32914,1.40397
335.08807,1.38646
334.84700,1.37489
334.60593,1.37515
334.36486,1.37890
334.12379,1.37452
333.88272,1.36602
333.64165,1.36459
333.40058,1.36657
333.15951,1.35821
332.91844,1.33831
332.67737,1.32133
332.43630,1.32035
332.19523,1.33499
331.95416,1.35075
331.71309,1.35040
331.47202,1.33306
331.23094,1.31277
330.98987,1.29859
330.74880,1.28952
330.50773,1.28466
330.26666,1.28729
330.02559,1.29968
329.78452,1.31899
329.54345,1.33669
329.30238,1.33783
329.06131,1.31477
328.82024,1.28039
328.57917,1.25102
328.33810,1.23491
328.09703,1.23337
327.85596,1.24169
327.61489,1.25167
327.37382,1.25503
327.13275,1.25031
326.89167,1.24395
326.65060,1.24325
326.40953,1.25135
326.16846,1.26767
325.92739,1.28697
325.68632,1.30249
325.44525,1.31201
325.20418,1.31454
324.96311,1.30777
324.72204,1.29468
324.48097,1.28384
324.23990,1.28131
323.99883,1.28659
323.75776,1.29514
323.51669,1.30298
323.27562,1.31039
323.03455,1.31903
322.79348,1.32480
322.55240,1.32817
322.31133,1.33891
322.07026,1.35721
321.82919,1.36883
321.58812,1.36311
321.34705,1.34810
321.10598,1.33923
320.86491,1.34018
320.62384,1.34081
320.38277,1.33412
320.14170,1.32601
319.90063,1.32313
319.65956,1.32514
319.41849,1.32900
319.17742,1.33172
318.93635,1.33624
318.69528,1.35164
318.45421,1.37334
318.21313,1.38202
317.97206,1.36836
317.73099,1.34677
317.48992,1.33395
317.24885,1.33324
317.00778,1.34078
316.76671,1.35070
316.52564,1.35834
316.28457,1.36587
316.04350,1.37649
315.80243,1.38334
315.56136,1.37647
315.32029,1.36131
315.07922,1.35673
314.83815,1.37266
314.59708,1.39746
314.35601,1.41070
314.11494,1.40933
313.87386,1.40736
313.63279,1.41070
313.39172,1.41573
313.15065,1.42078
312.90958,1.42241
312.66851,1.41562
312.42744,1.40510
312.18637,1.40150
311.94530,1.40369
311.70423,1.40205
311.46316,1.39109
311.22209,1.37468
310.98102,1.36551
310.73995,1.37461
310.49888,1.40024
310.25781,1.43017
310.01674,1.45149
309.77567,1.45787
309.53459,1.45263
309.29352,1.44360
309.05245,1.43805
308.81138,1.44212
308.57031,1.45254
308.32924,1.45642
308.08817,1.44914
307.84710,1.43993
307.60603,1.44043
307.36496,1.45730
307.12389,1.48286
306.88282,1.49591
306.64175,1.48431
306.40068,1.45899
306.15961,1.43847
305.91854,1.42821
305.67747,1.42168
305.43640,1.41701
305.19532,1.41787
304.95425,1.42101
304.71318,1.41938
304.47211,1.41293
304.23104,1.40376
303.98997,1.38865
303.74890,1.36758
303.50783,1.34979
303.26676,1.34425
303.02569,1.34939
302.78462,1.35521
302.54355,1.35351
302.30248,1.34439
302.06141,1.33566
301.82034,1.33277
301.57927,1.33233
301.33820,1.32683
301.09713,1.31270
300.85605,1.29390
300.61498,1.27705
300.37391,1.26402
300.13284,1.25114
299.89177,1.23736
299.65070,1.22903
299.40963,1.23075
299.16856,1.23885
298.92749,1.24575
298.68642,1.24496
298.44535,1.23488
298.20428,1.21997
297.96321,1.20758
297.72214,1.20240
297.48107,1.20397
297.24000,1.20796
296.99893,1.20830
296.75786,1.20173
296.51678,1.19275
296.27571,1.18831
296.03464,1.18712
295.79357,1.18186
295.55250,1.17217
295.31143,1.16631
295.07036,1.16767
294.82929,1.16957
294.58822,1.16644
294.34715,1.16080
294.10608,1.15575
293.86501,1.15060
293.62394,1.14619
293.38287,1.14557
293.14180,1.14761
292.90073,1.14597
292.65966,1.13691
292.41859,1.12535
292.17751,1.11921
291.93644,1.11958
291.69537,1.11977
291.45430,1.11358
291.21323,1.10163
290.97216,1.08916
290.73109,1.08116
290.49002,1.07971
290.24895,1.08358
290.00788,1.08955
289.76681,1.09431
289.52574,1.09562
289.28467,1.09264
289.04360,1.08687
288.80253,1.08215
288.56146,1.08111
288.32039,1.08207
288.07932,1.08055
287.83824,1.07419
287.59717,1.06593
287.35610,1.06086
287.11503,1.06001
286.87396,1.05936
286.63289,1.05525
286.39182,1.04929
286.15075,1.04696
285.90968,1.05152
285.66861,1.06019
285.42754,1.06622
285.18647,1.06563
284.94540,1.06116
284.70433,1.05814
284.46326,1.05833
284.22219,1.05948
283.98112,1.05906
283.74005,1.05690
283.49897,1.05519
283.25790,1.05634
283.01683,1.05972
282.77576,1.06068
282.53469,1.05566
282.29362,1.04761
282.05255,1.04259
281.81148,1.04275
281.57041,1.04517
281.32934,1.04627
281.08827,1.04552
280.84720,1.04470
280.60613,1.04430
280.36506,1.04217
280.12399,1.03699
279.88292,1.03101
279.64185,1.02760
279.40078,1.02783
279.15970,1.03028
278.91863,1.03306
278.67756,1.03594
278.43649,1.04002
278.19542,1.04532
277.95435,1.04970
277.71328,1.05099
277.47221,1.04958
277.23114,1.04796
276.99007,1.04786
276.74900,1.04871
276.50793,1.04910
276.26686,1.04897
276.02579,1.04935
275.78472,1.05077
275.54365,1.05316
275.30258,1.05638
275.06151,1.06040
274.82043,1.06535
274.57936,1.07019
274.33829,1.07214
274.09722,1.07020
273.85615,1.06786
273.61508,1.06882
273.37401,1.07293
273.13294,1.07814
272.89187,1.08273
272.65080,1.08503
272.40973,1.08515
272.16866,1.08622
271.92759,1.09020
271.68652,1.09468
271.44545,1.09627
271.20438,1.09558
270.96331,1.09628
270.72224,1.10029
270.48116,1.10511
270.24009,1.10624
269.99902,1.10292
269.75795,1.09939
269.51688,1.10050
269.27581,1.10879
269.03474,1.12329
268.79367,1.13821
268.55260,1.14646
268.31153,1.14728
268.07046,1.14665
267.82939,1.15002
267.58832,1.15757
267.34725,1.16501
267.10618,1.16860
266.86511,1.17064
266.62404,1.17634
266.38297,1.18525
266.14189,1.19166
265.90082,1.19359
265.65975,1.19650
265.41868,1.20651
265.17761,1.22233
264.93654,1.23660
264.69547,1.24553
264.45440,1.25342
264.21333,1.26534
263.97226,1.28056
263.73119,1.29585
263.49012,1.30999
263.24905,1.32279
263.00798,1.33401
262.76691,1.34475
262.52584,1.35817
262.28477,1.37611
262.04370,1.39821
261.80262,1.42305
261.56155,1.44493
261.32048,1.45739
261.07941,1.46261
260.83834,1.47248
260.59727,1.49826
260.35620,1.54007
260.11513,1.58466
259.87406,1.61377
259.63299,1.62417
259.39192,1.63625
259.15085,1.67551
258.90978,1.74826
258.66871,1.82674
258.42764,1.86349
258.18657,1.85957
257.94550,1.85829
257.70443,1.87203
257.46335,1.88236
257.22228,1.87459
256.98121,1.85145
256.74014,1.82384
256.49907,1.79822
256.25800,1.77414
256.01693,1.75556
255.77586,1.74879
255.53479,1.74544
255.29372,1.73296
255.05265,1.71527
254.81158,1.70290
254.57051,1.69627
254.32944,1.69278
254.08837,1.69637
253.84730,1.70648
253.60623,1.71592
253.36516,1.71976
253.12408,1.71489
252.88301,1.69778
252.64194,1.66961
252.40087,1.63930
252.15980,1.61503
251.91873,1.60184
251.67766,1.60295
251.43659,1.61311
251.19552,1.62084
250.95445,1.62104
250.71338,1.62003
250.47231,1.62758
250.23124,1.64196
249.99017,1.65181
249.74910,1.64691
249.50803,1.62238
249.26696,1.58547
249.02589,1.55367
248.78481,1.53959
248.54374,1.54232
248.30267,1.55233
248.06160,1.56226
247.82053,1.57228
247.57946,1.58580
247.33839,1.60070
247.09732,1.60904
246.85625,1.60990
246.61518,1.60765
246.37411,1.60149
246.13304,1.59184
245.89197,1.58741
245.65090,1.59624
245.40983,1.61916
245.16876,1.65168
244.92769,1.69014
244.68661,1.73698
244.44554,1.78703
244.20447,1.82171
243.96340,1.84060
243.72233,1.86142
243.48126,1.88303
243.24019,1.89623
242.99912,1.89849
242.75805,1.90127
242.51698,1.91335
242.27591,1.85752
242.03484,1.72210
241.79377,1.59917
241.55270,1.50666
241.31163,1.43585
241.07056,1.37340
240.82949,1.31178
240.58842,1.25468
240.34734,1.20914
240.10627,1.17518
239.86520,1.14502
239.62413,1.11288
239.38306,1.08070
239.14199,1.05262
238.90092,1.02878
238.65985,1.00602
238.41878,0.98172
238.17771,0.95625
237.93664,0.93223
237.69557,0.91212
237.45450,0.89662
237.21343,0.88477
236.97236,0.87414
236.73129,0.86240
236.49022,0.84994
236.24915,0.83945
236.00807,0.83235
235.76700,0.82701
235.52593,0.82115
235.28486,0.81460
235.04379,0.80883
234.80272,0.80425
234.56165,0.79912
234.32058,0.79222
234.07951,0.78479
233.83844,0.77835
233.59737,0.77290
233.35630,0.76854
233.11523,0.76618
232.87416,0.76605
232.63309,0.76745
232.39202,0.77010
232.15095,0.77380
231.90988,0.77729
231.66880,0.77864
231.42773,0.77686
231.18666,0.77238
230.94559,0.76639
230.70452,0.76075
230.46345,0.75805
230.22238,0.75958
229.98131,0.76325
229.74024,0.76573
229.49917,0.76622
229.25810,0.76542
229.01703,0.76291
228.77596,0.75893
228.53489,0.75555
228.29382,0.75413
228.05275,0.75430
227.81168,0.75525
227.57061,0.75619
227.32953,0.75641
227.08846,0.75627
226.84739,0.75688
226.60632,0.75807
226.36525,0.75868
226.12418,0.75822
225.88311,0.75628
225.64204,0.75166
225.40097,0.74486
225.15990,0.73972
224.91883,0.73989
224.67776,0.74523
224.43669,0.75335
224.19562,0.76248
223.95455,0.77103
223.71348,0.77733
223.47241,0.78133
223.23134,0.78355
222.99026,0.78313
222.74919,0.78052
222.50812,0.78003
222.26705,0.78572
222.02598,0.79670
221.78491,0.80905
221.54384,0.82068
221.30277,0.83203
221.06170,0.84302
220.82063,0.85235
220.57956,0.85934
220.33849,0.86496
220.09742,0.87034
219.85635,0.87612
219.61528,0.88338
219.37421,0.89279
219.13314,0.90269
218.89207,0.91125
218.65099,0.92078
218.40992,0.93575
218.16885,0.95622
217.92778,0.97660
217.68671,0.99172
217.44564,1.00176
217.20457,1.01028
216.96350,1.02061
216.72243,1.03432
216.48136,1.05094
216.24029,1.06857
215.99922,1.08599
215.75815,1.10444
215.51708,1.12527
215.27601,1.14711
215.03494,1.16710
214.79387,1.18218
214.55280,1.18989
214.31172,1.19124
214.07065,1.19145
213.82958,1.19689
213.58851,1.21139
213.34744,1.23333
213.10637,1.25626
212.86530,1.27372
212.62423,1.28361
212.38316,1.28817
212.14209,1.29125
211.90102,1.29628
211.65995,1.30304
211.41888,1.30735
211.17781,1.30753
210.93674,1.30788
210.69567,1.31268
210.45460,1.31828
210.21353,1.31620
209.97245,1.30484
209.73138,1.29381
209.49031,1.29463
209.24924,1.31035
209.00817,1.33052
208.76710,1.33422
208.52603,1.30957
208.28496,1.27137
208.04389,1.24531
207.80282,1.24340
207.56175,1.25844
207.32068,1.27177
207.07961,1.26800
206.83854,1.24855
206.59747,1.22491
206.35640,1.20666
206.11533,1.20143
205.87426,1.20978
205.63318,1.21670
205.39211,1.20221
205.15104,1.16673
204.90997,1.12871
204.66890,1.10238
204.42783,1.09001
204.18676,1.08416
203.94569,1.07529
203.70462,1.06074
203.46355,1.04491
203.22248,1.03139
202.98141,1.01858
202.74034,1.00263
202.49927,0.98287
202.25820,0.96325
202.01713,0.94824
201.77606,0.93808
201.53499,0.92780
201.29391,0.91233
201.05284,0.89346
200.81177,0.87703
200.57070,0.86402
200.32963,0.84993
200.08856,0.83277
199.84749,0.81606
199.60642,0.80329
199.36535,0.79404
199.12428,0.78562
198.88321,0.77609
198.64214,0.76526
198.40107,0.75390
198.16000,0.74266
197.91893,0.73180
197.67786,0.72110
197.43679,0.70991
197.19572,0.69868
196.95464,0.68933
196.71357,0.68269
196.47250,0.67703
196.23143,0.67054
195.99036,0.66337
195.74929,0.65598
195.50822,0.64819
195.26715,0.64036
195.02608,0.63306
194.78501,0.62595
194.54394,0.61861
194.30287,0.61172
194.06180,0.60621
193.82073,0.60199
193.57966,0.59802
193.33859,0.59315
193.09752,0.58718
192.85645,0.58147
192.61537,0.57788
192.37430,0.57659
192.13323,0.57532
191.89216,0.57161
191.65109,0.56588
191.41002,0.56144
191.16895,0.56109
190.92788,0.56373
190.68681,0.56481
190.44574,0.56123
190.20467,0.55524
189.96360,0.55136
189.72253,0.55035
189.48146,0.54835
189.24039,0.54271
188.99932,0.53618
188.75825,0.53283
188.51718,0.53242
188.27610,0.53162
188.03503,0.52987
187.79396,0.53007
187.55289,0.53331
187.31182,0.53689
187.07075,0.53796
186.82968,0.53650
186.58861,0.53384
186.34754,0.53096
186.10647,0.52902
185.86540,0.52944
185.62433,0.53241
185.38326,0.53644
185.14219,0.53978
184.90112,0.54134
184.66005,0.54068
184.41898,0.53893
184.17791,0.53878
183.93683,0.54145
183.69576,0.54528
183.45469,0.54866
183.21362,0.55147
182.97255,0.55237
182.73148,0.54970
182.49041,0.54576
182.24934,0.54536
182.00827,0.54995
181.76720,0.55647
181.52613,0.56221
181.28506,0.56742
181.04399,0.57237
180.80292,0.57519
180.56185,0.57483
180.32078,0.57333
180.07971,0.57328
179.83864,0.57583
179.59756,0.58138
179.35649,0.58884
179.11542,0.59562
178.87435,0.60103
178.63328,0.60712
178.39221,0.61470
178.15114,0.62286
177.91007,0.63242
177.66900,0.64506
177.42793,0.66034
177.18686,0.67667
176.94579,0.69298
176.70472,0.70866
176.46365,0.72394
176.22258,0.73961
175.98151,0.75545
175.74044,0.77120
175.49937,0.78810
175.25829,0.80735
175.01722,0.82910
174.77615,0.85321
174.53508,0.87842
174.29401,0.90326
174.05294,0.92970
173.81187,0.96030
173.57080,0.99042
173.32973,1.01056
173.08866,1.01768
172.84759,1.01705
172.60652,1.01544
172.36545,1.01705
172.12438,1.02246
171.88331,1.02861
171.64224,1.03162
171.40117,1.02993
171.16010,1.02478
170.91902,1.01983
170.67795,1.01892
170.43688,1.02122
170.19581,1.02057
169.95474,1.01248
169.71367,0.99838
169.47260,0.98243
169.23153,0.96965
168.99046,0.96469
168.74939,0.96783
168.50832,0.97343
168.26725,0.97567
168.02618,0.97320
167.78511,0.96672
167.54404,0.95711
167.30297,0.94691
167.06190,0.93941
166.82083,0.93664
166.57975,0.93956
166.33868,0.94839
166.09761,0.96198
165.85654,0.97692
165.61547,0.98839
165.37440,0.99430
165.13333,0.99836
164.89226,1.00548
164.65119,1.01585
164.41012,1.02641
164.16905,1.03615
163.92798,1.04779
163.68691,1.06478
163.44584,1.08617
163.20477,1.10463
162.96370,1.11322
162.72263,1.11433
162.48156,1.11644
162.24048,1.12385
161.99941,1.13393
161.75834,1.14165
161.51727,1.14531
161.27620,1.14709
161.03513,1.14939
160.79406,1.15324
160.55299,1.15733
160.31192,1.15795
160.07085,1.15305
159.82978,1.14532
159.58871,1.13894
159.34764,1.13421
159.10657,1.12752
158.86550,1.11674
158.62443,1.10422
158.38336,1.09421
158.14229,1.08891
157.90121,1.08740
157.66014,1.08648
157.41907,1.08266
157.17800,1.07425
156.93693,1.06266
156.69586,1.05153
156.45479,1.04612
156.21372,1.05072
155.97265,1.06183
155.73158,1.06584
155.49051,1.05219
155.24944,1.02589
155.00837,0.99984
154.76730,0.98324
154.52623,0.97641
154.28516,0.96988
154.04409,0.95264
153.80302,0.92532
153.56194,0.89809
153.32087,0.87866
153.07980,0.86637
152.83873,0.85456
152.59766,0.83773
152.35659,0.81612
152.11552,0.79368
151.87445,0.77329
151.63338,0.75485
151.39231,0.73695
151.15124,0.71906
150.91017,0.70151
150.66910,0.68439
150.42803,0.66780
150.18696,0.65206
149.94589,0.63695
149.70482,0.62209
149.46375,0.60832
149.22267,0.59725
148.98160,0.58943
148.74053,0.58338
148.49946,0.57691
148.25839,0.56958
148.01732,0.56334
147.77625,0.56002
147.53518,0.55880
147.29411,0.55736
147.05304,0.55482
146.81197,0.55279
146.57090,0.55350
146.32983,0.55723
146.08876,0.56193
145.84769,0.56554
145.60662,0.56840
145.36555,0.57263
145.12448,0.57951
144.88340,0.58772
144.64233,0.59416
144.40126,0.59718
144.16019,0.59865
143.91912,0.60152
143.67805,0.60565
143.43698,0.60745
143.19591,0.60370
142.95484,0.59488
142.71377,0.58405
142.47270,0.57313
142.23163,0.56220
141.99056,0.55160
141.74949,0.54253
141.50842,0.53551
141.26735,0.52995
141.02628,0.52486
140.78521,0.51981
140.54413,0.51570
140.30306,0.51370
140.06199,0.51380
139.82092,0.51541
139.57985,0.51864
139.33878,0.52369
139.09771,0.52981
138.85664,0.53586
138.61557,0.54153
138.37450,0.54766
138.13343,0.55596
137.89236,0.56792
137.65129,0.58350
137.41022,0.60120
137.16915,0.61968
136.92808,0.63905
136.68701,0.66030
136.44594,0.68393
136.20486,0.70943
135.96379,0.73625
135.72272,0.76461
135.48165,0.79578
135.24058,0.83098
134.99951,0.86851
134.75844,0.90383
134.51737,0.93502
134.27630,0.96525
134.03523,0.99690
133.79416,1.02903
133.55309,1.06236
133.31202,1.09909
133.07095,1.13578
132.82988,1.16382
132.58881,1.17762
132.34774,1.17926
132.10667,1.17701
131.86559,1.17744
131.62452,1.17833
131.38345,1.17279
131.14238,1.15945
130.90131,1.14081
130.66024,1.11730
130.41917,1.08847
130.17810,1.05309
129.93703,1.00982
129.69596,0.96160
129.45489,0.91556
129.21382,0.87549
128.97275,0.83806
128.73168,0.79832
128.49061,0.75644
128.24954,0.71734
128.00847,0.68525
127.76740,0.66004
127.52632,0.63823
127.28525,0.61667
127.04418,0.59440
126.80311,0.57239
126.56204,0.55267
126.32097,0.53687
126.07990,0.52451
125.83883,0.51332
125.59776,0.50177
125.35669,0.49051
125.11562,0.48069
124.87455,0.47186
124.63348,0.46239
124.39241,0.45170
124.15134,0.44122
123.91027,0.43280
123.66920,0.42681
123.42812,0.42239
123.18705,0.41897
122.94598,0.41665
122.70491,0.41548
122.46384,0.41534
122.22277,0.41616
121.98170,0.41783
121.74063,0.42039
121.49956,0.42435
121.25849,0.43022
121.01742,0.43827
120.77635,0.44860
120.53528,0.46065
120.29421,0.47282
120.05314,0.48408
119.81207,0.49563
119.57100,0.50962
119.32993,0.52717
119.08885,0.54852
118.84778,0.57368
118.60671,0.60230
118.36564,0.63441
118.12457,0.67048
117.88350,0.70910
117.64243,0.74569
117.40136,0.77587
117.16029,0.79792
116.91922,0.81073
116.67815,0.81290
116.43708,0.80526
116.19601,0.79068
115.95494,0.77158
115.71387,0.75087
115.47280,0.73199
115.23173,0.71565
114.99066,0.70005
114.74958,0.68574
114.50851,0.67609
114.26744,0.67269
114.02637,0.67314
113.78530,0.67308
113.54423,0.66922
113.30316,0.66125
113.06209,0.65187
112.82102,0.64544
112.57995,0.64607
112.33888,0.65523
112.09781,0.67046
111.85674,0.68753
111.61567,0.70372
111.37460,0.71690
111.13353,0.72408
110.89246,0.72499
110.65139,0.72361
110.41031,0.72320
110.16924,0.72402
109.92817,0.72634
109.68710,0.72959
109.44603,0.72795
109.20496,0.71291
108.96389,0.68307
108.72282,0.64705
108.48175,0.61389
108.24068,0.58563
107.99961,0.56043
107.75854,0.53844
107.51747,0.52182
107.27640,0.50987
107.03533,0.49720
106.79426,0.47933
106.55319,0.45779
106.31212,0.43695
106.07104,0.41954
105.82997,0.40735
105.58890,0.40151
105.34783,0.39927
105.10676,0.39342
104.86569,0.37878
104.62462,0.35872
104.38355,0.34153
104.14248,0.33302
103.90141,0.33319
103.66034,0.33597
103.41927,0.33321
103.17820,0.32216
102.93713,0.30836
102.69606,0.29922
102.45499,0.29724
102.21392,0.29936
101.97285,0.30022
101.73177,0.29620
101.49070,0.28775
101.24963,0.27905
101.00856,0.27521
100.76749,0.27755
100.52642,0.28126
100.28535,0.27964
100.04428,0.27189
99.80321,0.26406
99.56214,0.26128
99.32107,0.26219
99.08000,0.26140
98.83893,0.25626
98.59786,0.24981
98.35679,0.24682
98.11572,0.24867
97.87465,0.25264
97.63358,0.25509
97.39250,0.25488
97.15143,0.25443
96.91036,0.25797
96.66929,0.26686
96.42822,0.27631
96.18715,0.28065
95.94608,0.28260
95.70501,0.29024
95.46394,0.30505
95.22287,0.31824
94.98180,0.32141
94.74073,0.31986
94.49966,0.32454
94.25859,0.33467
94.01752,0.33802
93.77645,0.33063
93.53538,0.32520
93.29431,0.33089
93.05323,0.34130
92.81216,0.34616
92.57109,0.34631
92.33002,0.34741
92.08895,0.34912
91.84788,0.34985
91.60681,0.35306
91.36574,0.36155
91.12467,0.37354
90.88360,0.38991
90.64253,0.41531
90.40146,0.44869
90.16039,0.48475
89.91932,0.52584
89.67825,0.57646
89.43718,0.63056
89.19611,0.68089
88.95504,0.72570
88.71396,0.75229
88.47289,0.74783
88.23182,0.72328
87.99075,0.69161
87.74968,0.65084
87.50861,0.59920
87.26754,0.54384
87.02647,0.49269
86.78540,0.44990
86.54433,0.41613
86.30326,0.38866
86.06219,0.36408
85.82112,0.34111
85.58005,0.31957
85.33898,0.29902
85.09791,0.27957
84.85684,0.26211
84.61577,0.24765
84.37469,0.23664
84.13362,0.22823
83.89255,0.22067
83.65148,0.21349
83.41041,0.20800
83.16934,0.20483
82.92827,0.20236
82.68720,0.19876
82.44613,0.19407
82.20506,0.18971
81.96399,0.18675
81.72292,0.18511
81.48185,0.18420
81.24078,0.18351
80.99971,0.18291
80.75864,0.18235
80.51757,0.18186
80.27650,0.18182
80.03542,0.18248
79.79435,0.18273
79.55328,0.18080
79.31221,0.17645
79.07114,0.17131
78.83007,0.16727
78.58900,0.16533
78.34793,0.16500
78.10686,0.16471
77.86579,0.16351
77.62472,0.16153
77.38365,0.15887
77.14258,0.15596
76.90151,0.15468
76.66044,0.15664
76.41937,0.16069
76.17830,0.16359
75.93723,0.16289
75.69615,0.15853
75.45508,0.15205
75.21401,0.14533
74.97294,0.14046
74.73187,0.13977
74.49080,0.14419
74.24973,0.15164
74.00866,0.15856
73.76759,0.16318
73.52652,0.16573
73.28545,0.16649
73.04438,0.16578
72.80331,0.16504
72.56224,0.16541
72.32117,0.16548
72.08010,0.16292
71.83903,0.15844
71.59796,0.15535
71.35688,0.15560
71.11581,0.15876
70.87474,0.16467
70.63367,0.17448
70.39260,0.18896
70.15153,0.20732
69.91046,0.22816
69.66939,0.25024
69.42832,0.27080
69.18725,0.28370
68.94618,0.28278
68.70511,0.26805
68.46404,0.24535
68.22297,0.22046
67.98190,0.19651
67.74083,0.17543
67.49976,0.15933
67.25869,0.14972
67.01761,0.14545
66.77654,0.14247
66.53547,0.13772
66.29440,0.13241
66.05333,0.12954
65.81226,0.12987
65.57119,0.13230
65.33012,0.13677
65.08905,0.14464
64.84798,0.15682
64.60691,0.17291
64.36584,0.19106
64.12477,0.20731
63.88370,0.21633
63.64263,0.21518
63.40156,0.20625
63.16049,0.19470
62.91942,0.18376
62.67834,0.17318
62.43727,0.16102
62.19620,0.14628
61.95513,0.13086
61.71406,0.11820
61.47299,0.10971
61.23192,0.10408
60.99085,0.10026
60.74978,0.09942
60.50871,0.10352
60.26764,0.11319
60.02657,0.12684
59.78550,0.14133
59.54443,0.15445
59.30336,0.16651
59.06229,0.17737
58.82122,0.18207
58.58015,0.17425
58.33907,0.15512
58.09800,0.13294
57.85693,0.11433
57.61586,0.10222
57.37479,0.09957
57.13372,0.10942
56.89265,0.13122
56.65158,0.15949
56.41051,0.18407
56.16944,0.19223
55.92837,0.18005
55.68730,0.15697
55.44623,0.13405
55.20516,0.11784
54.96409,0.11115
54.72302,0.11512
54.48195,0.13123
54.24088,0.15979
53.99980,0.19060
53.75873,0.19661
53.51766,0.16573
53.27659,0.12322
53.03552,0.09367
52.79445,0.08805
52.55338,0.11073
52.31231,0.15729
52.07124,0.19681
51.83017,0.18083
51.58910,0.12989
51.34803,0.09555
51.10696,0.09559
50.86589,0.12576
50.62482,0.16524
50.38375,0.17430
50.14268,0.14061
49.90161,0.10300
49.66053,0.09072
49.41946,0.10857
49.17839,0.13969
48.93732,0.14357
48.69625,0.11047
48.45518,0.08743
48.21411,0.10506
47.97304,0.14707
47.73197,0.15042
47.49090,0.10692
47.24983,0.08642
47.00876,0.11747
46.76769,0.15242
46.52662,0.12046
46.28555,0.07536
46.04448,0.07369
45.80341,0.10254
45.56234,0.11668
45.32126,0.10887
45.08019,0.10405
44.83912,0.10477
44.59805,0.10900
44.35698,0.12006
44.11591,0.12316
43.87484,0.10974
43.63377,0.10019
43.39270,0.10551
43.15163,0.10940
42.91056,0.10387
42.66949,0.10230
42.42842,0.10733
42.18735,0.11155
41.94628,0.11658
41.70521,0.12260
41.46414,0.12289
41.22307,0.11785
40.98199,0.11733
40.74092,0.12769
40.49985,0.14115
40.25878,0.14009
40.01771,0.12005
39.77664,0.09900
39.53557,0.09105
39.29450,0.09166
39.05343,0.09166
38.81236,0.09163
38.57129,0.09741
38.33022,0.10937
38.08915,0.12067
37.84808,0.12518
37.60701,0.12322
37.36594,0.11775
37.12487,0.11123
36.88380,0.10503
36.64272,0.09913
36.40165,0.09756
36.16058,0.10989
35.91951,0.13654
35.67844,0.15595
35.43737,0.14097
35.19630,0.09750
34.95523,0.06751
34.71416,0.07945
34.47309,0.11522
34.23202,0.13578
33.99095,0.12780
33.74988,0.10302
33.50881,0.07149
33.26774,0.04450
33.02667,0.03781
32.78560,0.05464
32.54453,0.08114
32.30345,0.10096
32.06238,0.10495
31.82131,0.09267
31.58024,0.06860
31.33917,0.03710
31.09810,0.00743
30.85703,-0.01196
30.61596,-0.02674
30.37489,-0.04045
30.13382,-0.04484
29.89275,-0.03629
29.65168,-0.02583
29.41061,-0.02850
29.16954,-0.04925
28.92847,-0.08274
28.68740,-0.11395
28.44633,-0.12771
28.20526,-0.13467
27.96418,-0.15574
27.72311,-0.19326
27.48204,-0.24731
27.24097,-0.32013
26.99990,-0.39549
26.75883,-0.43792
26.51776,-0.43493
26.27669,-0.40840
26.03562,-0.37512
25.79455,-0.34346
25.55348,-0.32238
25.31241,-0.32174
25.07134,-0.33200
24.83027,-0.31986
24.58920,-0.28946
24.34813,-0.28311
24.10706,-0.30718
23.86599,-0.33717
23.62491,-0.34439
23.38384,-0.32847
23.14277,-0.31600
22.90170,-0.31721
22.66063,-0.31970
22.41956,-0.31957
22.17849,-0.32170
21.93742,-0.32723
21.69635,-0.34922
21.45528,-0.39296
21.21421,-0.41161
20.97314,-0.37839
20.73207,-0.33957
20.49100,-0.28702
20.24993,-0.24538
20.00886,-0.25197
19.76779,-0.31270
19.52672,-0.39230
19.28564,-0.43363
19.04457,-0.41333
18.80350,-0.36626
18.56243,-0.32818
18.32136,-0.30574
18.08029,-0.29936
17.83922,-0.31965
17.59815,-0.35814
17.35708,-0.36966
17.11601,-0.33976
16.87494,-0.30757
16.63387,-0.29965
16.39280,-0.30499
16.15173,-0.29951
15.91066,-0.29327
15.66959,-0.32372
15.42852,-0.39078
15.18745,-0.44140
14.94637,-0.44063
14.70530,-0.41370
14.46423,-0.41163
14.22316,-0.43602
13.98209,-0.42700
13.74102,-0.38442
13.49995,-0.36473
13.25888,-0.38792
13.01781,-0.42351
12.77674,-0.43412
12.53567,-0.43363
12.29460,-0.42838
12.05353,-0.40351
11.81246,-0.37674
11.57139,-0.36919
11.33032,-0.38223
11.08925,-0.39618
10.84818,-0.39305
10.60710,-0.37767
10.36603,-0.36554
10.12496,-0.36177
9.88389,-0.36050
9.64282,-0.35493
9.40175,-0.34659
9.16068,-0.34229
8.91961,-0.35026
8.67854,-0.36890
8.43747,-0.38620
8.19640,-0.39385
7.95533,-0.39215
7.71426,-0.40134
7.47319,-0.43010
7.23212,-0.44595
6.99105,-0.42671
6.74998,-0.41130
6.50891,-0.42042
6.26783,-0.44731
6.02676,-0.47042
5.78569,-0.46524
5.54462,-0.44552
5.30355,-0.41935
5.06248,-0.40153
4.82141,-0.40504
4.58034,-0.43346
4.33927,-0.48363
4.09820,-0.51367
3.85713,-0.49381
3.61606,-0.45201
3.37499,-0.41815
3.13392,-0.40853
2.89285,-0.42719
2.65178,-0.44257
2.41071,-0.42251
2.16964,-0.40316
1.92856,-0.39873
1.68749,-0.39938
1.44642,-0.41691
1.20535,-0.46002
0.96428,-0.46926
0.72321,-0.44166
0.48214,-0.44388
0.24107,-0.42409
-0.00000,-0.01156
