399.69498,1.71613
399.45391,1.72168
399.21284,1.78023
398.97177,1.85871
398.73070,1.90992
398.48963,1.93928
398.24856,1.94341
398.00749,1.91429
397.76642,1.90293
397.52535,1.93489
397.28428,1.97485
397.04321,1.97508
396.80214,1.91871
396.56107,1.85679
396.32000,1.83740
396.07892,1.85668
395.83785,1.86645
395.59678,1.83060
395.35571,1.77287
395.11464,1.72622
394.87357,1.69691
394.63250,1.69573
394.39143,1.73670
394.15036,1.80271
393.90929,1.84563
393.66822,1.85065
393.42715,1.83744
393.18608,1.81402
392.94501,1.80632
392.70394,1.86210
392.46287,1.99595
392.22180,2.10400
391.98073,2.08436
391.73965,2.07463
391.49858,2.11614
391.25751,2.19349
391.01644,2.22187
390.77537,2.25740
390.53430,2.15526
390.29323,2.09317
390.05216,2.15729
389.81109,2.22770
389.57002,2.05682
389.32895,1.92575
389.08788,1.89144
388.84681,1.89298
388.60574,1.90839
388.36467,1.96781
388.12360,2.11161
387.88253,2.12244
387.64146,2.07621
387.40038,2.03399
387.15931,2.01437
386.91824,2.02160
386.67717,2.10019
386.43610,2.19441
386.19503,2.16349
385.95396,2.26670
385.71289,2.15081
385.47182,1.98042
385.23075,1.89016
384.98968,1.91806
384.74861,1.99353
384.50754,2.00634
384.26647,1.94913
384.02540,1.96620
383.78433,2.09884
383.54326,2.26417
383.30219,2.52990
383.06111,2.46772
382.82004,2.12490
382.57897,1.93306
382.33790,1.88786
382.09683,1.98465
381.85576,2.16734
381.61469,2.10224
381.37362,1.96880
381.13255,1.92488
380.89148,1.83665
380.65041,1.68809
380.40934,1.64413
380.16827,1.70726
379.92720,1.83047
379.68613,2.01234
379.44506,2.04511
379.20399,2.01623
378.96292,1.90502
378.72184,1.84227
378.48077,1.81056
378.23970,1.79339
377.99863,1.80886
377.75756,1.87216
377.51649,1.90022
377.27542,1.83338
377.03435,1.85592
376.79328,2.08622
376.55221,2.08770
376.31114,1.98488
376.07007,2.01604
375.82900,2.10771
375.58793,2.05722
375.34686,1.89464
375.10579,1.79336
374.86472,1.79873
374.62365,1.85251
374.38257,1.85392
374.14150,1.79993
373.90043,1.76590
373.65936,1.77254
373.41829,1.79318
373.17722,1.83976
372.93615,1.93887
372.69508,1.98042
372.45401,1.93226
372.21294,1.95256
371.97187,1.81099
371.73080,1.69375
371.48973,1.64646
371.24866,1.65197
371.00759,1.68553
370.76652,1.70733
370.52545,1.68503
370.28437,1.62514
370.04330,1.56503
369.80223,1.52384
369.56116,1.49739
369.32009,1.47704
369.07902,1.46544
368.83795,1.47085
368.59688,1.48126
368.35581,1.47334
368.11474,1.44531
367.87367,1.42078
367.63260,1.42404
367.39153,1.45328
367.15046,1.47962
366.90939,1.47851
366.66832,1.45011
366.42725,1.41502
366.18618,1.38905
365.94510,1.38064
365.70403,1.39708
365.46296,1.42562
365.22189,1.43821
364.98082,1.42711
364.73975,1.40420
364.49868,1.38174
364.25761,1.37214
364.01654,1.38390
363.77547,1.40917
363.53440,1.42562
363.29333,1.42229
363.05226,1.41225
362.81119,1.40530
362.57012,1.39556
362.32905,1.38050
362.08798,1.36935
361.84691,1.37571
361.60583,1.40669
361.36476,1.45110
361.12369,1.48530
360.88262,1.49087
360.64155,1.46102
360.40048,1.40942
360.15941,1.36044
359.91834,1.33337
359.67727,1.33401
359.43620,1.35343
359.19513,1.37370
358.95406,1.37843
358.71299,1.36387
358.47192,1.33988
358.23085,1.32209
357.98978,1.32015
357.74871,1.33243
357.50764,1.35167
357.26656,1.37127
357.02549,1.38429
356.78442,1.38428
356.54335,1.37605
356.30228,1.37482
356.06121,1.38440
355.82014,1.39050
355.57907,1.38799
355.33800,1.38834
355.09693,1.39400
354.85586,1.39449
354.61479,1.38519
354.37372,1.37476
354.13265,1.36774
353.89158,1.36424
353.65051,1.37377
353.40944,1.40148
353.16837,1.43297
352.92729,1.44338
352.68622,1.41817
352.44515,1.37377
352.20408,1.34050
351.96301,1.33306
351.72194,1.34176
351.48087,1.34491
351.23980,1.33404
350.99873,1.32134
350.75766,1.32253
350.51659,1.34141
350.27552,1.36960
350.03445,1.39470
349.79338,1.40931
349.55231,1.41318
349.31124,1.41222
349.07017,1.40953
348.82910,1.40508
348.58802,1.40852
348.34695,1.42723
348.10588,1.44641
347.86481,1.43937
347.62374,1.40300
347.38267,1.36288
347.14160,1.34208
346.90053,1.34582
346.65946,1.36657
346.41839,1.39180
346.17732,1.41566
345.93625,1.44271
345.69518,1.47023
345.45411,1.48321
345.21304,1.47719
344.97197,1.46454
344.73090,1.45981
344.48983,1.46771
344.24875,1.48777
344.00768,1.50937
343.76661,1.51338
343.52554,1.49780
343.28447,1.47610
343.04340,1.46272
342.80233,1.46876
342.56126,1.49564
342.32019,1.53393
342.07912,1.57634
341.83805,1.62071
341.59698,1.65541
341.35591,1.66237
341.11484,1.65646
340.87377,1.66774
340.63270,1.68285
340.39163,1.66579
340.15056,1.62757
339.90948,1.60342
339.66841,1.60674
339.42734,1.64628
339.18627,1.71596
338.94520,1.76876
338.70413,1.78274
338.46306,1.76699
338.22199,1.76878
337.98092,1.82192
337.73985,1.86992
337.49878,1.84116
337.25771,1.77534
337.01664,1.74699
336.77557,1.76372
336.53450,1.81170
336.29343,1.88455
336.05236,1.94066
335.81129,1.94631
335.57021,1.92154
335.32914,1.91040
335.08807,1.94679
334.84700,1.96878
334.60593,1.92474
334.36486,1.87374
334.12379,1.81900
333.88272,1.78872
333.64165,1.80961
333.40058,1.86486
333.15951,1.91918
332.91844,1.92381
332.67737,1.84561
332.43630,1.74818
332.19523,1.68860
331.95416,1.68055
331.71309,1.70776
331.47202,1.72818
331.23094,1.73087
330.98987,1.74346
330.74880,1.77882
330.50773,1.81439
330.26666,1.81446
330.02559,1.76658
329.78452,1.67961
329.54345,1.60145
329.30238,1.58401
329.06131,1.63668
328.82024,1.70490
328.57917,1.72438
328.33810,1.72315
328.09703,1.74555
327.85596,1.75664
327.61489,1.71059
327.37382,1.63883
327.13275,1.59164
326.89167,1.57812
326.65060,1.57067
326.40953,1.56684
326.16846,1.60572
325.92739,1.68208
325.68632,1.73137
325.44525,1.72460
325.20418,1.71178
324.96311,1.74323
324.72204,1.82114
324.48097,1.89474
324.23990,1.93359
323.99883,1.93086
323.75776,1.89489
323.51669,1.85766
323.27562,1.86259
323.03455,1.93693
322.79348,2.04538
322.55240,2.04795
322.31133,1.91417
322.07026,1.82761
321.82919,1.82553
321.58812,1.85715
321.34705,1.89026
321.10598,1.96408
320.86491,2.13037
320.62384,2.34172
320.38277,2.41622
320.14170,2.40148
319.90063,2.28097
319.65956,2.14590
319.41849,2.14091
319.17742,2.25994
318.93635,2.22433
318.69528,2.07602
318.45421,2.01564
318.21313,1.98174
317.97206,1.95242
317.73099,1.84979
317.48992,1.81240
317.24885,1.88995
317.00778,2.03178
316.76671,2.06534
316.52564,1.99622
316.28457,2.06648
316.04350,2.26802
315.80243,2.30695
315.56136,2.42003
315.32029,2.19545
315.07922,1.89228
314.83815,1.77962
314.59708,1.81920
314.35601,1.92757
314.11494,1.98019
313.87386,1.92863
313.63279,1.86672
313.39172,1.86678
313.15065,1.90085
312.90958,1.92231
312.66851,2.00380
312.42744,2.13546
312.18637,2.20599
311.94530,2.27771
311.70423,2.57454
311.46316,2.70342
311.22209,2.34520
310.98102,2.20151
310.73995,2.19772
310.49888,2.23763
310.25781,2.26606
310.01674,2.11698
309.77567,1.96653
309.53459,1.90332
309.29352,1.83457
309.05245,1.76963
308.81138,1.76396
308.57031,1.85358
308.32924,1.94742
308.08817,1.93066
307.84710,1.84896
307.60603,1.79940
307.36496,1.80863
307.12389,1.86560
306.88282,1.93984
306.64175,1.95824
306.40068,1.89178
306.15961,1.81373
305.91854,1.79426
305.67747,1.81101
305.43640,1.79975
305.19532,1.73300
304.95425,1.63043
304.71318,1.55159
304.47211,1.52765
304.23104,1.52792
303.98997,1.50820
303.74890,1.47015
303.50783,1.43411
303.26676,1.41314
303.02569,1.41295
302.78462,1.42852
302.54355,1.43740
302.30248,1.42302
302.06141,1.39759
301.82034,1.37999
301.57927,1.37349
301.33820,1.36881
301.09713,1.36208
300.85605,1.35666
300.61498,1.34832
300.37391,1.32401
300.13284,1.28481
299.89177,1.25309
299.65070,1.24638
299.40963,1.25778
299.16856,1.26623
298.92749,1.26045
298.68642,1.24738
298.44535,1.23692
298.20428,1.23099
297.96321,1.22844
297.72214,1.22722
297.48107,1.22213
297.24000,1.21000
296.99893,1.19654
296.75786,1.19034
296.51678,1.19250
296.27571,1.19692
296.03464,1.19740
295.79357,1.19059
295.55250,1.17671
295.31143,1.16100
295.07036,1.14947
294.82929,1.14389
294.58822,1.14157
294.34715,1.13812
294.10608,1.13366
293.86501,1.13304
293.62394,1.13498
293.38287,1.13053
293.14180,1.11699
292.90073,1.10211
292.65966,1.09381
292.41859,1.09204
292.17751,1.09059
291.93644,1.08588
291.69537,1.07852
291.45430,1.07106
291.21323,1.06810
290.97216,1.07238
290.73109,1.08119
290.49002,1.08895
290.24895,1.09262
290.00788,1.09213
289.76681,1.08639
289.52574,1.07408
289.28467,1.05786
289.04360,1.04339
288.80253,1.03542
288.56146,1.03517
288.32039,1.03889
288.07932,1.04042
287.83824,1.03786
287.59717,1.03492
287.35610,1.03344
287.11503,1.03027
286.87396,1.02387
286.63289,1.01848
286.39182,1.01786
286.15075,1.01951
285.90968,1.01907
285.66861,1.01715
285.42754,1.01708
285.18647,1.01822
284.94540,1.01867
284.70433,1.02190
284.46326,1.03133
284.22219,1.04024
283.98112,1.03688
283.74005,1.02156
283.49897,1.00775
283.25790,1.00546
283.01683,1.01188
282.77576,1.01690
282.53469,1.01431
282.29362,1.00675
282.05255,1.00014
281.81148,0.99786
281.57041,1.00043
281.32934,1.00591
281.08827,1.01119
280.84720,1.01486
280.60613,1.01712
280.36506,1.01694
280.12399,1.01304
279.88292,1.00803
279.64185,1.00664
279.40078,1.00927
279.15970,1.01214
278.91863,1.01390
278.67756,1.01593
278.43649,1.01561
278.19542,1.00806
277.95435,0.99598
277.71328,0.98863
277.47221,0.98986
277.23114,0.99369
276.99007,0.99300
276.74900,0.98902
276.50793,0.98982
276.26686,1.00089
276.02579,1.01900
275.78472,1.03519
275.54365,1.04179
275.30258,1.03748
275.06151,1.02798
274.82043,1.01972
274.57936,1.01393
274.33829,1.00937
274.09722,1.00611
273.85615,1.00347
273.61508,0.99967
273.37401,0.99630
273.13294,0.99777
272.89187,1.00526
272.65080,1.01518
272.40973,1.02305
272.16866,1.02739
271.92759,1.03001
271.68652,1.03219
271.44545,1.03279
271.20438,1.03293
270.96331,1.03765
270.72224,1.04785
270.48116,1.05569
270.24009,1.05349
269.99902,1.04352
269.75795,1.03463
269.51688,1.03329
269.27581,1.04040
269.03474,1.05321
268.79367,1.06689
268.55260,1.07625
268.31153,1.07991
268.07046,1.08207
267.82939,1.08776
267.58832,1.09637
267.34725,1.10306
267.10618,1.10649
266.86511,1.10922
266.62404,1.11087
266.38297,1.10949
266.14189,1.10749
265.90082,1.10866
265.65975,1.11300
265.41868,1.11940
265.17761,1.12822
264.93654,1.14000
264.69547,1.15319
264.45440,1.16315
264.21333,1.16456
263.97226,1.15702
263.73119,1.14655
263.49012,1.14049
263.24905,1.14271
263.00798,1.15293
262.76691,1.16874
262.52584,1.18756
262.28477,1.20838
262.04370,1.23083
261.80262,1.25312
261.56155,1.27309
261.32048,1.29130
261.07941,1.30910
260.83834,1.32283
260.59727,1.32703
260.35620,1.32442
260.11513,1.32583
259.87406,1.33886
259.63299,1.36175
259.39192,1.38711
259.15085,1.40652
258.90978,1.41749
258.66871,1.42827
258.42764,1.44943
258.18657,1.48005
257.94550,1.50936
257.70443,1.53536
257.46335,1.56713
257.22228,1.60332
256.98121,1.63069
256.74014,1.65003
256.49907,1.67657
256.25800,1.71725
256.01693,1.76855
255.77586,1.82166
255.53479,1.88249
255.29372,1.97740
255.05265,2.10004
254.81158,2.16968
254.57051,2.12521
254.32944,2.05415
254.08837,2.07337
253.84730,2.19574
253.60623,2.30402
253.36516,2.29786
253.12408,2.21071
252.88301,2.17810
252.64194,2.27608
252.40087,2.37975
252.15980,2.30587
251.91873,2.23028
251.67766,2.21960
251.43659,2.22137
251.19552,2.25820
250.95445,2.38328
250.71338,2.57904
250.47231,2.68895
250.23124,2.78213
249.99017,2.68344
249.74910,2.51301
249.50803,2.30893
249.26696,2.22056
249.02589,2.18587
248.78481,2.15055
248.54374,2.15239
248.30267,2.17742
248.06160,2.21525
247.82053,2.27339
247.57946,2.28646
247.33839,2.27043
247.09732,2.29286
246.85625,2.34812
246.61518,2.41808
246.37411,2.48587
246.13304,2.42683
245.89197,2.24529
245.65090,2.14954
245.40983,2.14884
245.16876,2.17107
244.92769,2.11691
244.68661,1.97330
244.44554,1.84793
244.20447,1.76951
243.96340,1.69922
243.72233,1.62084
243.48126,1.55286
243.24019,1.50824
242.99912,1.47808
242.75805,1.44333
242.51698,1.39646
242.27591,1.34596
242.03484,1.30181
241.79377,1.26620
241.55270,1.23307
241.31163,1.19550
241.07056,1.15385
240.82949,1.11570
240.58842,1.08542
240.34734,1.05667
240.10627,1.02278
239.86520,0.98689
239.62413,0.95558
239.38306,0.92969
239.14199,0.90566
238.90092,0.88265
238.65985,0.86314
238.41878,0.84776
238.17771,0.83427
237.93664,0.82063
237.69557,0.80661
237.45450,0.79315
237.21343,0.78156
236.97236,0.77292
236.73129,0.76755
236.49022,0.76537
236.24915,0.76558
236.00807,0.76525
235.76700,0.76106
235.52593,0.75345
235.28486,0.74561
235.04379,0.73824
234.80272,0.72965
234.56165,0.72075
234.32058,0.71512
234.07951,0.71400
233.83844,0.71421
233.59737,0.71163
233.35630,0.70535
233.11523,0.69758
232.87416,0.69047
232.63309,0.68503
232.39202,0.68170
232.15095,0.68035
231.90988,0.67974
231.66880,0.67808
231.42773,0.67493
231.18666,0.67209
230.94559,0.67176
230.70452,0.67408
230.46345,0.67703
230.22238,0.67818
229.98131,0.67596
229.74024,0.67129
229.49917,0.66771
229.25810,0.66774
229.01703,0.66967
228.77596,0.66996
228.53489,0.66830
228.29382,0.66765
228.05275,0.66961
227.81168,0.67268
227.57061,0.67535
227.32953,0.67763
227.08846,0.67918
226.84739,0.67851
226.60632,0.67535
226.36525,0.67192
226.12418,0.67005
225.88311,0.66889
225.64204,0.66732
225.40097,0.66675
225.15990,0.66904
224.91883,0.67341
224.67776,0.67712
224.43669,0.67851
224.19562,0.67832
223.95455,0.67856
223.71348,0.68092
223.47241,0.68549
223.23134,0.69059
222.99026,0.69493
222.74919,0.69919
222.50812,0.70447
222.26705,0.71011
222.02598,0.71444
221.78491,0.71738
221.54384,0.72129
221.30277,0.72853
221.06170,0.73826
220.82063,0.74742
220.57956,0.75519
220.33849,0.76400
220.09742,0.77429
219.85635,0.78188
219.61528,0.78422
219.37421,0.78580
219.13314,0.79322
218.89207,0.80732
218.65099,0.82299
218.40992,0.83549
218.16885,0.84488
217.92778,0.85414
217.68671,0.86418
217.44564,0.87257
217.20457,0.87783
216.96350,0.88304
216.72243,0.89264
216.48136,0.90730
216.24029,0.92420
215.99922,0.94044
215.75815,0.95421
215.51708,0.96503
215.27601,0.97461
215.03494,0.98516
214.79387,0.99640
214.55280,1.00625
214.31172,1.01397
214.07065,1.02032
213.82958,1.02678
213.58851,1.03561
213.34744,1.04685
213.10637,1.05720
212.86530,1.06487
212.62423,1.07171
212.38316,1.07747
212.14209,1.07761
211.90102,1.07135
211.65995,1.06531
211.41888,1.06538
211.17781,1.07135
210.93674,1.08069
210.69567,1.09171
210.45460,1.10120
210.21353,1.10436
209.97245,1.10123
209.73138,1.09730
209.49031,1.09335
209.24924,1.08544
209.00817,1.07537
208.76710,1.06970
208.52603,1.07027
208.28496,1.07143
208.04389,1.06719
207.80282,1.05782
207.56175,1.04813
207.32068,1.04247
207.07961,1.04210
206.83854,1.04408
206.59747,1.04314
206.35640,1.03696
206.11533,1.02711
205.87426,1.01429
205.63318,0.99740
205.39211,0.97801
205.15104,0.96124
204.90997,0.95064
204.66890,0.94456
204.42783,0.93844
204.18676,0.92946
203.94569,0.91832
203.70462,0.90621
203.46355,0.89247
203.22248,0.87708
202.98141,0.86252
202.74034,0.85057
202.49927,0.83974
202.25820,0.82797
202.01713,0.81613
201.77606,0.80614
201.53499,0.79750
201.29391,0.78810
201.05284,0.77692
200.81177,0.76412
200.57070,0.74976
200.32963,0.73445
200.08856,0.72058
199.84749,0.71037
199.60642,0.70321
199.36535,0.69671
199.12428,0.68920
198.88321,0.68036
198.64214,0.67076
198.40107,0.66142
198.16000,0.65268
197.91893,0.64372
197.67786,0.63394
197.43679,0.62382
197.19572,0.61417
196.95464,0.60569
196.71357,0.59884
196.47250,0.59299
196.23143,0.58686
195.99036,0.58010
195.74929,0.57339
195.50822,0.56685
195.26715,0.55969
195.02608,0.55173
194.78501,0.54391
194.54394,0.53698
194.30287,0.53080
194.06180,0.52498
193.82073,0.51965
193.57966,0.51538
193.33859,0.51238
193.09752,0.50983
192.85645,0.50649
192.61537,0.50219
192.37430,0.49809
192.13323,0.49501
191.89216,0.49227
191.65109,0.48877
191.41002,0.48475
191.16895,0.48135
190.92788,0.47910
190.68681,0.47746
190.44574,0.47576
190.20467,0.47394
189.96360,0.47261
189.72253,0.47258
189.48146,0.47340
189.24039,0.47306
188.99932,0.47026
188.75825,0.46667
188.51718,0.46497
188.27610,0.46524
188.03503,0.46514
187.79396,0.46321
187.55289,0.46016
187.31182,0.45765
187.07075,0.45705
186.82968,0.45874
186.58861,0.46152
186.34754,0.46359
186.10647,0.46457
185.86540,0.46562
185.62433,0.46723
185.38326,0.46845
185.14219,0.46870
184.90112,0.46866
184.66005,0.46915
184.41898,0.47027
184.17791,0.47199
183.93683,0.47414
183.69576,0.47587
183.45469,0.47627
183.21362,0.47542
182.97255,0.47436
182.73148,0.47452
182.49041,0.47669
182.24934,0.48023
182.00827,0.48341
181.76720,0.48520
181.52613,0.48622
181.28506,0.48746
181.04399,0.48881
180.80292,0.49003
180.56185,0.49203
180.32078,0.49558
180.07971,0.49978
179.83864,0.50293
179.59756,0.50471
179.35649,0.50613
179.11542,0.50834
178.87435,0.51261
178.63328,0.51992
178.39221,0.52943
178.15114,0.53875
177.91007,0.54685
177.66900,0.55576
177.42793,0.56754
177.18686,0.58135
176.94579,0.59487
176.70472,0.60710
176.46365,0.61893
176.22258,0.63245
175.98151,0.64925
175.74044,0.66806
175.49937,0.68561
175.25829,0.70096
175.01722,0.71670
174.77615,0.73545
174.53508,0.75708
174.29401,0.77827
174.05294,0.79457
173.81187,0.80560
173.57080,0.81649
173.32973,0.83120
173.08866,0.84780
172.84759,0.86217
172.60652,0.87282
172.36545,0.88066
172.12438,0.88626
171.88331,0.88850
171.64224,0.88695
171.40117,0.88461
171.16010,0.88423
170.91902,0.88344
170.67795,0.87902
170.43688,0.87299
170.19581,0.86880
169.95474,0.86469
169.71367,0.85628
169.47260,0.84284
169.23153,0.82809
168.99046,0.81724
168.74939,0.81398
168.50832,0.81838
168.26725,0.82662
168.02618,0.83273
167.78511,0.83291
167.54404,0.82873
167.30297,0.82419
167.06190,0.82112
166.82083,0.81877
166.57975,0.81672
166.33868,0.81581
166.09761,0.81680
165.85654,0.82012
165.61547,0.82565
165.37440,0.83151
165.13333,0.83518
164.89226,0.83746
164.65119,0.84349
164.41012,0.85706
164.16905,0.87499
163.92798,0.89056
163.68691,0.90214
163.44584,0.91340
163.20477,0.92576
162.96370,0.93629
162.72263,0.94303
162.48156,0.94780
162.24048,0.95270
161.99941,0.95746
161.75834,0.96078
161.51727,0.96306
161.27620,0.96699
161.03513,0.97475
160.79406,0.98290
160.55299,0.98294
160.31192,0.97205
160.07085,0.95725
159.82978,0.94675
159.58871,0.94287
159.34764,0.94244
159.10657,0.94125
158.86550,0.93731
158.62443,0.93076
158.38336,0.92235
158.14229,0.91270
157.90121,0.90336
157.66014,0.89747
157.41907,0.89679
157.17800,0.89893
156.93693,0.89862
156.69586,0.89178
156.45479,0.87930
156.21372,0.86662
155.97265,0.85973
155.73158,0.86049
155.49051,0.86417
155.24944,0.86264
155.00837,0.85261
154.76730,0.83861
154.52623,0.82585
154.28516,0.81449
154.04409,0.80197
153.80302,0.78745
153.56194,0.77296
153.32087,0.76015
153.07980,0.74707
152.83873,0.73052
152.59766,0.71047
152.35659,0.68944
152.11552,0.66928
151.87445,0.65057
151.63338,0.63375
151.39231,0.61927
151.15124,0.60697
150.91017,0.59551
150.66910,0.58319
150.42803,0.56962
150.18696,0.55580
149.94589,0.54261
149.70482,0.53053
149.46375,0.52038
149.22267,0.51237
148.98160,0.50529
148.74053,0.49802
148.49946,0.49087
148.25839,0.48429
148.01732,0.47799
147.77625,0.47215
147.53518,0.46781
147.29411,0.46551
147.05304,0.46431
146.81197,0.46287
146.57090,0.46180
146.32983,0.46383
146.08876,0.47075
145.84769,0.48053
145.60662,0.48872
145.36555,0.49300
145.12448,0.49535
144.88340,0.49905
144.64233,0.50466
144.40126,0.50964
144.16019,0.51153
143.91912,0.51078
143.67805,0.50984
143.43698,0.50963
143.19591,0.50852
142.95484,0.50465
142.71377,0.49768
142.47270,0.48819
142.23163,0.47726
141.99056,0.46673
141.74949,0.45820
141.50842,0.45162
141.26735,0.44602
141.02628,0.44128
140.78521,0.43808
140.54413,0.43647
140.30306,0.43559
140.06199,0.43496
139.82092,0.43514
139.57985,0.43715
139.33878,0.44151
139.09771,0.44817
138.85664,0.45630
138.61557,0.46401
138.37450,0.47001
138.13343,0.47532
137.89236,0.48248
137.65129,0.49325
137.41022,0.50775
137.16915,0.52498
136.92808,0.54327
136.68701,0.56102
136.44594,0.57790
136.20486,0.59578
135.96379,0.61795
135.72272,0.64665
135.48165,0.68088
135.24058,0.71603
134.99951,0.74633
134.75844,0.76920
134.51737,0.78803
134.27630,0.80894
134.03523,0.83425
133.79416,0.86093
133.55309,0.88559
133.31202,0.90746
133.07095,0.92592
132.82988,0.93901
132.58881,0.94470
132.34774,0.94303
132.10667,0.93721
131.86559,0.93070
131.62452,0.92358
131.38345,0.91664
131.14238,0.91381
130.90131,0.91393
130.66024,0.90710
130.41917,0.88606
130.17810,0.85480
129.93703,0.82091
129.69596,0.78751
129.45489,0.75493
129.21382,0.72353
128.97275,0.69340
128.73168,0.66391
128.49061,0.63468
128.24954,0.60598
128.00847,0.57801
127.76740,0.55158
127.52632,0.52868
127.28525,0.51044
127.04418,0.49473
126.80311,0.47820
126.56204,0.46010
126.32097,0.44190
126.07990,0.42454
125.83883,0.40915
125.59776,0.39849
125.35669,0.39357
125.11562,0.39035
124.87455,0.38389
124.63348,0.37448
124.39241,0.36562
124.15134,0.35827
123.91027,0.35096
123.66920,0.34368
123.42812,0.33819
123.18705,0.33505
122.94598,0.33303
122.70491,0.33184
122.46384,0.33316
122.22277,0.33787
121.98170,0.34391
121.74063,0.34825
121.49956,0.35007
121.25849,0.35097
121.01742,0.35302
120.77635,0.35773
120.53528,0.36619
120.29421,0.37884
120.05314,0.39438
119.81207,0.40983
119.57100,0.42357
119.32993,0.43774
119.08885,0.45605
118.84778,0.47960
118.60671,0.50610
118.36564,0.53294
118.12457,0.55923
117.88350,0.58402
117.64243,0.60439
117.40136,0.61872
117.16029,0.63024
116.91922,0.64205
116.67815,0.65042
116.43708,0.64879
116.19601,0.63743
115.95494,0.62322
115.71387,0.61131
115.47280,0.60169
115.23173,0.59150
114.99066,0.57791
114.74958,0.56063
114.50851,0.54326
114.26744,0.53065
114.02637,0.52412
113.78530,0.52045
113.54423,0.51636
113.30316,0.51189
113.06209,0.50950
112.82102,0.51203
112.57995,0.52048
112.33888,0.53195
112.09781,0.54213
111.85674,0.55074
111.61567,0.56079
111.37460,0.57198
111.13353,0.57937
110.89246,0.57986
110.65139,0.57617
110.41031,0.57302
110.16924,0.57154
109.92817,0.56860
109.68710,0.56077
109.44603,0.54760
109.20496,0.53001
108.96389,0.50812
108.72282,0.48297
108.48175,0.45813
108.24068,0.43707
107.99961,0.42058
107.75854,0.40790
107.51747,0.39793
107.27640,0.38882
107.03533,0.37792
106.79426,0.36338
106.55319,0.34591
106.31212,0.32893
106.07104,0.31623
105.82997,0.30865
105.58890,0.30360
105.34783,0.29836
105.10676,0.29268
104.86569,0.28676
104.62462,0.27916
104.38355,0.26935
104.14248,0.25951
103.90141,0.25184
103.66034,0.24589
103.41927,0.24020
103.17820,0.23473
102.93713,0.23033
102.69606,0.22692
102.45499,0.22339
102.21392,0.21904
101.97285,0.21422
101.73177,0.20935
101.49070,0.20444
101.24963,0.20011
101.00856,0.19767
100.76749,0.19734
100.52642,0.19758
100.28535,0.19701
100.04428,0.19586
99.80321,0.19483
99.56214,0.19342
99.32107,0.19073
99.08000,0.18691
98.83893,0.18278
98.59786,0.17871
98.35679,0.17490
98.11572,0.17243
97.87465,0.17281
97.63358,0.17670
97.39250,0.18338
97.15143,0.19063
96.91036,0.19567
96.66929,0.19765
96.42822,0.19878
96.18715,0.20199
95.94608,0.20798
95.70501,0.21532
95.46394,0.22288
95.22287,0.23109
94.98180,0.24032
94.74073,0.24901
94.49966,0.25468
94.25859,0.25683
94.01752,0.25768
93.77645,0.25983
93.53538,0.26372
93.29431,0.26701
93.05323,0.26689
92.81216,0.26329
92.57109,0.25917
92.33002,0.25777
92.08895,0.26006
91.84788,0.26428
91.60681,0.26806
91.36574,0.27187
91.12467,0.27966
90.88360,0.29513
90.64253,0.31843
90.40146,0.34714
90.16039,0.37911
89.91932,0.41285
89.67825,0.44710
89.43718,0.48146
89.19611,0.51597
88.95504,0.54820
88.71396,0.57121
88.47289,0.57699
88.23182,0.56288
87.99075,0.53280
87.74968,0.49332
87.50861,0.45051
87.26754,0.40888
87.02647,0.37134
86.78540,0.33921
86.54433,0.31198
86.30326,0.28785
86.06219,0.26536
85.82112,0.24392
85.58005,0.22352
85.33898,0.20517
85.09791,0.19034
84.85684,0.17864
84.61577,0.16818
84.37469,0.15894
84.13362,0.15298
83.89255,0.15048
83.65148,0.14851
83.41041,0.14451
83.16934,0.13911
82.92827,0.13482
82.68720,0.13292
82.44613,0.13182
82.20506,0.12886
81.96399,0.12377
81.72292,0.11908
81.48185,0.11657
81.24078,0.11553
80.99971,0.11494
80.75864,0.11474
80.51757,0.11420
80.27650,0.11182
80.03542,0.10757
79.79435,0.10327
79.55328,0.10039
79.31221,0.09907
79.07114,0.09878
78.83007,0.09874
78.58900,0.09838
78.34793,0.09803
78.10686,0.09829
77.86579,0.09834
77.62472,0.09632
77.38365,0.09199
77.14258,0.08756
76.90151,0.08543
76.66044,0.08583
76.41937,0.08739
76.17830,0.08887
75.93723,0.08932
75.69615,0.08781
75.45508,0.08463
75.21401,0.08165
74.97294,0.08031
74.73187,0.08070
74.49080,0.08260
74.24973,0.08528
74.00866,0.08678
73.76759,0.08597
73.52652,0.08493
73.28545,0.08635
73.04438,0.08920
72.80331,0.08976
72.56224,0.08679
72.32117,0.08312
72.08010,0.08178
71.83903,0.08264
71.59796,0.08372
71.35688,0.08440
71.11581,0.08611
70.87474,0.09064
70.63367,0.09878
70.39260,0.10979
70.15153,0.12140
69.91046,0.13155
69.66939,0.14054
69.42832,0.15012
69.18725,0.15951
68.94618,0.16427
68.70511,0.16034
68.46404,0.14795
68.22297,0.13152
67.98190,0.11642
67.74083,0.10582
67.49976,0.09949
67.25869,0.09509
67.01761,0.09062
66.77654,0.08614
66.53547,0.08290
66.29440,0.08102
66.05333,0.07954
65.81226,0.07854
65.57119,0.07956
65.33012,0.08393
65.08905,0.09154
64.84798,0.10058
64.60691,0.10767
64.36584,0.11031
64.12477,0.10970
63.88370,0.10893
63.64263,0.10815
63.40156,0.10459
63.16049,0.09701
62.91942,0.08758
62.67834,0.07985
62.43727,0.07598
62.19620,0.07520
61.95513,0.07533
61.71406,0.07555
61.47299,0.07577
61.23192,0.07454
60.99085,0.07084
60.74978,0.06654
60.50871,0.06432
60.26764,0.06447
60.02657,0.06546
59.78550,0.06645
59.54443,0.06758
59.30336,0.06813
59.06229,0.06673
58.82122,0.06374
58.58015,0.06129
58.33907,0.06008
58.09800,0.05848
57.85693,0.05595
57.61586,0.05490
57.37479,0.05712
57.13372,0.06051
56.89265,0.06128
56.65158,0.05840
56.41051,0.05423
56.16944,0.05152
55.92837,0.05053
55.68730,0.04956
55.44623,0.04733
55.20516,0.04486
54.96409,0.04443
54.72302,0.04628
54.48195,0.04780
54.24088,0.04774
53.99980,0.04920
53.75873,0.05457
53.51766,0.06005
53.27659,0.05944
53.03552,0.05267
52.79445,0.04612
52.55338,0.04538
52.31231,0.05044
52.07124,0.05734
51.83017,0.06195
51.58910,0.06164
51.34803,0.05582
51.10696,0.04752
50.86589,0.04218
50.62482,0.04295
50.38375,0.04854
50.14268,0.05532
49.90161,0.05861
49.66053,0.05423
49.41946,0.04377
49.17839,0.03556
48.93732,0.03511
48.69625,0.03726
48.45518,0.03262
48.21411,0.02001
47.97304,0.00787
47.73197,0.00333
47.49090,0.00406
47.24983,0.00413
47.00876,0.00202
46.76769,-0.00104
46.52662,-0.00325
46.28555,-0.00139
46.04448,0.00601
45.80341,0.01515
45.56234,0.02108
45.32126,0.02335
45.08019,0.02406
44.83912,0.02375
44.59805,0.02162
44.35698,0.01737
44.11591,0.01202
43.87484,0.00869
43.63377,0.00926
43.39270,0.00940
43.15163,0.00341
42.91056,-0.00520
42.66949,-0.00704
42.42842,-0.00056
42.18735,0.00632
41.94628,0.00859
41.70521,0.00911
41.46414,0.00996
41.22307,0.00785
40.98199,0.00099
40.74092,-0.00534
40.49985,-0.00608
40.25878,-0.00391
40.01771,-0.00305
39.77664,-0.00112
39.53557,0.00531
39.29450,0.01297
39.05343,0.01768
38.81236,0.02166
38.57129,0.02879
38.33022,0.03504
38.08915,0.03094
37.84808,0.01757
37.60701,0.01213
37.36594,0.02713
37.12487,0.05183
36.88380,0.06325
36.64272,0.04782
36.40165,0.01422
36.16058,-0.01384
35.91951,-0.02034
35.67844,-0.00813
35.43737,0.01306
35.19630,0.03929
34.95523,0.06895
34.71416,0.09142
34.47309,0.09063
34.23202,0.06536
33.99095,0.03696
33.74988,0.03031
33.50881,0.04605
33.26774,0.06750
33.02667,0.09608
32.78560,0.14363
32.54453,0.19926
32.30345,0.23190
32.06238,0.22538
31.82131,0.19147
31.58024,0.14662
31.33917,0.10588
31.09810,0.08680
30.85703,0.09194
30.61596,0.09491
30.37489,0.07217
30.13382,0.03590
29.89275,0.01732
29.65168,0.03506
29.41061,0.07645
29.16954,0.10951
28.92847,0.11540
28.68740,0.10422
28.44633,0.10222
28.20526,0.12902
27.96418,0.17859
27.72311,0.22882
27.48204,0.25533
27.24097,0.24303
26.99990,0.20066
26.75883,0.15711
26.51776,0.14202
26.27669,0.16005
26.03562,0.19222
25.79455,0.21896
25.55348,0.22843
25.31241,0.21906
25.07134,0.20657
24.83027,0.21226
24.58920,0.23984
24.34813,0.27741
24.10706,0.32499
23.86599,0.38724
23.62491,0.44858
23.38384,0.49422
23.14277,0.52634
22.90170,0.54226
22.66063,0.51325
22.41956,0.41588
22.17849,0.30970
21.93742,0.24066
21.69635,0.22109
21.45528,0.25798
21.21421,0.34161
20.97314,0.44699
20.73207,0.54720
20.49100,0.62902
20.24993,0.69752
20.00886,0.75751
19.76779,0.74860
19.52672,0.69599
19.28564,0.68555
19.04457,0.70842
18.80350,0.69080
18.56243,0.61491
18.32136,0.55745
18.08029,0.57050
17.83922,0.64227
17.59815,0.74734
17.35708,0.84596
17.11601,0.80966
16.87494,0.80501
16.63387,0.82890
16.39280,0.85722
16.15173,0.92103
15.91066,0.86594
15.66959,0.78051
15.42852,0.78313
15.18745,0.92177
14.94637,0.84197
14.70530,0.64285
14.46423,0.60350
14.22316,0.63770
13.98209,0.63539
13.74102,0.72167
13.49995,0.88969
13.25888,0.99732
13.01781,0.97594
12.77674,0.92362
12.53567,0.86393
12.29460,0.71043
12.05353,0.57371
11.81246,0.52254
11.57139,0.53031
11.33032,0.58127
11.08925,0.69828
10.84818,0.87796
10.60710,0.90774
10.36603,0.81531
10.12496,0.83445
9.88389,0.83872
9.64282,0.82766
9.40175,0.84575
9.16068,0.76884
8.91961,0.74144
8.67854,0.73885
8.43747,0.69010
8.19640,0.64171
7.95533,0.59869
7.71426,0.55054
7.47319,0.53154
7.23212,0.58396
6.99105,0.72262
6.74998,0.83082
6.50891,0.89972
6.26783,1.07832
6.02676,0.99813
5.78569,0.76045
5.54462,0.67720
5.30355,0.49067
5.06248,0.45170
4.82141,0.50674
4.58034,0.56873
4.33927,0.56769
4.09820,0.52646
3.85713,0.55365
3.61606,0.62980
3.37499,0.71467
3.13392,0.75623
2.89285,0.80603
2.65178,0.86672
2.41071,0.85909
2.16964,0.76342
1.92856,0.81783
1.68749,1.10048
1.44642,0.89854
1.20535,0.53175
0.96428,0.39708
0.72321,0.42652
0.48214,0.49840
0.24107,0.59229
-0.00000,0.59483
