399.69498,1.55108
399.45391,1.54664
399.21284,1.54471
398.97177,1.54947
398.73070,1.55879
398.48963,1.56860
398.24856,1.57272
398.00749,1.57310
397.76642,1.57525
397.52535,1.57323
397.28428,1.55809
397.04321,1.53597
396.80214,1.52375
396.56107,1.52954
396.32000,1.54819
396.07892,1.57098
395.83785,1.58990
395.59678,1.59492
395.35571,1.58064
395.11464,1.55521
394.87357,1.53001
394.63250,1.50940
394.39143,1.49689
394.15036,1.49893
393.90929,1.51638
393.66822,1.54132
393.42715,1.56208
393.18608,1.56682
392.94501,1.55045
392.70394,1.52035
392.46287,1.49213
392.22180,1.48004
391.98073,1.48816
391.73965,1.50800
391.49858,1.52425
391.25751,1.52618
391.01644,1.51720
390.77537,1.51140
390.53430,1.51658
390.29323,1.52477
390.05216,1.52560
389.81109,1.52106
389.57002,1.52074
389.32895,1.52711
389.08788,1.52999
388.84681,1.52116
388.60574,1.50753
388.36467,1.50158
388.12360,1.50314
387.88253,1.50192
387.64146,1.49709
387.40038,1.49467
387.15931,1.49290
386.91824,1.48431
386.67717,1.46810
386.43610,1.45377
386.19503,1.44828
385.95396,1.45068
385.71289,1.45424
385.47182,1.44615
385.23075,1.41809
384.98968,1.38023
384.74861,1.35286
384.50754,1.34968
384.26647,1.36643
384.02540,1.38203
383.78433,1.37902
383.54326,1.36026
383.30219,1.33651
383.06111,1.31273
382.82004,1.29078
382.57897,1.27658
382.33790,1.27475
382.09683,1.27826
381.85576,1.27890
381.61469,1.28075
381.37362,1.28509
381.13255,1.28067
380.89148,1.26541
380.65041,1.25455
380.40934,1.25744
380.16827,1.26747
379.92720,1.27513
379.68613,1.27948
379.44506,1.28521
379.20399,1.29683
378.96292,1.31291
378.72184,1.32219
378.48077,1.31519
378.23970,1.29335
377.99863,1.26767
377.75756,1.25312
377.51649,1.25803
377.27542,1.28005
377.03435,1.30855
376.79328,1.33256
376.55221,1.34815
376.31114,1.35515
376.07007,1.35442
375.82900,1.35028
375.58793,1.34987
375.34686,1.35740
375.10579,1.36964
374.86472,1.38086
374.62365,1.39108
374.38257,1.39989
374.14150,1.39978
373.90043,1.38698
373.65936,1.37052
373.41829,1.36407
373.17722,1.37224
372.93615,1.38688
372.69508,1.39707
372.45401,1.40043
372.21294,1.39935
371.97187,1.39074
371.73080,1.37061
371.48973,1.34556
371.24866,1.32825
371.00759,1.32290
370.76652,1.32301
370.52545,1.32096
370.28437,1.31584
370.04330,1.31115
369.80223,1.30875
369.56116,1.30664
369.32009,1.30096
369.07902,1.28989
368.83795,1.27716
368.59688,1.27015
368.35581,1.27133
368.11474,1.27430
367.87367,1.27169
367.63260,1.26426
367.39153,1.25713
367.15046,1.25193
366.90939,1.24882
366.66832,1.25050
366.42725,1.25793
366.18618,1.26732
365.94510,1.27450
365.70403,1.27776
365.46296,1.27615
365.22189,1.26969
364.98082,1.26233
364.73975,1.25930
364.49868,1.26066
364.25761,1.26226
364.01654,1.26083
363.77547,1.25634
363.53440,1.25136
363.29333,1.24808
363.05226,1.24512
362.81119,1.23993
362.57012,1.23385
362.32905,1.23047
362.08798,1.22945
361.84691,1.22666
361.60583,1.22137
361.36476,1.21857
361.12369,1.22203
360.88262,1.22878
360.64155,1.23322
360.40048,1.23566
360.15941,1.24148
359.91834,1.25004
359.67727,1.25117
359.43620,1.23895
359.19513,1.22247
358.95406,1.21446
358.71299,1.21733
358.47192,1.22307
358.23085,1.22292
357.98978,1.21637
357.74871,1.21014
357.50764,1.20881
357.26656,1.20987
357.02549,1.20878
356.78442,1.20528
356.54335,1.20289
356.30228,1.20535
356.06121,1.21430
355.82014,1.22642
355.57907,1.23421
355.33800,1.23336
355.09693,1.22680
354.85586,1.22059
354.61479,1.21775
354.37372,1.21638
354.13265,1.21298
353.89158,1.20654
353.65051,1.19979
353.40944,1.19705
353.16837,1.20079
352.92729,1.21040
352.68622,1.22204
352.44515,1.22994
352.20408,1.23159
351.96301,1.22987
351.72194,1.22762
351.48087,1.22405
351.23980,1.21737
350.99873,1.20853
350.75766,1.20186
350.51659,1.20182
350.27552,1.20851
350.03445,1.21805
349.79338,1.22715
349.55231,1.23390
349.31124,1.23699
349.07017,1.23762
348.82910,1.23837
348.58802,1.24012
348.34695,1.24272
348.10588,1.24611
347.86481,1.24904
347.62374,1.24940
347.38267,1.24858
347.14160,1.25238
346.90053,1.26417
346.65946,1.27793
346.41839,1.28222
346.17732,1.27353
345.93625,1.26126
345.69518,1.25603
345.45411,1.25884
345.21304,1.26270
344.97197,1.26255
344.73090,1.26240
344.48983,1.26981
344.24875,1.28309
344.00768,1.29026
343.76661,1.28556
343.52554,1.27877
343.28447,1.28042
343.04340,1.28878
342.80233,1.29619
342.56126,1.30034
342.32019,1.30576
342.07912,1.31772
341.83805,1.33587
341.59698,1.35202
341.35591,1.35668
341.11484,1.35008
340.87377,1.34097
340.63270,1.33410
340.39163,1.32860
340.15056,1.32667
339.90948,1.33324
339.66841,1.34575
339.42734,1.35400
339.18627,1.35302
338.94520,1.34900
338.70413,1.35093
338.46306,1.36419
338.22199,1.38948
337.98092,1.41675
337.73985,1.42736
337.49878,1.41587
337.25771,1.39580
337.01664,1.38100
336.77557,1.37489
336.53450,1.37786
336.29343,1.39617
336.05236,1.42735
335.81129,1.44228
335.57021,1.41906
335.32914,1.38146
335.08807,1.36255
334.84700,1.36652
334.60593,1.37206
334.36486,1.36757
334.12379,1.36666
333.88272,1.37917
333.64165,1.39271
333.40058,1.39009
333.15951,1.37307
332.91844,1.35560
332.67737,1.34477
332.43630,1.34119
332.19523,1.33988
331.95416,1.33385
331.71309,1.32051
331.47202,1.30148
331.23094,1.28551
330.98987,1.28324
330.74880,1.29392
330.50773,1.30468
330.26666,1.30540
330.02559,1.29706
329.78452,1.28567
329.54345,1.27787
329.30238,1.27824
329.06131,1.28400
328.82024,1.28821
328.57917,1.28747
328.33810,1.28160
328.09703,1.27268
327.85596,1.26939
327.61489,1.27978
327.37382,1.29630
327.13275,1.30476
326.89167,1.30614
326.65060,1.30857
326.40953,1.30953
326.16846,1.30231
325.92739,1.28921
325.68632,1.27557
325.44525,1.26052
325.20418,1.24377
324.96311,1.23464
324.72204,1.24383
324.48097,1.26776
324.23990,1.28715
323.99883,1.28694
323.75776,1.27402
323.51669,1.26740
323.27562,1.27628
323.03455,1.29645
322.79348,1.32357
322.55240,1.35029
322.31133,1.35788
322.07026,1.33867
321.82919,1.30614
321.58812,1.27524
321.34705,1.25369
321.10598,1.24700
320.86491,1.25722
320.62384,1.27683
320.38277,1.29652
320.14170,1.31789
319.90063,1.34213
319.65956,1.35712
319.41849,1.34953
319.17742,1.32624
318.93635,1.30614
318.69528,1.29681
318.45421,1.29033
318.21313,1.27732
317.97206,1.26157
317.73099,1.25260
317.48992,1.25351
317.24885,1.26359
317.00778,1.28119
316.76671,1.29690
316.52564,1.29693
316.28457,1.28305
316.04350,1.27425
315.80243,1.28385
315.56136,1.30624
315.32029,1.32696
315.07922,1.33780
314.83815,1.34187
314.59708,1.34899
314.35601,1.36464
314.11494,1.37791
313.87386,1.36959
313.63279,1.34604
313.39172,1.33059
313.15065,1.33231
312.90958,1.34953
312.66851,1.37697
312.42744,1.39991
312.18637,1.40095
311.94530,1.38422
311.70423,1.37042
311.46316,1.36743
311.22209,1.36499
310.98102,1.35528
310.73995,1.34396
310.49888,1.33763
310.25781,1.33787
310.01674,1.34759
309.77567,1.37018
309.53459,1.39469
309.29352,1.40592
309.05245,1.40800
308.81138,1.40753
308.57031,1.39730
308.32924,1.37651
308.08817,1.36255
307.84710,1.36944
307.60603,1.39055
307.36496,1.40535
307.12389,1.40009
306.88282,1.38351
306.64175,1.37356
306.40068,1.37598
306.15961,1.38644
305.91854,1.40018
305.67747,1.40872
305.43640,1.40054
305.19532,1.37914
304.95425,1.36022
304.71318,1.35108
304.47211,1.34927
304.23104,1.34993
303.98997,1.34988
303.74890,1.34816
303.50783,1.34324
303.26676,1.33690
303.02569,1.33427
302.78462,1.33758
302.54355,1.34424
302.30248,1.34818
302.06141,1.34614
301.82034,1.33949
301.57927,1.32745
301.33820,1.30800
301.09713,1.28686
300.85605,1.27492
300.61498,1.27723
300.37391,1.28985
300.13284,1.30342
299.89177,1.30889
299.65070,1.30435
299.40963,1.29498
299.16856,1.28455
298.92749,1.27199
298.68642,1.25687
298.44535,1.24372
298.20428,1.23740
297.96321,1.23700
297.72214,1.23776
297.48107,1.23742
297.24000,1.23754
296.99893,1.23926
296.75786,1.24022
296.51678,1.23535
296.27571,1.22195
296.03464,1.20550
295.79357,1.19621
295.55250,1.19832
295.31143,1.20515
295.07036,1.20631
294.82929,1.19882
294.58822,1.18807
294.34715,1.17933
294.10608,1.17230
293.86501,1.16444
293.62394,1.15676
293.38287,1.15318
293.14180,1.15531
292.90073,1.16042
292.65966,1.16405
292.41859,1.16401
292.17751,1.16242
291.93644,1.16271
291.69537,1.16408
291.45430,1.16231
291.21323,1.15635
290.97216,1.14962
290.73109,1.14449
290.49002,1.14040
290.24895,1.13732
290.00788,1.13741
289.76681,1.14232
289.52574,1.14964
289.28467,1.15283
289.04360,1.14681
288.80253,1.13565
288.56146,1.13006
288.32039,1.13447
288.07932,1.14022
287.83824,1.13616
287.59717,1.12406
287.35610,1.11441
287.11503,1.11153
286.87396,1.11131
286.63289,1.10992
286.39182,1.10837
286.15075,1.10811
285.90968,1.10783
285.66861,1.10765
285.42754,1.11105
285.18647,1.11887
284.94540,1.12623
284.70433,1.12773
284.46326,1.12379
284.22219,1.11925
283.98112,1.11726
283.74005,1.11720
283.49897,1.11717
283.25790,1.11610
283.01683,1.11287
282.77576,1.10681
282.53469,1.09994
282.29362,1.09561
282.05255,1.09455
281.81148,1.09440
281.57041,1.09339
281.32934,1.09242
281.08827,1.09415
280.84720,1.10053
280.60613,1.11016
280.36506,1.11802
280.12399,1.11957
279.88292,1.11532
279.64185,1.10990
279.40078,1.10706
279.15970,1.10679
278.91863,1.10714
278.67756,1.10790
278.43649,1.11011
278.19542,1.11272
277.95435,1.11308
277.71328,1.11085
277.47221,1.10846
277.23114,1.10716
276.99007,1.10530
276.74900,1.10220
276.50793,1.10145
276.26686,1.10689
276.02579,1.11620
275.78472,1.12269
275.54365,1.12441
275.30258,1.12616
275.06151,1.13168
274.82043,1.13803
274.57936,1.13885
274.33829,1.13157
274.09722,1.12009
273.85615,1.11114
273.61508,1.10928
273.37401,1.11445
273.13294,1.12228
272.89187,1.12764
272.65080,1.12967
272.40973,1.13223
272.16866,1.13795
271.92759,1.14463
271.68652,1.14933
271.44545,1.15244
271.20438,1.15581
270.96331,1.15982
270.72224,1.16392
270.48116,1.16876
270.24009,1.17426
269.99902,1.17765
269.75795,1.17707
269.51688,1.17434
269.27581,1.17366
269.03474,1.17956
268.79367,1.19314
268.55260,1.20850
268.31153,1.21713
268.07046,1.21735
267.82939,1.21431
267.58832,1.21184
267.34725,1.21047
267.10618,1.21191
266.86511,1.22046
266.62404,1.23787
266.38297,1.25806
266.14189,1.27208
265.90082,1.27913
265.65975,1.28585
265.41868,1.29592
265.17761,1.30691
264.93654,1.31434
264.69547,1.31598
264.45440,1.31554
264.21333,1.32179
263.97226,1.33891
263.73119,1.36067
263.49012,1.37995
263.24905,1.39862
263.00798,1.42094
262.76691,1.44444
262.52584,1.46224
262.28477,1.47170
262.04370,1.47745
261.80262,1.48425
261.56155,1.49381
261.32048,1.50770
261.07941,1.52621
260.83834,1.54858
260.59727,1.57482
260.35620,1.60227
260.11513,1.62644
259.87406,1.65152
259.63299,1.68790
259.39192,1.73515
259.15085,1.77964
258.90978,1.80970
258.66871,1.82514
258.42764,1.83140
258.18657,1.83574
257.94550,1.84407
257.70443,1.85012
257.46335,1.84186
257.22228,1.81852
256.98121,1.79185
256.74014,1.77360
256.49907,1.76245
256.25800,1.74590
256.01693,1.72021
255.77586,1.69657
255.53479,1.68255
255.29372,1.67470
255.05265,1.66737
254.81158,1.65807
254.57051,1.64463
254.32944,1.62487
254.08837,1.60228
253.84730,1.58613
253.60623,1.58236
253.36516,1.58741
253.12408,1.59162
252.88301,1.58800
252.64194,1.57745
252.40087,1.56873
252.15980,1.56770
251.91873,1.57070
251.67766,1.57341
251.43659,1.57388
251.19552,1.56601
250.95445,1.54725
250.71338,1.52827
250.47231,1.52107
250.23124,1.52630
249.99017,1.53612
249.74910,1.54389
249.50803,1.54922
249.26696,1.55315
249.02589,1.55182
248.78481,1.54398
248.54374,1.53888
248.30267,1.54435
248.06160,1.55563
247.82053,1.56713
247.57946,1.58327
247.33839,1.60221
247.09732,1.60621
246.85625,1.58760
246.61518,1.56328
246.37411,1.54969
246.13304,1.54829
245.89197,1.55520
245.65090,1.56829
245.40983,1.58642
245.16876,1.60877
244.92769,1.63524
244.68661,1.66590
244.44554,1.69950
244.20447,1.73205
243.96340,1.76024
243.72233,1.78656
243.48126,1.81155
243.24019,1.82869
242.99912,1.84010
242.75805,1.85712
242.51698,1.87152
242.27591,1.82372
242.03484,1.72061
241.79377,1.62042
241.55270,1.52847
241.31163,1.44559
241.07056,1.37377
240.82949,1.31334
240.58842,1.26356
240.34734,1.22278
240.10627,1.18802
239.86520,1.15676
239.62413,1.12994
239.38306,1.10886
239.14199,1.08938
238.90092,1.06462
238.65985,1.03407
238.41878,1.00513
238.17771,0.98373
237.93664,0.96730
237.69557,0.94918
237.45450,0.92803
237.21343,0.90929
236.97236,0.89698
236.73129,0.88857
236.49022,0.87978
236.24915,0.87069
236.00807,0.86382
235.76700,0.85909
235.52593,0.85484
235.28486,0.85142
235.04379,0.84938
234.80272,0.84609
234.56165,0.83835
234.32058,0.82711
234.07951,0.81660
233.83844,0.81023
233.59737,0.80852
233.35630,0.80924
233.11523,0.80946
232.87416,0.80846
232.63309,0.80773
232.39202,0.80797
232.15095,0.80843
231.90988,0.80849
231.66880,0.80792
231.42773,0.80686
231.18666,0.80623
230.94559,0.80643
230.70452,0.80597
230.46345,0.80347
230.22238,0.79993
229.98131,0.79729
229.74024,0.79590
229.49917,0.79476
229.25810,0.79348
229.01703,0.79254
228.77596,0.79155
228.53489,0.78905
228.29382,0.78501
228.05275,0.78176
227.81168,0.78134
227.57061,0.78307
227.32953,0.78523
227.08846,0.78806
226.84739,0.79283
226.60632,0.79808
226.36525,0.79995
226.12418,0.79679
225.88311,0.79056
225.64204,0.78431
225.40097,0.78144
225.15990,0.78425
224.91883,0.79041
224.67776,0.79462
224.43669,0.79523
224.19562,0.79515
223.95455,0.79677
223.71348,0.80077
223.47241,0.80796
223.23134,0.81743
222.99026,0.82500
222.74919,0.82724
222.50812,0.82587
222.26705,0.82604
222.02598,0.83093
221.78491,0.83946
221.54384,0.84890
221.30277,0.85778
221.06170,0.86575
220.82063,0.87269
220.57956,0.87829
220.33849,0.88172
220.09742,0.88387
219.85635,0.88967
219.61528,0.90442
219.37421,0.92699
219.13314,0.94960
218.89207,0.96540
218.65099,0.97386
218.40992,0.97899
218.16885,0.98517
217.92778,0.99488
217.68671,1.00933
217.44564,1.02893
217.20457,1.05190
216.96350,1.07381
216.72243,1.09044
216.48136,1.10082
216.24029,1.10796
215.99922,1.11748
215.75815,1.13322
215.51708,1.15384
215.27601,1.17605
215.03494,1.19901
214.79387,1.22042
214.55280,1.23248
214.31172,1.23245
214.07065,1.23238
213.82958,1.24696
213.58851,1.27494
213.34744,1.29837
213.10637,1.30297
212.86530,1.29515
212.62423,1.28951
212.38316,1.29255
212.14209,1.30452
211.90102,1.32187
211.65995,1.33789
211.41888,1.34814
211.17781,1.35335
210.93674,1.35507
210.69567,1.35487
210.45460,1.35526
210.21353,1.35624
209.97245,1.35548
209.73138,1.35290
209.49031,1.35133
209.24924,1.35281
209.00817,1.35605
208.76710,1.35759
208.52603,1.35507
208.28496,1.34748
208.04389,1.33427
207.80282,1.31684
207.56175,1.29856
207.32068,1.28167
207.07961,1.26769
206.83854,1.25861
206.59747,1.25302
206.35640,1.24554
206.11533,1.23358
205.87426,1.21803
205.63318,1.19953
205.39211,1.18119
205.15104,1.16726
204.90997,1.15432
204.66890,1.13321
204.42783,1.10497
204.18676,1.08107
203.94569,1.06743
203.70462,1.05971
203.46355,1.05077
203.22248,1.03843
202.98141,1.02493
202.74034,1.01145
202.49927,0.99689
202.25820,0.98069
202.01713,0.96311
201.77606,0.94444
201.53499,0.92613
201.29391,0.90983
201.05284,0.89486
200.81177,0.87905
200.57070,0.86231
200.32963,0.84727
200.08856,0.83584
199.84749,0.82694
199.60642,0.81825
199.36535,0.80862
199.12428,0.79816
198.88321,0.78694
198.64214,0.77495
198.40107,0.76277
198.16000,0.75139
197.91893,0.74139
197.67786,0.73249
197.43679,0.72375
197.19572,0.71439
196.95464,0.70433
196.71357,0.69420
196.47250,0.68496
196.23143,0.67709
195.99036,0.66969
195.74929,0.66119
195.50822,0.65154
195.26715,0.64306
195.02608,0.63795
194.78501,0.63570
194.54394,0.63293
194.30287,0.62654
194.06180,0.61782
193.82073,0.61095
193.57966,0.60719
193.33859,0.60409
193.09752,0.60001
192.85645,0.59659
192.61537,0.59536
192.37430,0.59431
192.13323,0.59018
191.89216,0.58345
191.65109,0.57840
191.41002,0.57713
191.16895,0.57663
190.92788,0.57330
190.68681,0.56821
190.44574,0.56512
190.20467,0.56455
189.96360,0.56347
189.72253,0.56038
189.48146,0.55697
189.24039,0.55453
188.99932,0.55229
188.75825,0.54993
188.51718,0.54882
188.27610,0.54991
188.03503,0.55184
187.79396,0.55232
187.55289,0.55107
187.31182,0.55017
187.07075,0.55074
186.82968,0.55105
186.58861,0.54924
186.34754,0.54601
186.10647,0.54334
185.86540,0.54224
185.62433,0.54284
185.38326,0.54458
185.14219,0.54590
184.90112,0.54560
184.66005,0.54488
184.41898,0.54613
184.17791,0.54939
183.93683,0.55191
183.69576,0.55226
183.45469,0.55274
183.21362,0.55619
182.97255,0.56216
182.73148,0.56796
182.49041,0.57205
182.24934,0.57415
182.00827,0.57350
181.76720,0.57035
181.52613,0.56765
181.28506,0.56778
181.04399,0.56928
180.80292,0.57010
180.56185,0.57104
180.32078,0.57296
180.07971,0.57478
179.83864,0.57685
179.59756,0.58175
179.35649,0.58986
179.11542,0.59870
178.87435,0.60705
178.63328,0.61579
178.39221,0.62528
178.15114,0.63542
177.91007,0.64723
177.66900,0.66164
177.42793,0.67739
177.18686,0.69215
176.94579,0.70540
176.70472,0.71822
176.46365,0.73080
176.22258,0.74317
175.98151,0.75786
175.74044,0.77762
175.49937,0.80115
175.25829,0.82528
175.01722,0.84971
174.77615,0.87519
174.53508,0.90030
174.29401,0.92363
174.05294,0.94502
173.81187,0.96341
173.57080,0.97772
173.32973,0.98985
173.08866,1.00337
172.84759,1.01977
172.60652,1.03672
172.36545,1.05048
172.12438,1.06033
171.88331,1.06842
171.64224,1.07404
171.40117,1.07230
171.16010,1.06069
170.91902,1.04330
170.67795,1.02786
170.43688,1.01999
170.19581,1.01904
169.95474,1.01845
169.71367,1.01220
169.47260,1.00161
169.23153,0.99297
168.99046,0.98874
168.74939,0.98500
168.50832,0.97804
168.26725,0.96909
168.02618,0.96082
167.78511,0.95375
167.54404,0.94791
167.30297,0.94420
167.06190,0.94310
166.82083,0.94501
166.57975,0.95113
166.33868,0.96144
166.09761,0.97182
165.85654,0.97597
165.61547,0.97280
165.37440,0.96986
165.13333,0.97706
164.89226,0.99788
164.65119,1.02615
164.41012,1.05038
164.16905,1.06292
163.92798,1.06629
163.68691,1.06940
163.44584,1.07827
163.20477,1.09221
162.96370,1.10808
162.72263,1.12521
162.48156,1.14414
162.24048,1.16152
161.99941,1.16953
161.75834,1.16512
161.51727,1.15756
161.27620,1.15820
161.03513,1.16821
160.79406,1.18042
160.55299,1.18755
160.31192,1.18638
160.07085,1.17830
159.82978,1.16736
159.58871,1.15517
159.34764,1.14125
159.10657,1.12623
158.86550,1.11268
158.62443,1.10469
158.38336,1.10579
158.14229,1.11237
157.90121,1.11230
157.66014,1.09962
157.41907,1.08491
157.17800,1.08073
156.93693,1.08626
156.69586,1.08972
156.45479,1.08039
156.21372,1.05877
155.97265,1.03659
155.73158,1.02623
155.49051,1.02859
155.24944,1.03064
155.00837,1.01885
154.76730,0.99515
154.52623,0.97154
154.28516,0.95575
154.04409,0.94779
153.80302,0.94093
153.56194,0.92509
153.32087,0.89705
153.07980,0.86501
152.83873,0.83822
152.59766,0.81873
152.35659,0.80286
152.11552,0.78555
151.87445,0.76461
151.63338,0.74281
151.39231,0.72480
151.15124,0.71234
150.91017,0.70245
150.66910,0.68964
150.42803,0.67114
150.18696,0.64965
149.94589,0.63010
149.70482,0.61522
149.46375,0.60476
149.22267,0.59674
148.98160,0.58893
148.74053,0.58015
148.49946,0.57087
148.25839,0.56249
148.01732,0.55629
147.77625,0.55300
147.53518,0.55235
147.29411,0.55266
147.05304,0.55198
146.81197,0.55005
146.57090,0.54880
146.32983,0.55047
146.08876,0.55478
145.84769,0.55892
145.60662,0.56156
145.36555,0.56514
145.12448,0.57207
144.88340,0.58065
144.64233,0.58726
144.40126,0.59143
144.16019,0.59549
143.91912,0.60028
143.67805,0.60387
143.43698,0.60419
143.19591,0.60085
142.95484,0.59412
142.71377,0.58400
142.47270,0.57118
142.23163,0.55804
141.99056,0.54706
141.74949,0.53836
141.50842,0.53030
141.26735,0.52254
141.02628,0.51668
140.78521,0.51367
140.54413,0.51230
140.30306,0.51105
140.06199,0.51028
139.82092,0.51154
139.57985,0.51563
139.33878,0.52173
139.09771,0.52841
138.85664,0.53523
138.61557,0.54310
138.37450,0.55282
138.13343,0.56400
137.89236,0.57615
137.65129,0.58967
137.41022,0.60506
137.16915,0.62243
136.92808,0.64190
136.68701,0.66313
136.44594,0.68506
136.20486,0.70788
135.96379,0.73351
135.72272,0.76291
135.48165,0.79551
135.24058,0.83096
134.99951,0.86884
134.75844,0.90790
134.51737,0.94695
134.27630,0.98344
134.03523,1.01242
133.79416,1.03422
133.55309,1.05915
133.31202,1.09533
133.07095,1.13857
132.82988,1.17848
132.58881,1.20719
132.34774,1.21980
132.10667,1.21592
131.86559,1.20372
131.62452,1.19222
131.38345,1.17912
131.14238,1.15570
130.90131,1.12327
130.66024,1.09218
130.41917,1.06480
130.17810,1.03397
129.93703,0.99638
129.69596,0.95558
129.45489,0.91449
129.21382,0.87363
128.97275,0.83364
128.73168,0.79503
128.49061,0.75772
128.24954,0.72225
128.00847,0.68998
127.76740,0.66164
127.52632,0.63650
127.28525,0.61291
127.04418,0.58998
126.80311,0.56837
126.56204,0.54897
126.32097,0.53147
126.07990,0.51527
125.83883,0.50047
125.59776,0.48680
125.35669,0.47320
125.11562,0.45951
124.87455,0.44761
124.63348,0.43934
124.39241,0.43436
124.15134,0.43106
123.91027,0.42873
123.66920,0.42699
123.42812,0.42434
123.18705,0.41959
122.94598,0.41383
122.70491,0.40936
122.46384,0.40756
122.22277,0.40850
121.98170,0.41096
121.74063,0.41295
121.49956,0.41365
121.25849,0.41481
121.01742,0.41957
120.77635,0.42970
120.53528,0.44406
120.29421,0.45977
120.05314,0.47578
119.81207,0.49414
119.57100,0.51693
119.32993,0.54337
119.08885,0.57103
118.84778,0.59869
118.60671,0.62753
118.36564,0.65896
118.12457,0.69134
117.88350,0.72003
117.64243,0.74200
117.40136,0.75821
117.16029,0.77045
116.91922,0.77878
116.67815,0.78338
116.43708,0.78610
116.19601,0.78762
115.95494,0.78534
115.71387,0.77527
115.47280,0.75623
115.23173,0.73163
114.99066,0.70647
114.74958,0.68401
114.50851,0.66584
114.26744,0.65275
114.02637,0.64440
113.78530,0.63969
113.54423,0.63814
113.30316,0.64068
113.06209,0.64882
112.82102,0.66177
112.57995,0.67431
112.33888,0.68064
112.09781,0.68101
111.85674,0.68113
111.61567,0.68588
111.37460,0.69685
111.13353,0.71356
110.89246,0.73298
110.65139,0.74956
110.41031,0.75789
110.16924,0.75469
109.92817,0.73985
109.68710,0.71645
109.44603,0.68773
109.20496,0.65741
108.96389,0.63166
108.72282,0.61504
108.48175,0.60411
108.24068,0.58833
107.99961,0.56062
107.75854,0.52577
107.51747,0.49434
107.27640,0.47225
107.03533,0.45870
106.79426,0.45005
106.55319,0.44261
106.31212,0.43305
106.07104,0.41938
105.82997,0.40243
105.58890,0.38515
105.34783,0.37064
105.10676,0.36071
104.86569,0.35486
104.62462,0.34974
104.38355,0.34141
104.14248,0.32958
103.90141,0.31821
103.66034,0.31133
103.41927,0.30966
103.17820,0.30996
102.93713,0.30693
102.69606,0.29852
102.45499,0.28873
102.21392,0.28313
101.97285,0.28343
101.73177,0.28584
101.49070,0.28422
101.24963,0.27661
101.00856,0.26769
100.76749,0.26302
100.52642,0.26367
100.28535,0.26567
100.04428,0.26322
99.80321,0.25513
99.56214,0.24666
99.32107,0.24330
99.08000,0.24474
98.83893,0.24540
98.59786,0.24141
98.35679,0.23603
98.11572,0.23532
97.87465,0.23989
97.63358,0.24387
97.39250,0.24295
97.15143,0.24097
96.91036,0.24440
96.66929,0.25314
96.42822,0.26032
96.18715,0.26266
95.94608,0.26604
95.70501,0.27632
95.46394,0.29042
95.22287,0.30077
94.98180,0.30686
94.74073,0.31407
94.49966,0.32279
94.25859,0.32766
94.01752,0.32701
93.77645,0.32576
93.53538,0.32726
93.29431,0.32986
93.05323,0.33169
92.81216,0.33436
92.57109,0.33985
92.33002,0.34532
92.08895,0.34604
91.84788,0.34385
91.60681,0.34554
91.36574,0.35266
91.12467,0.36266
90.88360,0.37846
90.64253,0.40445
90.40146,0.43742
90.16039,0.47421
89.91932,0.52083
89.67825,0.57885
89.43718,0.63655
89.19611,0.68653
88.95504,0.73001
88.71396,0.75697
88.47289,0.75542
88.23182,0.73179
87.99075,0.69610
87.74968,0.65001
87.50861,0.59433
87.26754,0.53507
87.02647,0.47965
86.78540,0.43244
86.54433,0.39477
86.30326,0.36619
86.06219,0.34418
85.82112,0.32418
85.58005,0.30301
85.33898,0.28156
85.09791,0.26204
84.85684,0.24498
84.61577,0.23070
84.37469,0.22021
84.13362,0.21332
83.89255,0.20825
83.65148,0.20348
83.41041,0.19845
83.16934,0.19299
82.92827,0.18763
82.68720,0.18347
82.44613,0.18086
82.20506,0.17891
81.96399,0.17678
81.72292,0.17498
81.48185,0.17463
81.24078,0.17560
80.99971,0.17641
80.75864,0.17612
80.51757,0.17497
80.27650,0.17304
80.03542,0.16960
79.79435,0.16440
79.55328,0.15879
79.31221,0.15492
79.07114,0.15415
78.83007,0.15637
78.58900,0.16020
78.34793,0.16331
78.10686,0.16351
77.86579,0.16051
77.62472,0.15611
77.38365,0.15204
77.14258,0.14866
76.90151,0.14583
76.66044,0.14367
76.41937,0.14221
76.17830,0.14150
75.93723,0.14166
75.69615,0.14227
75.45508,0.14231
75.21401,0.14145
74.97294,0.14051
74.73187,0.14020
74.49080,0.14031
74.24973,0.14031
74.00866,0.14063
73.76759,0.14261
73.52652,0.14667
73.28545,0.15131
73.04438,0.15442
72.80331,0.15541
72.56224,0.15500
72.32117,0.15367
72.08010,0.15147
71.83903,0.14895
71.59796,0.14688
71.35688,0.14511
71.11581,0.14328
70.87474,0.14289
70.63367,0.14681
70.39260,0.15710
70.15153,0.17475
69.91046,0.19961
69.66939,0.22767
69.42832,0.25016
69.18725,0.25901
68.94618,0.25316
68.70511,0.23721
68.46404,0.21656
68.22297,0.19582
67.98190,0.17865
67.74083,0.16667
67.49976,0.15900
67.25869,0.15344
67.01761,0.14812
66.77654,0.14223
66.53547,0.13596
66.29440,0.13047
66.05333,0.12712
65.81226,0.12633
65.57119,0.12771
65.33012,0.13107
65.08905,0.13652
64.84798,0.14400
64.60691,0.15375
64.36584,0.16621
64.12477,0.17967
63.88370,0.18964
63.64263,0.19317
63.40156,0.19196
63.16049,0.18892
62.91942,0.18412
62.67834,0.17684
62.43727,0.16854
62.19620,0.16116
61.95513,0.15382
61.71406,0.14359
61.47299,0.12925
61.23192,0.11331
60.99085,0.09961
60.74978,0.09021
60.50871,0.08547
60.26764,0.08525
60.02657,0.08902
59.78550,0.09617
59.54443,0.10675
59.30336,0.12116
59.06229,0.13894
58.82122,0.15811
58.58015,0.17456
58.33907,0.18274
58.09800,0.17982
57.85693,0.16762
57.61586,0.14909
57.37479,0.12684
57.13372,0.10534
56.89265,0.09123
56.65158,0.08961
56.41051,0.10145
56.16944,0.12474
55.92837,0.15392
55.68730,0.17621
55.44623,0.17670
55.20516,0.15543
54.96409,0.12672
54.72302,0.10310
54.48195,0.09156
54.24088,0.09683
53.99980,0.12073
53.75873,0.15747
53.51766,0.18552
53.27659,0.17445
53.03552,0.13151
52.79445,0.09435
52.55338,0.08273
52.31231,0.09967
52.07124,0.14010
51.83017,0.17570
51.58910,0.16270
51.34803,0.11848
51.10696,0.09000
50.86589,0.09473
50.62482,0.12842
50.38375,0.16305
50.14268,0.15153
49.90161,0.10758
49.66053,0.08670
49.41946,0.11045
49.17839,0.15792
48.93732,0.16759
48.69625,0.12569
48.45518,0.09466
48.21411,0.10124
47.97304,0.12108
47.73197,0.11331
47.49090,0.08907
47.24983,0.08903
47.00876,0.11359
46.76769,0.11669
46.52662,0.08722
46.28555,0.07193
46.04448,0.08867
45.80341,0.10503
45.56234,0.09340
45.32126,0.08395
45.08019,0.09276
44.83912,0.09394
44.59805,0.08335
44.35698,0.08685
44.11591,0.10103
43.87484,0.10625
43.63377,0.10987
43.39270,0.12160
43.15163,0.12982
42.91056,0.12736
42.66949,0.12396
42.42842,0.12102
42.18735,0.11173
41.94628,0.09913
41.70521,0.09520
41.46414,0.10179
41.22307,0.10430
40.98199,0.09448
40.74092,0.08479
40.49985,0.08732
40.25878,0.09793
40.01771,0.10816
39.77664,0.11836
39.53557,0.13052
39.29450,0.14209
39.05343,0.14897
38.81236,0.14894
38.57129,0.14688
38.33022,0.15054
38.08915,0.15662
37.84808,0.15471
37.60701,0.14414
37.36594,0.13565
37.12487,0.13665
36.88380,0.14217
36.64272,0.14233
36.40165,0.13386
36.16058,0.11937
35.91951,0.10278
35.67844,0.09239
35.43737,0.09654
35.19630,0.11024
34.95523,0.11740
34.71416,0.10888
34.47309,0.09359
34.23202,0.08629
33.99095,0.08949
33.74988,0.08934
33.50881,0.07467
33.26774,0.05799
33.02667,0.06200
32.78560,0.08551
32.54453,0.10175
32.30345,0.09089
32.06238,0.05997
31.82131,0.03235
31.58024,0.02048
31.33917,0.01841
31.09810,0.01771
30.85703,0.01527
30.61596,0.00914
30.37489,-0.00100
30.13382,-0.01478
29.89275,-0.03469
29.65168,-0.06282
29.41061,-0.09365
29.16954,-0.11496
28.92847,-0.11719
28.68740,-0.10084
28.44633,-0.08056
28.20526,-0.07522
27.96418,-0.09502
27.72311,-0.13476
27.48204,-0.17542
27.24097,-0.19697
26.99990,-0.19898
26.75883,-0.19828
26.51776,-0.20262
26.27669,-0.20312
26.03562,-0.19278
25.79455,-0.18735
25.55348,-0.20835
25.31241,-0.24901
25.07134,-0.27480
24.83027,-0.26491
24.58920,-0.23388
24.34813,-0.19439
24.10706,-0.16675
23.86599,-0.17292
23.62491,-0.20488
23.38384,-0.23528
23.14277,-0.24151
22.90170,-0.22063
22.66063,-0.19956
22.41956,-0.19627
22.17849,-0.20525
21.93742,-0.18650
21.69635,-0.17288
21.45528,-0.18269
21.21421,-0.21795
20.97314,-0.25687
20.73207,-0.26600
20.49100,-0.25460
20.24993,-0.23706
20.00886,-0.22351
19.76779,-0.22608
19.52672,-0.25107
19.28564,-0.29171
19.04457,-0.32272
18.80350,-0.31993
18.56243,-0.28668
18.32136,-0.25187
18.08029,-0.23551
17.83922,-0.23431
17.59815,-0.23566
17.35708,-0.23773
17.11601,-0.25115
16.87494,-0.27117
16.63387,-0.28210
16.39280,-0.28559
16.15173,-0.26711
15.91066,-0.23041
15.66959,-0.21267
15.42852,-0.22660
15.18745,-0.25397
14.94637,-0.27026
14.70530,-0.27175
14.46423,-0.27077
14.22316,-0.27007
13.98209,-0.26795
13.74102,-0.27554
13.49995,-0.30220
13.25888,-0.34025
13.01781,-0.37161
12.77674,-0.37370
12.53567,-0.33475
12.29460,-0.28909
12.05353,-0.27028
11.81246,-0.27610
11.57139,-0.29009
11.33032,-0.29776
11.08925,-0.29455
10.84818,-0.27253
10.60710,-0.23632
10.36603,-0.21083
10.12496,-0.20712
9.88389,-0.22186
9.64282,-0.25106
9.40175,-0.28074
9.16068,-0.29515
8.91961,-0.29807
8.67854,-0.29830
8.43747,-0.29799
8.19640,-0.29215
7.95533,-0.27569
7.71426,-0.25729
7.47319,-0.24851
7.23212,-0.24994
6.99105,-0.25576
6.74998,-0.26528
6.50891,-0.27469
6.26783,-0.27971
6.02676,-0.28117
5.78569,-0.27651
5.54462,-0.26954
5.30355,-0.27097
5.06248,-0.28432
4.82141,-0.30046
4.58034,-0.31215
4.33927,-0.32121
4.09820,-0.31979
3.85713,-0.30916
3.61606,-0.30093
3.37499,-0.29287
3.13392,-0.27848
2.89285,-0.26815
2.65178,-0.26603
2.41071,-0.27702
2.16964,-0.30619
1.92856,-0.33812
1.68749,-0.35325
1.44642,-0.35704
1.20535,-0.34426
0.96428,-0.31794
0.72321,-0.31418
0.48214,-0.33933
0.24107,-0.36087
-0.00000,-0.30811
