399.69498,1.89917
399.45391,1.92866
399.21284,1.92658
398.97177,1.91491
398.73070,1.91676
398.48963,1.94138
398.24856,1.95404
398.00749,1.93653
397.76642,1.94481
397.52535,2.01326
397.28428,2.06124
397.04321,2.01277
396.80214,1.92971
396.56107,1.86928
396.32000,1.85866
396.07892,1.92210
395.83785,2.07511
395.59678,2.19126
395.35571,2.12841
395.11464,2.00427
394.87357,1.91527
394.63250,1.87272
394.39143,1.90427
394.15036,2.00527
393.90929,2.06107
393.66822,2.02297
393.42715,1.97946
393.18608,1.96739
392.94501,1.96107
392.70394,1.95465
392.46287,1.93735
392.22180,1.87736
391.98073,1.85105
391.73965,1.90552
391.49858,1.99398
391.25751,2.03268
391.01644,1.96421
390.77537,1.89102
390.53430,1.94402
390.29323,1.99954
390.05216,1.97552
389.81109,1.94713
389.57002,1.91087
389.32895,1.86139
389.08788,1.84879
388.84681,1.92199
388.60574,2.05288
388.36467,2.06237
388.12360,1.96985
387.88253,1.93420
387.64146,1.98157
387.40038,2.01987
387.15931,2.03817
386.91824,2.06817
386.67717,2.06065
386.43610,2.01622
386.19503,1.96703
385.95396,2.02946
385.71289,2.18245
385.47182,2.25037
385.23075,2.24465
384.98968,2.16093
384.74861,1.97943
384.50754,1.86340
384.26647,1.82919
384.02540,1.84413
383.78433,1.88155
383.54326,1.88901
383.30219,1.85488
383.06111,1.90324
382.82004,2.09115
382.57897,2.22396
382.33790,2.19815
382.09683,2.03458
381.85576,1.86206
381.61469,1.83825
381.37362,1.98722
381.13255,2.09665
380.89148,2.09772
380.65041,2.17864
380.40934,2.04944
380.16827,1.88636
379.92720,1.88749
379.68613,2.09847
379.44506,2.39175
379.20399,2.26623
378.96292,2.20259
378.72184,2.26873
378.48077,2.37484
378.23970,2.29298
377.99863,2.26892
377.75756,2.31406
377.51649,2.29564
377.27542,2.19389
377.03435,2.17870
376.79328,2.27203
376.55221,2.22146
376.31114,2.07444
376.07007,1.94476
375.82900,1.91148
375.58793,1.93566
375.34686,1.99345
375.10579,2.09333
374.86472,2.18918
374.62365,2.24210
374.38257,2.29575
374.14150,2.32395
373.90043,2.21966
373.65936,2.00255
373.41829,1.79236
373.17722,1.66555
372.93615,1.63480
372.69508,1.65404
372.45401,1.65485
372.21294,1.62241
371.97187,1.60121
371.73080,1.61238
371.48973,1.62824
371.24866,1.62768
371.00759,1.63357
370.76652,1.65649
370.52545,1.66071
370.28437,1.63627
370.04330,1.61389
369.80223,1.60039
369.56116,1.58019
369.32009,1.54509
369.07902,1.50013
368.83795,1.45438
368.59688,1.41998
368.35581,1.40782
368.11474,1.41492
367.87367,1.42864
367.63260,1.44299
367.39153,1.45759
367.15046,1.46368
366.90939,1.45167
366.66832,1.42896
366.42725,1.40793
366.18618,1.39330
365.94510,1.38629
365.70403,1.39227
365.46296,1.40899
365.22189,1.41801
364.98082,1.41166
364.73975,1.41033
364.49868,1.43384
364.25761,1.47521
364.01654,1.51111
363.77547,1.52508
363.53440,1.51382
363.29333,1.47712
363.05226,1.41993
362.81119,1.36478
362.57012,1.33895
362.32905,1.35049
362.08798,1.38523
361.84691,1.42559
361.60583,1.46138
361.36476,1.47958
361.12369,1.46511
360.88262,1.42412
360.64155,1.38412
360.40048,1.36322
360.15941,1.35687
359.91834,1.35582
359.67727,1.36318
359.43620,1.38188
359.19513,1.39860
358.95406,1.39831
358.71299,1.38802
358.47192,1.38189
358.23085,1.37390
357.98978,1.35685
357.74871,1.34719
357.50764,1.35892
357.26656,1.37964
357.02549,1.38601
356.78442,1.37450
356.54335,1.36134
356.30228,1.35744
356.06121,1.36175
355.82014,1.37423
355.57907,1.39340
355.33800,1.40646
355.09693,1.40283
354.85586,1.38843
354.61479,1.37201
354.37372,1.35705
354.13265,1.35208
353.89158,1.36846
353.65051,1.39910
353.40944,1.41699
353.16837,1.41028
352.92729,1.39593
352.68622,1.38963
352.44515,1.38917
352.20408,1.38652
351.96301,1.38425
351.72194,1.38781
351.48087,1.38888
351.23980,1.38034
350.99873,1.37078
350.75766,1.36545
350.51659,1.36367
350.27552,1.37024
350.03445,1.38953
349.79338,1.41272
349.55231,1.42021
349.31124,1.40692
349.07017,1.39001
348.82910,1.38632
348.58802,1.39511
348.34695,1.40550
348.10588,1.40997
347.86481,1.40844
347.62374,1.40912
347.38267,1.42003
347.14160,1.43574
346.90053,1.44709
346.65946,1.45733
346.41839,1.46963
346.17732,1.46769
345.93625,1.43965
345.69518,1.41127
345.45411,1.41639
345.21304,1.45088
344.97197,1.47464
344.73090,1.47330
344.48983,1.47713
344.24875,1.50701
344.00768,1.55868
343.76661,1.61338
343.52554,1.63754
343.28447,1.60922
343.04340,1.55662
342.80233,1.52665
342.56126,1.53341
342.32019,1.55268
342.07912,1.55241
341.83805,1.53385
341.59698,1.52187
341.35591,1.53157
341.11484,1.55732
340.87377,1.58725
340.63270,1.62671
340.39163,1.67717
340.15056,1.71708
339.90948,1.73894
339.66841,1.75339
339.42734,1.77629
339.18627,1.78094
338.94520,1.75838
338.70413,1.75325
338.46306,1.78149
338.22199,1.81583
337.98092,1.83833
337.73985,1.87719
337.49878,1.93020
337.25771,1.94409
337.01664,1.94656
336.77557,1.93748
336.53450,1.88353
336.29343,1.82336
336.05236,1.78653
335.81129,1.77392
335.57021,1.77965
335.32914,1.80104
335.08807,1.83089
334.84700,1.85824
334.60593,1.88194
334.36486,1.90330
334.12379,1.91454
333.88272,1.91599
333.64165,1.92649
333.40058,1.91470
333.15951,1.86072
332.91844,1.80664
332.67737,1.75279
332.43630,1.71211
332.19523,1.68939
331.95416,1.66255
331.71309,1.62191
331.47202,1.58724
331.23094,1.57666
330.98987,1.59451
330.74880,1.63905
330.50773,1.67788
330.26666,1.66992
330.02559,1.63391
329.78452,1.60759
329.54345,1.59665
329.30238,1.59011
329.06131,1.57577
328.82024,1.55135
328.57917,1.54268
328.33810,1.56732
328.09703,1.61036
327.85596,1.64583
327.61489,1.65493
327.37382,1.63399
327.13275,1.60395
326.89167,1.58142
326.65060,1.55867
326.40953,1.53921
326.16846,1.54609
325.92739,1.57658
325.68632,1.59753
325.44525,1.60284
325.20418,1.60174
324.96311,1.60723
324.72204,1.64734
324.48097,1.72549
324.23990,1.81406
323.99883,1.88892
323.75776,1.94012
323.51669,1.93742
323.27562,1.87130
323.03455,1.84896
322.79348,1.89264
322.55240,1.85054
322.31133,1.78825
322.07026,1.82085
321.82919,1.94927
321.58812,2.14081
321.34705,2.24807
321.10598,2.16691
320.86491,2.07924
320.62384,2.05470
320.38277,2.10267
320.14170,2.17749
319.90063,2.25377
319.65956,2.25994
319.41849,2.17752
319.17742,2.08945
318.93635,2.04616
318.69528,2.06562
318.45421,2.14876
318.21313,2.16259
317.97206,2.05431
317.73099,2.00006
317.48992,1.95271
317.24885,1.84979
317.00778,1.75479
316.76671,1.71421
316.52564,1.71716
316.28457,1.74655
316.04350,1.80101
315.80243,1.88579
315.56136,2.00866
315.32029,2.03443
315.07922,1.89001
314.83815,1.82480
314.59708,1.87417
314.35601,1.91188
314.11494,1.97924
313.87386,2.13607
313.63279,2.26967
313.39172,2.27413
313.15065,2.16380
312.90958,2.10111
312.66851,2.15903
312.42744,2.24109
312.18637,2.27162
311.94530,2.05643
311.70423,1.95672
311.46316,1.99196
311.22209,2.12885
310.98102,2.17338
310.73995,2.13486
310.49888,2.10593
310.25781,2.05466
310.01674,2.01406
309.77567,2.01267
309.53459,2.03128
309.29352,2.01857
309.05245,1.96918
308.81138,1.99817
308.57031,2.13504
308.32924,2.33136
308.08817,2.59709
307.84710,2.73058
307.60603,2.39189
307.36496,1.97506
307.12389,1.77596
306.88282,1.70160
306.64175,1.67863
306.40068,1.68764
306.15961,1.72963
305.91854,1.78627
305.67747,1.80199
305.43640,1.75203
305.19532,1.68033
304.95425,1.62490
304.71318,1.58951
304.47211,1.55906
304.23104,1.52217
303.98997,1.48050
303.74890,1.44350
303.50783,1.42150
303.26676,1.41685
303.02569,1.42342
302.78462,1.43472
302.54355,1.44353
302.30248,1.44191
302.06141,1.42961
301.82034,1.41233
301.57927,1.39389
301.33820,1.37198
301.09713,1.34515
300.85605,1.31632
300.61498,1.28886
300.37391,1.26571
300.13284,1.25039
299.89177,1.24725
299.65070,1.25890
299.40963,1.28164
299.16856,1.30150
298.92749,1.30293
298.68642,1.28761
298.44535,1.26942
298.20428,1.25525
297.96321,1.24332
297.72214,1.23207
297.48107,1.22051
297.24000,1.20676
296.99893,1.19635
296.75786,1.19833
296.51678,1.20842
296.27571,1.20988
296.03464,1.19382
295.79357,1.16915
295.55250,1.15024
295.31143,1.14399
295.07036,1.14940
294.82929,1.15880
294.58822,1.16029
294.34715,1.15067
294.10608,1.14021
293.86501,1.13697
293.62394,1.13577
293.38287,1.12786
293.14180,1.11462
292.90073,1.10526
292.65966,1.10526
292.41859,1.11001
292.17751,1.11113
291.93644,1.10646
291.69537,1.10020
291.45430,1.09516
291.21323,1.08947
290.97216,1.08165
290.73109,1.07581
290.49002,1.07874
290.24895,1.09123
290.00788,1.10352
289.76681,1.10410
289.52574,1.09441
289.28467,1.08432
289.04360,1.07794
288.80253,1.07375
288.56146,1.07044
288.32039,1.06847
288.07932,1.06756
287.83824,1.06442
287.59717,1.05565
287.35610,1.04293
287.11503,1.03257
286.87396,1.02946
286.63289,1.03169
286.39182,1.03245
286.15075,1.02912
285.90968,1.02715
285.66861,1.03354
285.42754,1.04588
285.18647,1.05133
284.94540,1.04357
284.70433,1.03225
284.46326,1.02746
284.22219,1.02696
283.98112,1.02343
283.74005,1.01646
283.49897,1.01267
283.25790,1.01747
283.01683,1.02974
282.77576,1.04277
282.53469,1.04927
282.29362,1.04670
282.05255,1.03810
281.81148,1.02893
281.57041,1.02259
281.32934,1.01784
281.08827,1.01124
280.84720,1.00309
280.60613,0.99880
280.36506,1.00312
280.12399,1.01449
279.88292,1.02538
279.64185,1.02889
279.40078,1.02619
279.15970,1.02525
278.91863,1.03018
278.67756,1.03535
278.43649,1.03360
278.19542,1.02619
277.95435,1.02001
277.71328,1.01863
277.47221,1.02055
277.23114,1.02367
276.99007,1.02580
276.74900,1.02470
276.50793,1.02165
276.26686,1.02013
276.02579,1.02032
275.78472,1.01946
275.54365,1.01806
275.30258,1.02066
275.06151,1.02816
274.82043,1.03444
274.57936,1.03442
274.33829,1.03100
274.09722,1.02991
273.85615,1.03223
273.61508,1.03496
273.37401,1.03482
273.13294,1.03058
272.89187,1.02493
272.65080,1.02345
272.40973,1.02900
272.16866,1.03707
271.92759,1.04048
271.68652,1.03774
271.44545,1.03363
271.20438,1.03310
270.96331,1.03686
270.72224,1.04251
270.48116,1.04805
270.24009,1.05183
269.99902,1.05171
269.75795,1.04850
269.51688,1.04677
269.27581,1.04940
269.03474,1.05488
268.79367,1.06245
268.55260,1.07403
268.31153,1.08754
268.07046,1.09562
267.82939,1.09330
267.58832,1.08333
267.34725,1.07373
267.10618,1.07194
266.86511,1.08083
266.62404,1.09821
266.38297,1.11738
266.14189,1.12889
265.90082,1.12812
265.65975,1.12231
265.41868,1.12436
265.17761,1.13966
264.93654,1.16081
264.69547,1.17546
264.45440,1.18008
264.21333,1.18109
263.97226,1.18347
263.73119,1.18735
263.49012,1.19197
263.24905,1.19626
263.00798,1.20024
262.76691,1.20774
262.52584,1.22239
262.28477,1.24013
262.04370,1.25318
261.80262,1.26185
261.56155,1.27248
261.32048,1.28855
261.07941,1.30954
260.83834,1.33092
260.59727,1.34454
260.35620,1.34620
260.11513,1.34340
259.87406,1.35161
259.63299,1.37823
259.39192,1.41168
259.15085,1.43474
258.90978,1.45345
258.66871,1.49003
258.42764,1.54237
258.18657,1.57998
257.94550,1.59230
257.70443,1.60391
257.46335,1.63278
257.22228,1.67154
256.98121,1.70220
256.74014,1.72220
256.49907,1.75545
256.25800,1.82022
256.01693,1.88661
255.77586,1.89782
255.53479,1.86668
255.29372,1.85082
255.05265,1.87123
254.81158,1.90374
254.57051,1.92460
254.32944,1.94292
254.08837,1.96856
253.84730,1.97765
253.60623,1.99351
253.36516,2.07498
253.12408,2.23224
252.88301,2.40794
252.64194,2.57596
252.40087,2.72828
252.15980,2.52661
251.91873,2.42829
251.67766,2.42453
251.43659,2.29914
251.19552,2.18135
250.95445,2.16866
250.71338,2.21927
250.47231,2.25760
250.23124,2.31842
249.99017,2.48350
249.74910,2.53458
249.50803,2.29081
249.26696,2.16927
249.02589,2.18234
248.78481,2.23695
248.54374,2.24045
248.30267,2.19652
248.06160,2.14095
247.82053,2.11082
247.57946,2.14479
247.33839,2.23231
247.09732,2.30531
246.85625,2.39828
246.61518,2.53286
246.37411,2.35509
246.13304,2.26172
245.89197,2.33497
245.65090,2.36275
245.40983,2.14095
245.16876,1.96636
244.92769,1.89637
244.68661,1.87639
244.44554,1.87657
244.20447,1.86536
243.96340,1.83863
243.72233,1.80493
243.48126,1.74666
243.24019,1.65453
242.99912,1.55728
242.75805,1.47892
242.51698,1.41879
242.27591,1.37010
242.03484,1.32920
241.79377,1.29178
241.55270,1.25091
241.31163,1.20663
241.07056,1.16783
240.82949,1.13897
240.58842,1.11327
240.34734,1.08201
240.10627,1.04520
239.86520,1.00856
239.62413,0.97616
239.38306,0.94877
239.14199,0.92588
238.90092,0.90662
238.65985,0.88928
238.41878,0.87141
238.17771,0.85212
237.93664,0.83354
237.69557,0.81865
237.45450,0.80838
237.21343,0.80030
236.97236,0.79078
236.73129,0.77896
236.49022,0.76726
236.24915,0.75785
236.00807,0.75143
235.76700,0.74815
235.52593,0.74636
235.28486,0.74182
235.04379,0.73233
234.80272,0.72180
234.56165,0.71570
234.32058,0.71451
234.07951,0.71426
233.83844,0.71210
233.59737,0.70823
233.35630,0.70369
233.11523,0.69956
232.87416,0.69721
232.63309,0.69668
232.39202,0.69609
232.15095,0.69367
231.90988,0.68934
231.66880,0.68446
231.42773,0.68141
231.18666,0.68178
230.94559,0.68352
230.70452,0.68267
230.46345,0.67930
230.22238,0.67766
229.98131,0.67957
229.74024,0.68220
229.49917,0.68289
229.25810,0.68219
229.01703,0.68122
228.77596,0.67947
228.53489,0.67624
228.29382,0.67237
228.05275,0.66983
227.81168,0.66997
227.57061,0.67249
227.32953,0.67640
227.08846,0.68151
226.84739,0.68717
226.60632,0.69076
226.36525,0.68941
226.12418,0.68352
225.88311,0.67690
225.64204,0.67333
225.40097,0.67462
225.15990,0.68018
224.91883,0.68643
224.67776,0.68882
224.43669,0.68680
224.19562,0.68514
223.95455,0.68919
223.71348,0.69975
223.47241,0.71237
223.23134,0.72107
222.99026,0.72392
222.74919,0.72463
222.50812,0.72746
222.26705,0.73287
222.02598,0.73920
221.78491,0.74534
221.54384,0.75075
221.30277,0.75474
221.06170,0.75751
220.82063,0.76075
220.57956,0.76677
220.33849,0.77648
220.09742,0.78764
219.85635,0.79603
219.61528,0.80025
219.37421,0.80347
219.13314,0.80986
218.89207,0.82128
218.65099,0.83640
218.40992,0.85248
218.16885,0.86822
217.92778,0.88398
217.68671,0.89890
217.44564,0.90990
217.20457,0.91616
216.96350,0.92214
216.72243,0.93295
216.48136,0.94847
216.24029,0.96384
215.99922,0.97577
215.75815,0.98638
215.51708,0.99990
215.27601,1.01687
215.03494,1.03250
214.79387,1.04359
214.55280,1.05299
214.31172,1.06445
214.07065,1.07735
213.82958,1.08704
213.58851,1.08882
213.34744,1.08241
213.10637,1.07365
212.86530,1.07005
212.62423,1.07480
212.38316,1.08534
212.14209,1.09617
211.90102,1.10233
211.65995,1.10201
211.41888,1.09714
211.17781,1.09281
210.93674,1.09567
210.69567,1.10897
210.45460,1.12710
210.21353,1.13945
209.97245,1.14159
209.73138,1.13681
209.49031,1.12872
209.24924,1.12055
209.00817,1.11578
208.76710,1.11443
208.52603,1.11325
208.28496,1.11145
208.04389,1.11154
207.80282,1.11258
207.56175,1.10827
207.32068,1.09477
207.07961,1.07698
206.83854,1.06371
206.59747,1.05921
206.35640,1.06099
206.11533,1.06263
205.87426,1.05827
205.63318,1.04701
205.39211,1.03299
205.15104,1.01904
204.90997,1.00371
204.66890,0.98586
204.42783,0.96820
204.18676,0.95507
203.94569,0.94859
203.70462,0.94658
203.46355,0.94375
203.22248,0.93584
202.98141,0.92170
202.74034,0.90217
202.49927,0.88000
202.25820,0.85932
202.01713,0.84267
201.77606,0.83027
201.53499,0.82177
201.29391,0.81630
201.05284,0.81134
200.81177,0.80335
200.57070,0.79039
200.32963,0.77414
200.08856,0.75853
199.84749,0.74601
199.60642,0.73579
199.36535,0.72559
199.12428,0.71456
198.88321,0.70317
198.64214,0.69096
198.40107,0.67709
198.16000,0.66352
197.91893,0.65395
197.67786,0.64868
197.43679,0.64321
197.19572,0.63341
196.95464,0.62039
196.71357,0.60864
196.47250,0.60101
196.23143,0.59677
195.99036,0.59374
195.74929,0.59030
195.50822,0.58512
195.26715,0.57724
195.02608,0.56819
194.78501,0.56132
194.54394,0.55780
194.30287,0.55585
194.06180,0.55362
193.82073,0.55053
193.57966,0.54606
193.33859,0.53976
193.09752,0.53195
192.85645,0.52367
192.61537,0.51654
192.37430,0.51230
192.13323,0.51100
191.89216,0.51032
191.65109,0.50778
191.41002,0.50355
191.16895,0.49977
190.92788,0.49736
190.68681,0.49509
190.44574,0.49202
190.20467,0.48864
189.96360,0.48494
189.72253,0.48033
189.48146,0.47607
189.24039,0.47426
188.99932,0.47432
188.75825,0.47355
188.51718,0.47153
188.27610,0.47078
188.03503,0.47252
187.79396,0.47466
187.55289,0.47472
187.31182,0.47289
187.07075,0.47145
186.82968,0.47181
186.58861,0.47345
186.34754,0.47553
186.10647,0.47780
185.86540,0.47956
185.62433,0.47993
185.38326,0.47959
185.14219,0.47967
184.90112,0.47969
184.66005,0.47928
184.41898,0.48002
184.17791,0.48264
183.93683,0.48503
183.69576,0.48560
183.45469,0.48557
183.21362,0.48626
182.97255,0.48721
182.73148,0.48803
182.49041,0.48931
182.24934,0.49104
182.00827,0.49276
181.76720,0.49462
181.52613,0.49656
181.28506,0.49735
181.04399,0.49639
180.80292,0.49545
180.56185,0.49688
180.32078,0.50057
180.07971,0.50417
179.83864,0.50644
179.59756,0.50923
179.35649,0.51516
179.11542,0.52428
178.87435,0.53413
178.63328,0.54305
178.39221,0.55160
178.15114,0.56074
177.91007,0.57088
177.66900,0.58268
177.42793,0.59622
177.18686,0.60966
176.94579,0.62076
176.70472,0.62926
176.46365,0.63703
176.22258,0.64693
175.98151,0.66192
175.74044,0.68309
175.49937,0.70749
175.25829,0.72949
175.01722,0.74674
174.77615,0.76304
174.53508,0.78202
174.29401,0.80064
174.05294,0.81416
173.81187,0.82491
173.57080,0.83897
173.32973,0.85623
173.08866,0.87104
172.84759,0.88090
172.60652,0.88830
172.36545,0.89571
172.12438,0.90269
171.88331,0.90748
171.64224,0.90898
171.40117,0.90753
171.16010,0.90470
170.91902,0.90166
170.67795,0.89795
170.43688,0.89272
170.19581,0.88538
169.95474,0.87547
169.71367,0.86398
169.47260,0.85375
169.23153,0.84682
168.99046,0.84213
168.74939,0.83674
168.50832,0.82986
168.26725,0.82393
168.02618,0.82154
167.78511,0.82316
167.54404,0.82770
167.30297,0.83361
167.06190,0.83937
166.82083,0.84407
166.57975,0.84796
166.33868,0.85055
166.09761,0.84921
165.85654,0.84340
165.61547,0.83918
165.37440,0.84432
165.13333,0.85897
164.89226,0.87487
164.65119,0.88559
164.41012,0.89499
164.16905,0.91067
163.92798,0.93201
163.68691,0.95061
163.44584,0.96188
163.20477,0.97006
162.96370,0.98020
162.72263,0.99312
162.48156,1.00924
162.24048,1.02775
161.99941,1.04145
161.75834,1.04274
161.51727,1.03593
161.27620,1.03271
161.03513,1.03666
160.79406,1.03934
160.55299,1.03189
160.31192,1.01675
160.07085,1.00401
159.82978,1.00003
159.58871,1.00327
159.34764,1.00756
159.10657,1.00588
158.86550,0.99507
158.62443,0.97883
158.38336,0.96339
158.14229,0.95117
157.90121,0.94184
157.66014,0.93585
157.41907,0.93341
157.17800,0.93247
156.93693,0.93112
156.69586,0.92963
156.45479,0.92719
156.21372,0.92173
155.97265,0.91413
155.73158,0.90761
155.49051,0.90266
155.24944,0.89701
155.00837,0.89054
154.76730,0.88442
154.52623,0.87703
154.28516,0.86623
154.04409,0.85284
153.80302,0.83750
153.56194,0.81907
153.32087,0.79914
153.07980,0.78273
152.83873,0.77117
152.59766,0.75913
152.35659,0.74146
152.11552,0.71856
151.87445,0.69361
151.63338,0.66945
151.39231,0.64893
151.15124,0.63381
150.91017,0.62232
150.66910,0.61027
150.42803,0.59524
150.18696,0.57848
149.94589,0.56250
149.70482,0.54875
149.46375,0.53769
149.22267,0.52906
148.98160,0.52151
148.74053,0.51344
148.49946,0.50475
148.25839,0.49673
148.01732,0.49047
147.77625,0.48616
147.53518,0.48343
147.29411,0.48158
147.05304,0.48032
146.81197,0.48064
146.57090,0.48340
146.32983,0.48747
146.08876,0.49103
145.84769,0.49438
145.60662,0.49944
145.36555,0.50661
145.12448,0.51406
144.88340,0.52010
144.64233,0.52445
144.40126,0.52751
144.16019,0.52974
143.91912,0.53200
143.67805,0.53494
143.43698,0.53703
143.19591,0.53494
142.95484,0.52728
142.71377,0.51679
142.47270,0.50758
142.23163,0.50073
141.99056,0.49370
141.74949,0.48384
141.50842,0.47174
141.26735,0.46092
141.02628,0.45443
140.78521,0.45199
140.54413,0.45071
140.30306,0.44844
140.06199,0.44549
139.82092,0.44370
139.57985,0.44488
139.33878,0.44978
139.09771,0.45759
138.85664,0.46675
138.61557,0.47617
138.37450,0.48542
138.13343,0.49454
137.89236,0.50466
137.65129,0.51742
137.41022,0.53292
137.16915,0.54916
136.92808,0.56464
136.68701,0.58036
136.44594,0.59852
136.20486,0.62033
135.96379,0.64529
135.72272,0.67186
135.48165,0.69834
135.24058,0.72441
134.99951,0.75259
134.75844,0.78591
134.51737,0.82261
134.27630,0.85528
134.03523,0.87752
133.79416,0.89059
133.55309,0.90163
133.31202,0.91686
133.07095,0.93666
132.82988,0.95538
132.58881,0.96766
132.34774,0.97473
132.10667,0.98031
131.86559,0.98456
131.62452,0.98575
131.38345,0.98396
131.14238,0.98042
130.90131,0.97361
130.66024,0.95813
130.41917,0.93072
130.17810,0.89578
129.93703,0.86003
129.69596,0.82505
129.45489,0.79006
129.21382,0.75652
128.97275,0.72483
128.73168,0.69206
128.49061,0.65818
128.24954,0.62787
128.00847,0.60276
127.76740,0.57851
127.52632,0.55262
127.28525,0.52859
127.04418,0.50938
126.80311,0.49259
126.56204,0.47473
126.32097,0.45617
126.07990,0.43908
125.83883,0.42434
125.59776,0.41266
125.35669,0.40533
125.11562,0.40123
124.87455,0.39590
124.63348,0.38631
124.39241,0.37457
124.15134,0.36481
123.91027,0.35887
123.66920,0.35635
123.42812,0.35577
123.18705,0.35501
122.94598,0.35230
122.70491,0.34788
122.46384,0.34385
122.22277,0.34215
121.98170,0.34291
121.74063,0.34471
121.49956,0.34688
121.25849,0.35072
121.01742,0.35729
120.77635,0.36550
120.53528,0.37400
120.29421,0.38326
120.05314,0.39439
119.81207,0.40779
119.57100,0.42410
119.32993,0.44439
119.08885,0.46877
118.84778,0.49573
118.60671,0.52240
118.36564,0.54633
118.12457,0.56891
117.88350,0.59428
117.64243,0.62278
117.40136,0.64792
117.16029,0.66224
116.91922,0.66572
116.67815,0.66575
116.43708,0.66811
116.19601,0.66982
115.95494,0.66347
115.71387,0.64796
115.47280,0.62965
115.23173,0.61353
114.99066,0.60014
114.74958,0.58918
114.50851,0.58006
114.26744,0.57041
114.02637,0.55898
113.78530,0.54836
113.54423,0.54174
113.30316,0.53957
113.06209,0.54108
112.82102,0.54668
112.57995,0.55710
112.33888,0.56995
112.09781,0.57969
111.85674,0.58267
111.61567,0.58086
111.37460,0.57915
111.13353,0.58062
110.89246,0.58479
110.65139,0.58847
110.41031,0.58850
110.16924,0.58535
109.92817,0.58180
109.68710,0.57681
109.44603,0.56460
109.20496,0.54354
108.96389,0.52045
108.72282,0.50206
108.48175,0.48749
108.24068,0.47131
107.99961,0.45149
107.75854,0.43120
107.51747,0.41388
107.27640,0.39899
107.03533,0.38366
106.79426,0.36708
106.55319,0.35148
106.31212,0.33858
106.07104,0.32747
105.82997,0.31691
105.58890,0.30708
105.34783,0.29808
105.10676,0.28955
104.86569,0.28216
104.62462,0.27680
104.38355,0.27285
104.14248,0.26900
103.90141,0.26447
103.66034,0.25809
103.41927,0.24901
103.17820,0.23914
102.93713,0.23222
102.69606,0.22972
102.45499,0.22924
102.21392,0.22701
101.97285,0.22146
101.73177,0.21423
101.49070,0.20820
101.24963,0.20486
101.00856,0.20366
100.76749,0.20296
100.52642,0.20122
100.28535,0.19822
100.04428,0.19511
99.80321,0.19256
99.56214,0.18972
99.32107,0.18608
99.08000,0.18288
98.83893,0.18125
98.59786,0.18033
98.35679,0.17885
98.11572,0.17734
97.87465,0.17744
97.63358,0.17994
97.39250,0.18437
97.15143,0.18983
96.91036,0.19562
96.66929,0.20140
96.42822,0.20725
96.18715,0.21312
95.94608,0.21882
95.70501,0.22460
95.46394,0.23116
95.22287,0.23862
94.98180,0.24627
94.74073,0.25303
94.49966,0.25797
94.25859,0.26095
94.01752,0.26294
93.77645,0.26470
93.53538,0.26586
93.29431,0.26582
93.05323,0.26464
92.81216,0.26304
92.57109,0.26196
92.33002,0.26188
92.08895,0.26251
91.84788,0.26410
91.60681,0.26840
91.36574,0.27744
91.12467,0.29199
90.88360,0.31197
90.64253,0.33706
90.40146,0.36647
90.16039,0.39912
89.91932,0.43429
89.67825,0.47137
89.43718,0.50935
89.19611,0.54607
88.95504,0.57705
88.71396,0.59564
88.47289,0.59703
88.23182,0.58190
87.99075,0.55433
87.74968,0.51808
87.50861,0.47640
87.26754,0.43356
87.02647,0.39449
86.78540,0.36158
86.54433,0.33275
86.30326,0.30492
86.06219,0.27850
85.82112,0.25569
85.58005,0.23630
85.33898,0.21865
85.09791,0.20273
84.85684,0.18952
84.61577,0.17856
84.37469,0.16892
84.13362,0.16133
83.89255,0.15682
83.65148,0.15381
83.41041,0.14924
83.16934,0.14240
82.92827,0.13531
82.68720,0.12948
82.44613,0.12459
82.20506,0.12028
81.96399,0.11694
81.72292,0.11480
81.48185,0.11367
81.24078,0.11308
80.99971,0.11224
80.75864,0.11062
80.51757,0.10855
80.27650,0.10655
80.03542,0.10448
79.79435,0.10232
79.55328,0.10091
79.31221,0.10091
79.07114,0.10136
78.83007,0.10069
78.58900,0.09891
78.34793,0.09736
78.10686,0.09608
77.86579,0.09347
77.62472,0.08920
77.38365,0.08508
77.14258,0.08259
76.90151,0.08146
76.66044,0.08104
76.41937,0.08129
76.17830,0.08150
75.93723,0.07979
75.69615,0.07545
75.45508,0.07085
75.21401,0.06925
74.97294,0.07126
74.73187,0.07507
74.49080,0.07896
74.24973,0.08216
74.00866,0.08397
73.76759,0.08405
73.52652,0.08334
73.28545,0.08330
73.04438,0.08411
72.80331,0.08439
72.56224,0.08341
72.32117,0.08263
72.08010,0.08391
71.83903,0.08655
71.59796,0.08797
71.35688,0.08765
71.11581,0.08831
70.87474,0.09271
70.63367,0.10083
70.39260,0.11100
70.15153,0.12185
69.91046,0.13256
69.66939,0.14252
69.42832,0.15116
69.18725,0.15752
68.94618,0.16010
68.70511,0.15732
68.46404,0.14885
68.22297,0.13675
67.98190,0.12446
67.74083,0.11407
67.49976,0.10513
67.25869,0.09676
67.01761,0.08936
66.77654,0.08370
66.53547,0.07982
66.29440,0.07747
66.05333,0.07645
65.81226,0.07613
65.57119,0.07574
65.33012,0.07576
65.08905,0.07837
64.84798,0.08539
64.60691,0.09534
64.36584,0.10348
64.12477,0.10649
63.88370,0.10590
63.64263,0.10494
63.40156,0.10370
63.16049,0.10007
62.91942,0.09398
62.67834,0.08807
62.43727,0.08465
62.19620,0.08304
61.95513,0.08042
61.71406,0.07541
61.47299,0.06992
61.23192,0.06640
60.99085,0.06475
60.74978,0.06319
60.50871,0.06116
60.26764,0.05969
60.02657,0.05967
59.78550,0.06102
59.54443,0.06287
59.30336,0.06378
59.06229,0.06256
58.82122,0.05987
58.58015,0.05805
58.33907,0.05802
58.09800,0.05822
57.85693,0.05762
57.61586,0.05730
57.37479,0.05746
57.13372,0.05545
56.89265,0.04903
56.65158,0.04043
56.41051,0.03516
56.16944,0.03651
55.92837,0.04204
55.68730,0.04604
55.44623,0.04558
55.20516,0.04332
54.96409,0.04396
54.72302,0.04894
54.48195,0.05553
54.24088,0.06077
53.99980,0.06438
53.75873,0.06717
53.51766,0.06839
53.27659,0.06618
53.03552,0.06047
52.79445,0.05420
52.55338,0.05066
52.31231,0.05026
52.07124,0.05138
51.83017,0.05284
51.58910,0.05310
51.34803,0.04968
51.10696,0.04311
50.86589,0.03817
50.62482,0.03816
50.38375,0.04094
50.14268,0.04259
49.90161,0.04130
49.66053,0.03697
49.41946,0.03097
49.17839,0.02672
48.93732,0.02680
48.69625,0.02803
48.45518,0.02294
48.21411,0.00873
47.97304,-0.00686
47.73197,-0.01232
47.49090,-0.00438
47.24983,0.00970
47.00876,0.02030
46.76769,0.02238
46.52662,0.01655
46.28555,0.00833
46.04448,0.00482
45.80341,0.00955
45.56234,0.01950
45.32126,0.02680
45.08019,0.02508
44.83912,0.01557
44.59805,0.00467
44.35698,-0.00341
44.11591,-0.00776
43.87484,-0.00711
43.63377,-0.00065
43.39270,0.00743
43.15163,0.00992
42.91056,0.00452
42.66949,-0.00481
42.42842,-0.01291
42.18735,-0.01526
41.94628,-0.00875
41.70521,0.00421
41.46414,0.01508
41.22307,0.01635
40.98199,0.00827
40.74092,-0.00343
40.49985,-0.01377
40.25878,-0.01905
40.01771,-0.01626
39.77664,-0.00616
39.53557,0.00593
39.29450,0.01440
39.05343,0.01741
38.81236,0.01713
38.57129,0.01655
38.33022,0.01350
38.08915,0.00233
37.84808,-0.01159
37.60701,-0.01031
37.36594,0.01090
37.12487,0.03310
36.88380,0.03692
36.64272,0.01953
36.40165,-0.00565
36.16058,-0.01752
35.91951,-0.00510
35.67844,0.02060
35.43737,0.04080
35.19630,0.05097
34.95523,0.06142
34.71416,0.07912
34.47309,0.09727
34.23202,0.10414
33.99095,0.09842
33.74988,0.09198
33.50881,0.09738
33.26774,0.11885
33.02667,0.15340
32.78560,0.18961
32.54453,0.21173
32.30345,0.21357
32.06238,0.20446
31.82131,0.18975
31.58024,0.15945
31.33917,0.10845
31.09810,0.05809
30.85703,0.03867
30.61596,0.05409
30.37489,0.08175
30.13382,0.09978
29.89275,0.10503
29.65168,0.10682
29.41061,0.10838
29.16954,0.10526
28.92847,0.09289
28.68740,0.07780
28.44633,0.07608
28.20526,0.08648
27.96418,0.09679
27.72311,0.11606
27.48204,0.14564
27.24097,0.16375
26.99990,0.15498
26.75883,0.13606
26.51776,0.14795
26.27669,0.22053
26.03562,0.33636
25.79455,0.41294
25.55348,0.39820
25.31241,0.35537
25.07134,0.34051
24.83027,0.36160
24.58920,0.39282
24.34813,0.38828
24.10706,0.33347
23.86599,0.26984
23.62491,0.25059
23.38384,0.29740
23.14277,0.38763
22.90170,0.46238
22.66063,0.46639
22.41956,0.42669
22.17849,0.41202
21.93742,0.43850
21.69635,0.49993
21.45528,0.56964
21.21421,0.62857
20.97314,0.72144
20.73207,0.76910
20.49100,0.64238
20.24993,0.49174
20.00886,0.42409
19.76779,0.46049
19.52672,0.56481
19.28564,0.69870
19.04457,0.90306
18.80350,1.18184
18.56243,1.06034
18.32136,0.93881
18.08029,0.92381
17.83922,1.03095
17.59815,1.11375
17.35708,0.91225
17.11601,0.80079
16.87494,0.92099
16.63387,0.88294
16.39280,0.76744
16.15173,0.57849
15.91066,0.46619
15.66959,0.47501
15.42852,0.54167
15.18745,0.59797
14.94637,0.62558
14.70530,0.62979
14.46423,0.67504
14.22316,0.76153
13.98209,0.76884
13.74102,0.62493
13.49995,0.52023
13.25888,0.55469
13.01781,0.71708
12.77674,0.85724
12.53567,0.76495
12.29460,0.64527
12.05353,0.59769
11.81246,0.63211
11.57139,0.73642
11.33032,0.82791
11.08925,0.91313
10.84818,1.05354
10.60710,0.97845
10.36603,1.00026
10.12496,1.08061
9.88389,0.77027
9.64282,0.59702
9.40175,0.56485
9.16068,0.56705
8.91961,0.68768
8.67854,0.91459
8.43747,0.86672
8.19640,0.74844
7.95533,0.72257
7.71426,0.75184
7.47319,0.76023
7.23212,0.76010
6.99105,0.85611
6.74998,0.91001
6.50891,0.87106
6.26783,0.74384
6.02676,0.69479
5.78569,0.77834
5.54462,1.05923
5.30355,1.13097
5.06248,0.94907
4.82141,0.82703
4.58034,0.75466
4.33927,0.66118
4.09820,0.57814
3.85713,0.51957
3.61606,0.47096
3.37499,0.47600
3.13392,0.56524
2.89285,0.63594
2.65178,0.55495
2.41071,0.51587
2.16964,0.55417
1.92856,0.70611
1.68749,0.74024
1.44642,0.57777
1.20535,0.58979
0.96428,0.68425
0.72321,0.68717
0.48214,0.78079
0.24107,0.97273
-0.00000,0.34240
