399.69498,1.45791
399.45391,1.46017
399.21284,1.46539
398.97177,1.47424
398.73070,1.48314
398.48963,1.48440
398.24856,1.47328
398.00749,1.45461
397.76642,1.43970
397.52535,1.43644
397.28428,1.44117
397.04321,1.44230
396.80214,1.43691
396.56107,1.43569
396.32000,1.44545
396.07892,1.45924
395.83785,1.46734
395.59678,1.46846
395.35571,1.46690
395.11464,1.46378
394.87357,1.45787
394.63250,1.45406
394.39143,1.45993
394.15036,1.47605
393.90929,1.49594
393.66822,1.51059
393.42715,1.51143
393.18608,1.49733
392.94501,1.47611
392.70394,1.45879
392.46287,1.45224
392.22180,1.45397
391.98073,1.45612
391.73965,1.45475
391.49858,1.45194
391.25751,1.44824
391.01644,1.43962
390.77537,1.42434
390.53430,1.41004
390.29323,1.40873
390.05216,1.42211
389.81109,1.43738
389.57002,1.44094
389.32895,1.43319
389.08788,1.42547
388.84681,1.42581
388.60574,1.43197
388.36467,1.43649
388.12360,1.43603
387.88253,1.43327
387.64146,1.43022
387.40038,1.42568
387.15931,1.41883
386.91824,1.40898
386.67717,1.39352
386.43610,1.37191
386.19503,1.34782
385.95396,1.32816
385.71289,1.32112
385.47182,1.32980
385.23075,1.34808
384.98968,1.36238
384.74861,1.36020
384.50754,1.34097
384.26647,1.31431
384.02540,1.28903
383.78433,1.26893
383.54326,1.25725
383.30219,1.25608
383.06111,1.25873
382.82004,1.25552
382.57897,1.24608
382.33790,1.23600
382.09683,1.22570
381.85576,1.21373
381.61469,1.20756
381.37362,1.21697
381.13255,1.23972
380.89148,1.26252
380.65041,1.27467
380.40934,1.27657
380.16827,1.27449
379.92720,1.26865
379.68613,1.25422
379.44506,1.23178
379.20399,1.20928
378.96292,1.19595
378.72184,1.19671
378.48077,1.20932
378.23970,1.22697
377.99863,1.24498
377.75756,1.26469
377.51649,1.28984
377.27542,1.32047
377.03435,1.34800
376.79328,1.35960
376.55221,1.35374
376.31114,1.34142
376.07007,1.33247
375.82900,1.32740
375.58793,1.32177
375.34686,1.31511
375.10579,1.31138
374.86472,1.31349
374.62365,1.32085
374.38257,1.32947
374.14150,1.33605
373.90043,1.34115
373.65936,1.34505
373.41829,1.34374
373.17722,1.33510
372.93615,1.32418
372.69508,1.31739
372.45401,1.31584
372.21294,1.31411
371.97187,1.30640
371.73080,1.29351
371.48973,1.28074
371.24866,1.27167
371.00759,1.26608
370.76652,1.26218
370.52545,1.25909
370.28437,1.25701
370.04330,1.25663
369.80223,1.25937
369.56116,1.26576
369.32009,1.27240
369.07902,1.27226
368.83795,1.26194
368.59688,1.24554
368.35581,1.23049
368.11474,1.22233
367.87367,1.22018
367.63260,1.21758
367.39153,1.21011
367.15046,1.20186
366.90939,1.20013
366.66832,1.20493
366.42725,1.20878
366.18618,1.20548
365.94510,1.19607
365.70403,1.18543
365.46296,1.17677
365.22189,1.17140
364.98082,1.16995
364.73975,1.17047
364.49868,1.16845
364.25761,1.16301
364.01654,1.15937
363.77547,1.16149
363.53440,1.16652
363.29333,1.16869
363.05226,1.16550
362.81119,1.15947
362.57012,1.15537
362.32905,1.15573
362.08798,1.15746
361.84691,1.15532
361.60583,1.14969
361.36476,1.14640
361.12369,1.14843
360.88262,1.15223
360.64155,1.15337
360.40048,1.15240
360.15941,1.15240
359.91834,1.15418
359.67727,1.15656
359.43620,1.15788
359.19513,1.15500
358.95406,1.14497
358.71299,1.13007
358.47192,1.11754
358.23085,1.11336
357.98978,1.11853
357.74871,1.12911
357.50764,1.13818
357.26656,1.14092
357.02549,1.13836
356.78442,1.13382
356.54335,1.12916
356.30228,1.12627
356.06121,1.12678
355.82014,1.12956
355.57907,1.13178
355.33800,1.13182
355.09693,1.12997
354.85586,1.12737
354.61479,1.12596
354.37372,1.12752
354.13265,1.13230
353.89158,1.13975
353.65051,1.14813
353.40944,1.15329
353.16837,1.15192
352.92729,1.14642
352.68622,1.14273
352.44515,1.14381
352.20408,1.14663
351.96301,1.14500
351.72194,1.13701
351.48087,1.12897
351.23980,1.12812
350.99873,1.13411
350.75766,1.14147
350.51659,1.14655
350.27552,1.14851
350.03445,1.14714
349.79338,1.14301
349.55231,1.13864
349.31124,1.13732
349.07017,1.14106
348.82910,1.14927
348.58802,1.15908
348.34695,1.16717
348.10588,1.17316
347.86481,1.18001
347.62374,1.18763
347.38267,1.18900
347.14160,1.18034
346.90053,1.17070
346.65946,1.17059
346.41839,1.17735
346.17732,1.18196
345.93625,1.18430
345.69518,1.19012
345.45411,1.19843
345.21304,1.20283
344.97197,1.20178
344.73090,1.20005
344.48983,1.20239
344.24875,1.20868
344.00768,1.21529
343.76661,1.22003
343.52554,1.22395
343.28447,1.22866
343.04340,1.23379
342.80233,1.23709
342.56126,1.23715
342.32019,1.23587
342.07912,1.23660
341.83805,1.24119
341.59698,1.25051
341.35591,1.26304
341.11484,1.27227
340.87377,1.27290
340.63270,1.26873
340.39163,1.26786
340.15056,1.27393
339.90948,1.28462
339.66841,1.29576
339.42734,1.30557
339.18627,1.31336
338.94520,1.31700
338.70413,1.31631
338.46306,1.31533
338.22199,1.31738
337.98092,1.32203
337.73985,1.32897
337.49878,1.33930
337.25771,1.34916
337.01664,1.34935
336.77557,1.33844
336.53450,1.32823
336.29343,1.32890
336.05236,1.33659
335.81129,1.34038
335.57021,1.33985
335.32914,1.34516
335.08807,1.35674
334.84700,1.35901
334.60593,1.34256
334.36486,1.31994
334.12379,1.30649
333.88272,1.30066
333.64165,1.29176
333.40058,1.27750
333.15951,1.26611
332.91844,1.26387
332.67737,1.26734
332.43630,1.26836
332.19523,1.26433
331.95416,1.26057
331.71309,1.26167
331.47202,1.26353
331.23094,1.25859
330.98987,1.24931
330.74880,1.24374
330.50773,1.24178
330.26666,1.23753
330.02559,1.23076
329.78452,1.22756
329.54345,1.22909
329.30238,1.22761
329.06131,1.21863
328.82024,1.21012
328.57917,1.21191
328.33810,1.22266
328.09703,1.23248
327.85596,1.23469
327.61489,1.22993
327.37382,1.22104
327.13275,1.21082
326.89167,1.20319
326.65060,1.20421
326.40953,1.21899
326.16846,1.24268
325.92739,1.25970
325.68632,1.25939
325.44525,1.24740
325.20418,1.23600
324.96311,1.22975
324.72204,1.22479
324.48097,1.21856
324.23990,1.21604
323.99883,1.22346
323.75776,1.23720
323.51669,1.24488
323.27562,1.24084
323.03455,1.23253
322.79348,1.22858
322.55240,1.22975
322.31133,1.23164
322.07026,1.23138
321.82919,1.22979
321.58812,1.22843
321.34705,1.22738
321.10598,1.22596
320.86491,1.22544
320.62384,1.22720
320.38277,1.22882
320.14170,1.22964
319.90063,1.23284
319.65956,1.23776
319.41849,1.23916
319.17742,1.23786
318.93635,1.24325
318.69528,1.25891
318.45421,1.27320
318.21313,1.27070
317.97206,1.25157
317.73099,1.23220
317.48992,1.22686
317.24885,1.23475
317.00778,1.24397
316.76671,1.24724
316.52564,1.24943
316.28457,1.25416
316.04350,1.25591
315.80243,1.25126
315.56136,1.24527
315.32029,1.24479
315.07922,1.25185
314.83815,1.26310
314.59708,1.27289
314.35601,1.27930
314.11494,1.28758
313.87386,1.30155
313.63279,1.31360
313.39172,1.31401
313.15065,1.30559
312.90958,1.29831
312.66851,1.29664
312.42744,1.30191
312.18637,1.31658
311.94530,1.33637
311.70423,1.34881
311.46316,1.34790
311.22209,1.33952
310.98102,1.32970
310.73995,1.31953
310.49888,1.31016
310.25781,1.30549
310.01674,1.30894
309.77567,1.31806
309.53459,1.32655
309.29352,1.33166
309.05245,1.33576
308.81138,1.34226
308.57031,1.35190
308.32924,1.36126
308.08817,1.36432
307.84710,1.35772
307.60603,1.34672
307.36496,1.34114
307.12389,1.34470
306.88282,1.35420
306.64175,1.36515
306.40068,1.37136
306.15961,1.36572
305.91854,1.34923
305.67747,1.33158
305.43640,1.31925
305.19532,1.31028
304.95425,1.30182
304.71318,1.29674
304.47211,1.29892
304.23104,1.30551
303.98997,1.30895
303.74890,1.30663
303.50783,1.30354
303.26676,1.30399
303.02569,1.30543
302.78462,1.30299
302.54355,1.29654
302.30248,1.28887
302.06141,1.28049
301.82034,1.27056
301.57927,1.26118
301.33820,1.25597
301.09713,1.25410
300.85605,1.24985
300.61498,1.23894
300.37391,1.22379
300.13284,1.21153
299.89177,1.20617
299.65070,1.20400
299.40963,1.19955
299.16856,1.19393
298.92749,1.19182
298.68642,1.19267
298.44535,1.19152
298.20428,1.18598
297.96321,1.17728
297.72214,1.16729
297.48107,1.15872
297.24000,1.15436
296.99893,1.15320
296.75786,1.15115
296.51678,1.14593
296.27571,1.13862
296.03464,1.13201
295.79357,1.12926
295.55250,1.13133
295.31143,1.13462
295.07036,1.13380
294.82929,1.12765
294.58822,1.11909
294.34715,1.11135
294.10608,1.10665
293.86501,1.10579
293.62394,1.10720
293.38287,1.10794
293.14180,1.10657
292.90073,1.10326
292.65966,1.09816
292.41859,1.09193
292.17751,1.08657
291.93644,1.08409
291.69537,1.08446
291.45430,1.08559
291.21323,1.08526
290.97216,1.08306
290.73109,1.08075
290.49002,1.07992
290.24895,1.07962
290.00788,1.07769
289.76681,1.07355
289.52574,1.06815
289.28467,1.06270
289.04360,1.05831
288.80253,1.05566
288.56146,1.05445
288.32039,1.05370
288.07932,1.05281
287.83824,1.05183
287.59717,1.05117
287.35610,1.05070
287.11503,1.04944
286.87396,1.04698
286.63289,1.04455
286.39182,1.04312
286.15075,1.04187
285.90968,1.04020
285.66861,1.03878
285.42754,1.03744
285.18647,1.03525
284.94540,1.03279
284.70433,1.03184
284.46326,1.03254
284.22219,1.03319
283.98112,1.03319
283.74005,1.03379
283.49897,1.03569
283.25790,1.03824
283.01683,1.04076
282.77576,1.04311
282.53469,1.04460
282.29362,1.04360
282.05255,1.04004
281.81148,1.03657
281.57041,1.03549
281.32934,1.03556
281.08827,1.03364
280.84720,1.02924
280.60613,1.02582
280.36506,1.02638
280.12399,1.02943
279.88292,1.03104
279.64185,1.03009
279.40078,1.02931
279.15970,1.03116
278.91863,1.03477
278.67756,1.03786
278.43649,1.04008
278.19542,1.04284
277.95435,1.04588
277.71328,1.04646
277.47221,1.04392
277.23114,1.04204
276.99007,1.04412
276.74900,1.04862
276.50793,1.05227
276.26686,1.05467
276.02579,1.05638
275.78472,1.05590
275.54365,1.05274
275.30258,1.04985
275.06151,1.04995
274.82043,1.05185
274.57936,1.05310
274.33829,1.05416
274.09722,1.05731
273.85615,1.06256
273.61508,1.06722
273.37401,1.06965
273.13294,1.07112
272.89187,1.07314
272.65080,1.07519
272.40973,1.07619
272.16866,1.07650
271.92759,1.07765
271.68652,1.08123
271.44545,1.08755
271.20438,1.09493
270.96331,1.10096
270.72224,1.10477
270.48116,1.10797
270.24009,1.11287
269.99902,1.12000
269.75795,1.12788
269.51688,1.13468
269.27581,1.13874
269.03474,1.13849
268.79367,1.13464
268.55260,1.13224
268.31153,1.13645
268.07046,1.14566
267.82939,1.15316
267.58832,1.15654
267.34725,1.16016
267.10618,1.16795
266.86511,1.17901
266.62404,1.18975
266.38297,1.19766
266.14189,1.20261
265.90082,1.20585
265.65975,1.20949
265.41868,1.21651
265.17761,1.22798
264.93654,1.24003
264.69547,1.24832
264.45440,1.25599
264.21333,1.27111
263.97226,1.29511
263.73119,1.31928
263.49012,1.33373
263.24905,1.33725
263.00798,1.33791
262.76691,1.34531
262.52584,1.36239
262.28477,1.38528
262.04370,1.40986
261.80262,1.43372
261.56155,1.45265
261.32048,1.46520
261.07941,1.48047
260.83834,1.50950
260.59727,1.54854
260.35620,1.58092
260.11513,1.60039
259.87406,1.61627
259.63299,1.63525
259.39192,1.66083
259.15085,1.69476
258.90978,1.72683
258.66871,1.74210
258.42764,1.74291
258.18657,1.74219
257.94550,1.74502
257.70443,1.74558
257.46335,1.73715
257.22228,1.72064
256.98121,1.70084
256.74014,1.68164
256.49907,1.66503
256.25800,1.65098
256.01693,1.63993
255.77586,1.63486
255.53479,1.63769
255.29372,1.64300
255.05265,1.64078
254.81158,1.62742
254.57051,1.60731
254.32944,1.58498
254.08837,1.56430
253.84730,1.54971
253.60623,1.54283
253.36516,1.53778
253.12408,1.52752
252.88301,1.51387
252.64194,1.50185
252.40087,1.49282
252.15980,1.48843
251.91873,1.49238
251.67766,1.50329
251.43659,1.51081
251.19552,1.50699
250.95445,1.49731
250.71338,1.49208
250.47231,1.49429
250.23124,1.50000
249.99017,1.50474
249.74910,1.50271
249.50803,1.48718
249.26696,1.46231
249.02589,1.44406
248.78481,1.44143
248.54374,1.44570
248.30267,1.44594
248.06160,1.44841
247.82053,1.46482
247.57946,1.48944
247.33839,1.50374
247.09732,1.50242
246.85625,1.49864
246.61518,1.50123
246.37411,1.50469
246.13304,1.50256
245.89197,1.49828
245.65090,1.49864
245.40983,1.50495
245.16876,1.51549
244.92769,1.53022
244.68661,1.55003
244.44554,1.57672
244.20447,1.61323
243.96340,1.65827
243.72233,1.70288
243.48126,1.74188
243.24019,1.78371
242.99912,1.83641
242.75805,1.89294
242.51698,1.91529
242.27591,1.83582
242.03484,1.71296
241.79377,1.60478
241.55270,1.50823
241.31163,1.42142
241.07056,1.35239
240.82949,1.30280
240.58842,1.26254
240.34734,1.22063
240.10627,1.17535
239.86520,1.13103
239.62413,1.09083
239.38306,1.05608
239.14199,1.02801
238.90092,1.00669
238.65985,0.98915
238.41878,0.97075
238.17771,0.94922
237.93664,0.92658
237.69557,0.90622
237.45450,0.88947
237.21343,0.87551
236.97236,0.86317
236.73129,0.85175
236.49022,0.84096
236.24915,0.83089
236.00807,0.82194
235.76700,0.81442
235.52593,0.80855
235.28486,0.80437
235.04379,0.80095
234.80272,0.79657
234.56165,0.79027
234.32058,0.78248
234.07951,0.77435
233.83844,0.76743
233.59737,0.76319
233.35630,0.76166
233.11523,0.76119
232.87416,0.76048
232.63309,0.75978
232.39202,0.75979
232.15095,0.76041
231.90988,0.76095
231.66880,0.76080
231.42773,0.75999
231.18666,0.75912
230.94559,0.75840
230.70452,0.75700
230.46345,0.75409
230.22238,0.75054
229.98131,0.74845
229.74024,0.74826
229.49917,0.74756
229.25810,0.74458
229.01703,0.74146
228.77596,0.74123
228.53489,0.74350
228.29382,0.74587
228.05275,0.74742
227.81168,0.74841
227.57061,0.74856
227.32953,0.74796
227.08846,0.74696
226.84739,0.74499
226.60632,0.74163
226.36525,0.73866
226.12418,0.73814
225.88311,0.73954
225.64204,0.74128
225.40097,0.74364
225.15990,0.74740
224.91883,0.75141
224.67776,0.75393
224.43669,0.75534
224.19562,0.75701
223.95455,0.75898
223.71348,0.76062
223.47241,0.76264
223.23134,0.76652
222.99026,0.77238
222.74919,0.77832
222.50812,0.78222
222.26705,0.78455
222.02598,0.78872
221.78491,0.79735
221.54384,0.80879
221.30277,0.81928
221.06170,0.82723
220.82063,0.83330
220.57956,0.83877
220.33849,0.84568
220.09742,0.85567
219.85635,0.86752
219.61528,0.87891
219.37421,0.88995
219.13314,0.90203
218.89207,0.91484
218.65099,0.92687
218.40992,0.93734
218.16885,0.94664
217.92778,0.95643
217.68671,0.96935
217.44564,0.98716
217.20457,1.00901
216.96350,1.03165
216.72243,1.05135
216.48136,1.06612
216.24029,1.07746
215.99922,1.08946
215.75815,1.10401
215.51708,1.11810
215.27601,1.12926
215.03494,1.14175
214.79387,1.16094
214.55280,1.18447
214.31172,1.20524
214.07065,1.22059
213.82958,1.23263
213.58851,1.24281
213.34744,1.25113
213.10637,1.25808
212.86530,1.26455
212.62423,1.27162
212.38316,1.28140
212.14209,1.29598
211.90102,1.31409
211.65995,1.32987
211.41888,1.33872
211.17781,1.34346
210.93674,1.34789
210.69567,1.35028
210.45460,1.34819
210.21353,1.34231
209.97245,1.33449
209.73138,1.32789
209.49031,1.32729
209.24924,1.33375
209.00817,1.34299
208.76710,1.34972
208.52603,1.34850
208.28496,1.33328
208.04389,1.30568
207.80282,1.27836
207.56175,1.26357
207.32068,1.26266
207.07961,1.26613
206.83854,1.26259
206.59747,1.24788
206.35640,1.22490
206.11533,1.19899
205.87426,1.17700
205.63318,1.16419
205.39211,1.15838
205.15104,1.15160
204.90997,1.13940
204.66890,1.12365
204.42783,1.10624
204.18676,1.08691
203.94569,1.06773
203.70462,1.05300
203.46355,1.04383
203.22248,1.03671
202.98141,1.02660
202.74034,1.00901
202.49927,0.98292
202.25820,0.95363
202.01713,0.92931
201.77606,0.91450
201.53499,0.90660
201.29391,0.89772
201.05284,0.88204
200.81177,0.86133
200.57070,0.84175
200.32963,0.82716
200.08856,0.81672
199.84749,0.80689
199.60642,0.79488
199.36535,0.78093
199.12428,0.76740
198.88321,0.75553
198.64214,0.74447
198.40107,0.73345
198.16000,0.72252
197.91893,0.71148
197.67786,0.70051
197.43679,0.69109
197.19572,0.68414
196.95464,0.67749
196.71357,0.66790
196.47250,0.65572
196.23143,0.64475
195.99036,0.63746
195.74929,0.63254
195.50822,0.62745
195.26715,0.62149
195.02608,0.61545
194.78501,0.60964
194.54394,0.60386
194.30287,0.59853
194.06180,0.59414
193.82073,0.58986
193.57966,0.58429
193.33859,0.57758
193.09752,0.57145
192.85645,0.56676
192.61537,0.56267
192.37430,0.55861
192.13323,0.55557
191.89216,0.55425
191.65109,0.55328
191.41002,0.55036
191.16895,0.54486
190.92788,0.53860
190.68681,0.53405
190.44574,0.53210
190.20467,0.53135
189.96360,0.52985
189.72253,0.52761
189.48146,0.52634
189.24039,0.52670
188.99932,0.52717
188.75825,0.52642
188.51718,0.52520
188.27610,0.52446
188.03503,0.52323
187.79396,0.52005
187.55289,0.51553
187.31182,0.51209
187.07075,0.51125
186.82968,0.51232
186.58861,0.51368
186.34754,0.51487
186.10647,0.51657
185.86540,0.51854
185.62433,0.51924
185.38326,0.51824
185.14219,0.51737
184.90112,0.51826
184.66005,0.52017
184.41898,0.52149
184.17791,0.52226
183.93683,0.52358
183.69576,0.52558
183.45469,0.52788
183.21362,0.53102
182.97255,0.53533
182.73148,0.53910
182.49041,0.54034
182.24934,0.53970
182.00827,0.53935
181.76720,0.54007
181.52613,0.54152
181.28506,0.54384
181.04399,0.54682
180.80292,0.54897
180.56185,0.54974
180.32078,0.55085
180.07971,0.55387
179.83864,0.55836
179.59756,0.56324
179.35649,0.56782
179.11542,0.57171
178.87435,0.57555
178.63328,0.58126
178.39221,0.58992
178.15114,0.60074
177.91007,0.61288
177.66900,0.62640
177.42793,0.64101
177.18686,0.65613
176.94579,0.67164
176.70472,0.68715
176.46365,0.70253
176.22258,0.71946
175.98151,0.73938
175.74044,0.76091
175.49937,0.78205
175.25829,0.80308
175.01722,0.82485
174.77615,0.84723
174.53508,0.87045
174.29401,0.89561
174.05294,0.92275
173.81187,0.94969
173.57080,0.97281
173.32973,0.98966
173.08866,1.00169
172.84759,1.01330
172.60652,1.02755
172.36545,1.04275
172.12438,1.05332
171.88331,1.05492
171.64224,1.04885
171.40117,1.03989
171.16010,1.03186
170.91902,1.02679
170.67795,1.02460
170.43688,1.02143
170.19581,1.01282
169.95474,1.00033
169.71367,0.98993
169.47260,0.98448
169.23153,0.98192
168.99046,0.97934
168.74939,0.97555
168.50832,0.97001
168.26725,0.96240
168.02618,0.95369
167.78511,0.94584
167.54404,0.94022
167.30297,0.93766
167.06190,0.93901
166.82083,0.94429
166.57975,0.95247
166.33868,0.96197
166.09761,0.97023
165.85654,0.97463
165.61547,0.97560
165.37440,0.97699
165.13333,0.98259
164.89226,0.99390
164.65119,1.01017
164.41012,1.02802
164.16905,1.04290
163.92798,1.05405
163.68691,1.06592
163.44584,1.08251
163.20477,1.10253
162.96370,1.12208
162.72263,1.13904
162.48156,1.15243
162.24048,1.15996
161.99941,1.16027
161.75834,1.15678
161.51727,1.15656
161.27620,1.16495
161.03513,1.18028
160.79406,1.19267
160.55299,1.19240
160.31192,1.17998
160.07085,1.16313
159.82978,1.14791
159.58871,1.13701
159.34764,1.13046
159.10657,1.12518
158.86550,1.11832
158.62443,1.11112
158.38336,1.10661
158.14229,1.10505
157.90121,1.10370
157.66014,1.09927
157.41907,1.08973
157.17800,1.07631
156.93693,1.06428
156.69586,1.05946
156.45479,1.06266
156.21372,1.06821
155.97265,1.06837
155.73158,1.05893
155.49051,1.04080
155.24944,1.01803
155.00837,0.99539
154.76730,0.97636
154.52623,0.96199
154.28516,0.95165
154.04409,0.94328
153.80302,0.93253
153.56194,0.91461
153.32087,0.88919
153.07980,0.86167
152.83873,0.83726
152.59766,0.81638
152.35659,0.79677
152.11552,0.77676
151.87445,0.75595
151.63338,0.73472
151.39231,0.71409
151.15124,0.69580
150.91017,0.68120
150.66910,0.66906
150.42803,0.65538
150.18696,0.63777
149.94589,0.61924
149.70482,0.60458
149.46375,0.59488
149.22267,0.58726
148.98160,0.57874
148.74053,0.56893
148.49946,0.55937
148.25839,0.55169
148.01732,0.54635
147.77625,0.54244
147.53518,0.53857
147.29411,0.53458
147.05304,0.53184
146.81197,0.53141
146.57090,0.53317
146.32983,0.53656
146.08876,0.54092
145.84769,0.54520
145.60662,0.54899
145.36555,0.55351
145.12448,0.56028
144.88340,0.56885
144.64233,0.57699
144.40126,0.58306
144.16019,0.58741
143.91912,0.59119
143.67805,0.59389
143.43698,0.59336
143.19591,0.58883
142.95484,0.58190
142.71377,0.57377
142.47270,0.56368
142.23163,0.55133
141.99056,0.53856
141.74949,0.52763
141.50842,0.51921
141.26735,0.51254
141.02628,0.50672
140.78521,0.50178
140.54413,0.49845
140.30306,0.49722
140.06199,0.49788
139.82092,0.50007
139.57985,0.50385
139.33878,0.50908
139.09771,0.51449
138.85664,0.51907
138.61557,0.52423
138.37450,0.53243
138.13343,0.54374
137.89236,0.55651
137.65129,0.57085
137.41022,0.58826
137.16915,0.60850
136.92808,0.62973
136.68701,0.65139
136.44594,0.67453
136.20486,0.69995
135.96379,0.72783
135.72272,0.75837
135.48165,0.79132
135.24058,0.82553
134.99951,0.86017
134.75844,0.89591
134.51737,0.93468
134.27630,0.97836
134.03523,1.02576
133.79416,1.07063
133.55309,1.10713
133.31202,1.13818
133.07095,1.17075
132.82988,1.20333
132.58881,1.22743
132.34774,1.24023
132.10667,1.24554
131.86559,1.24584
131.62452,1.23976
131.38345,1.22425
131.14238,1.19884
130.90131,1.16772
130.66024,1.13597
130.41917,1.10449
130.17810,1.07023
129.93703,1.03025
129.69596,0.98425
129.45489,0.93453
129.21382,0.88503
128.97275,0.83937
128.73168,0.79917
128.49061,0.76390
128.24954,0.73206
128.00847,0.70257
127.76740,0.67496
127.52632,0.64880
127.28525,0.62366
127.04418,0.59948
126.80311,0.57654
126.56204,0.55500
126.32097,0.53466
126.07990,0.51545
125.83883,0.49814
125.59776,0.48389
125.35669,0.47311
125.11562,0.46495
124.87455,0.45752
124.63348,0.44889
124.39241,0.43874
124.15134,0.42871
123.91027,0.42069
123.66920,0.41515
123.42812,0.41164
123.18705,0.40976
122.94598,0.40893
122.70491,0.40850
122.46384,0.40860
122.22277,0.40979
121.98170,0.41186
121.74063,0.41385
121.49956,0.41577
121.25849,0.41913
121.01742,0.42530
120.77635,0.43447
120.53528,0.44638
120.29421,0.46093
120.05314,0.47724
119.81207,0.49368
119.57100,0.51026
119.32993,0.52934
119.08885,0.55338
118.84778,0.58254
118.60671,0.61476
118.36564,0.64767
118.12457,0.68053
117.88350,0.71331
117.64243,0.74352
117.40136,0.76703
117.16029,0.78335
116.91922,0.79574
116.67815,0.80485
116.43708,0.80688
116.19601,0.79918
115.95494,0.78438
115.71387,0.76764
115.47280,0.75199
115.23173,0.73703
114.99066,0.72156
114.74958,0.70627
114.50851,0.69261
114.26744,0.68006
114.02637,0.66687
113.78530,0.65368
113.54423,0.64417
113.30316,0.64194
113.06209,0.64762
112.82102,0.65889
112.57995,0.67246
112.33888,0.68584
112.09781,0.69859
111.85674,0.71224
111.61567,0.72772
111.37460,0.74285
111.13353,0.75305
110.89246,0.75500
110.65139,0.74920
110.41031,0.73950
110.16924,0.73030
109.92817,0.72290
109.68710,0.71486
109.44603,0.70360
109.20496,0.68835
108.96389,0.66841
108.72282,0.64348
108.48175,0.61556
108.24068,0.58769
107.99961,0.56106
107.75854,0.53544
107.51747,0.51123
107.27640,0.48973
107.03533,0.47194
106.79426,0.45796
106.55319,0.44662
106.31212,0.43553
106.07104,0.42235
105.82997,0.40650
105.58890,0.38953
105.34783,0.37408
105.10676,0.36212
104.86569,0.35409
104.62462,0.34920
104.38355,0.34570
104.14248,0.34118
103.90141,0.33375
103.66034,0.32358
103.41927,0.31238
103.17820,0.30178
102.93713,0.29338
102.69606,0.28887
102.45499,0.28843
102.21392,0.28939
101.97285,0.28778
101.73177,0.28166
101.49070,0.27284
101.24963,0.26544
101.00856,0.26278
100.76749,0.26470
100.52642,0.26704
100.28535,0.26495
100.04428,0.25786
99.80321,0.25033
99.56214,0.24713
99.32107,0.24870
99.08000,0.25089
98.83893,0.24921
98.59786,0.24325
98.35679,0.23653
98.11572,0.23305
97.87465,0.23489
97.63358,0.24077
97.39250,0.24628
97.15143,0.24853
96.91036,0.25050
96.66929,0.25745
96.42822,0.26938
96.18715,0.27990
95.94608,0.28398
95.70501,0.28476
95.46394,0.28938
95.22287,0.30009
94.98180,0.31186
94.74073,0.31860
94.49966,0.32081
94.25859,0.32376
94.01752,0.32928
93.77645,0.33259
93.53538,0.32947
93.29431,0.32431
93.05323,0.32467
92.81216,0.33036
92.57109,0.33387
92.33002,0.33228
92.08895,0.33127
91.84788,0.33474
91.60681,0.34031
91.36574,0.34687
91.12467,0.35889
90.88360,0.37905
90.64253,0.40433
90.40146,0.43371
90.16039,0.47183
89.91932,0.52000
89.67825,0.57170
89.43718,0.62172
89.19611,0.66990
88.95504,0.71332
88.71396,0.74544
88.47289,0.75971
88.23182,0.74860
87.99075,0.71000
87.74968,0.65327
87.50861,0.59080
87.26754,0.53149
87.02647,0.48107
86.78540,0.44088
86.54433,0.40799
86.30326,0.37958
86.06219,0.35459
85.82112,0.33184
85.58005,0.31026
85.33898,0.29019
85.09791,0.27246
84.85684,0.25736
84.61577,0.24491
84.37469,0.23444
84.13362,0.22450
83.89255,0.21449
83.65148,0.20556
83.41041,0.19886
83.16934,0.19372
82.92827,0.18877
82.68720,0.18415
82.44613,0.18086
82.20506,0.17853
81.96399,0.17568
81.72292,0.17227
81.48185,0.16999
81.24078,0.16976
80.99971,0.17023
80.75864,0.16952
80.51757,0.16765
80.27650,0.16606
80.03542,0.16525
79.79435,0.16440
79.55328,0.16308
79.31221,0.16195
79.07114,0.16156
78.83007,0.16168
78.58900,0.16165
78.34793,0.16072
78.10686,0.15844
77.86579,0.15509
77.62472,0.15152
77.38365,0.14855
77.14258,0.14665
76.90151,0.14587
76.66044,0.14600
76.41937,0.14640
76.17830,0.14610
75.93723,0.14464
75.69615,0.14277
75.45508,0.14137
75.21401,0.14017
74.97294,0.13857
74.73187,0.13702
74.49080,0.13647
74.24973,0.13710
74.00866,0.13835
73.76759,0.13992
73.52652,0.14203
73.28545,0.14467
73.04438,0.14701
72.80331,0.14803
72.56224,0.14759
72.32117,0.14669
72.08010,0.14656
71.83903,0.14773
71.59796,0.14997
71.35688,0.15246
71.11581,0.15432
70.87474,0.15589
70.63367,0.15937
70.39260,0.16764
70.15153,0.18230
69.91046,0.20277
69.66939,0.22665
69.42832,0.24982
69.18725,0.26661
68.94618,0.27159
68.70511,0.26283
68.46404,0.24370
68.22297,0.22054
67.98190,0.19861
67.74083,0.18010
67.49976,0.16536
67.25869,0.15477
67.01761,0.14878
66.77654,0.14621
66.53547,0.14406
66.29440,0.14026
66.05333,0.13605
65.81226,0.13455
65.57119,0.13695
65.33012,0.14156
65.08905,0.14648
64.84798,0.15202
64.60691,0.15956
64.36584,0.16871
64.12477,0.17642
63.88370,0.17914
63.64263,0.17600
63.40156,0.16921
63.16049,0.16163
62.91942,0.15498
62.67834,0.15023
62.43727,0.14762
62.19620,0.14623
61.95513,0.14499
61.71406,0.14384
61.47299,0.14293
61.23192,0.14179
60.99085,0.14054
60.74978,0.14058
60.50871,0.14279
60.26764,0.14608
60.02657,0.14851
59.78550,0.14865
59.54443,0.14531
59.30336,0.13825
59.06229,0.12983
58.82122,0.12277
58.58015,0.11635
58.33907,0.10856
58.09800,0.10186
57.85693,0.10187
57.61586,0.11036
57.37479,0.12329
57.13372,0.13612
56.89265,0.14772
56.65158,0.15817
56.41051,0.16534
56.16944,0.16591
55.92837,0.15886
55.68730,0.14651
55.44623,0.13290
55.20516,0.12209
54.96409,0.11650
54.72302,0.11693
54.48195,0.12385
54.24088,0.13774
53.99980,0.15740
53.75873,0.17751
53.51766,0.18900
53.27659,0.18463
53.03552,0.16595
52.79445,0.14245
52.55338,0.12467
52.31231,0.12002
52.07124,0.13141
51.83017,0.15599
51.58910,0.18145
51.34803,0.18600
51.10696,0.16191
50.86589,0.12878
50.62482,0.10685
50.38375,0.10635
50.14268,0.13101
49.90161,0.17163
49.66053,0.19409
49.41946,0.17354
49.17839,0.14005
48.93732,0.12737
48.69625,0.14421
48.45518,0.17407
48.21411,0.17837
47.97304,0.14902
47.73197,0.12521
47.49090,0.13272
47.24983,0.15857
47.00876,0.15815
46.76769,0.12607
46.52662,0.10872
46.28555,0.12303
46.04448,0.14010
45.80341,0.13000
45.56234,0.11604
45.32126,0.12379
45.08019,0.14008
44.83912,0.14410
44.59805,0.14558
44.35698,0.15379
44.11591,0.15739
43.87484,0.15367
43.63377,0.15345
43.39270,0.15630
43.15163,0.15527
42.91056,0.15204
42.66949,0.15126
42.42842,0.15533
42.18735,0.16460
41.94628,0.17321
41.70521,0.17445
41.46414,0.17054
41.22307,0.16627
40.98199,0.16238
40.74092,0.15990
40.49985,0.16027
40.25878,0.16208
40.01771,0.16540
39.77664,0.17214
39.53557,0.18008
39.29450,0.18560
39.05343,0.18874
38.81236,0.19100
38.57129,0.19408
38.33022,0.20036
38.08915,0.21138
37.84808,0.22581
37.60701,0.23915
37.36594,0.24610
37.12487,0.24447
36.88380,0.23532
36.64272,0.22064
36.40165,0.20312
36.16058,0.18676
35.91951,0.17676
35.67844,0.17732
35.43737,0.18554
35.19630,0.19013
34.95523,0.18415
34.71416,0.17345
34.47309,0.16649
34.23202,0.16514
33.99095,0.16718
33.74988,0.16991
33.50881,0.17086
33.26774,0.16745
33.02667,0.16071
32.78560,0.16012
32.54453,0.17391
32.30345,0.19204
32.06238,0.19598
31.82131,0.18331
31.58024,0.16603
31.33917,0.15054
31.09810,0.13040
30.85703,0.09975
30.61596,0.06652
30.37489,0.04409
30.13382,0.03614
29.89275,0.03730
29.65168,0.03907
29.41061,0.03123
29.16954,0.00803
28.92847,-0.02425
28.68740,-0.05217
28.44633,-0.06696
28.20526,-0.07040
27.96418,-0.07169
27.72311,-0.07830
27.48204,-0.08845
27.24097,-0.09429
26.99990,-0.09347
26.75883,-0.09282
26.51776,-0.09983
26.27669,-0.11490
26.03562,-0.13286
25.79455,-0.14890
25.55348,-0.15973
25.31241,-0.16269
25.07134,-0.16007
24.83027,-0.16271
24.58920,-0.17943
24.34813,-0.20578
24.10706,-0.22607
23.86599,-0.22861
23.62491,-0.22205
23.38384,-0.22295
23.14277,-0.23037
22.90170,-0.23212
22.66063,-0.23007
22.41956,-0.23771
22.17849,-0.25892
21.93742,-0.28768
21.69635,-0.31710
21.45528,-0.33366
21.21421,-0.32383
20.97314,-0.29963
20.73207,-0.29086
20.49100,-0.31114
20.24993,-0.34463
20.00886,-0.36566
19.76779,-0.36797
19.52672,-0.36454
19.28564,-0.35988
19.04457,-0.34487
18.80350,-0.31817
18.56243,-0.29237
18.32136,-0.28071
18.08029,-0.28683
17.83922,-0.30594
17.59815,-0.33082
17.35708,-0.35423
17.11601,-0.36952
16.87494,-0.37556
16.63387,-0.37776
16.39280,-0.38028
16.15173,-0.38161
15.91066,-0.38642
15.66959,-0.39871
15.42852,-0.41080
15.18745,-0.41719
14.94637,-0.41988
14.70530,-0.41751
14.46423,-0.41400
14.22316,-0.41195
13.98209,-0.40576
13.74102,-0.39775
13.49995,-0.39767
13.25888,-0.39756
13.01781,-0.39498
12.77674,-0.39244
12.53567,-0.38978
12.29460,-0.38540
12.05353,-0.38180
11.81246,-0.38303
11.57139,-0.38490
11.33032,-0.38219
11.08925,-0.36643
10.84818,-0.34551
10.60710,-0.34883
10.36603,-0.37409
10.12496,-0.39965
9.88389,-0.40836
9.64282,-0.40213
9.40175,-0.39028
9.16068,-0.37575
8.91961,-0.36275
8.67854,-0.35205
8.43747,-0.34086
8.19640,-0.33504
7.95533,-0.34474
7.71426,-0.36710
7.47319,-0.38818
7.23212,-0.38966
6.99105,-0.36965
6.74998,-0.34698
6.50891,-0.33290
6.26783,-0.32596
6.02676,-0.32599
5.78569,-0.33647
5.54462,-0.35474
5.30355,-0.36789
5.06248,-0.36068
4.82141,-0.34535
4.58034,-0.34718
4.33927,-0.36730
4.09820,-0.38953
3.85713,-0.40293
3.61606,-0.40906
3.37499,-0.39921
3.13392,-0.37265
2.89285,-0.35231
2.65178,-0.34412
2.41071,-0.34242
2.16964,-0.34396
1.92856,-0.35220
1.68749,-0.36521
1.44642,-0.38618
1.20535,-0.37973
0.96428,-0.34932
0.72321,-0.32577
0.48214,-0.31130
0.24107,-0.29463
-0.00000,-0.24259
