399.69498,1.48270
399.45391,1.46872
399.21284,1.45536
398.97177,1.44922
398.73070,1.45366
398.48963,1.46503
398.24856,1.47470
398.00749,1.47629
397.76642,1.47154
397.52535,1.46769
397.28428,1.46947
397.04321,1.47348
396.80214,1.47239
396.56107,1.46589
396.32000,1.46181
396.07892,1.46433
395.83785,1.46892
395.59678,1.46894
395.35571,1.46223
395.11464,1.45275
394.87357,1.44605
394.63250,1.44348
394.39143,1.44315
394.15036,1.44471
393.90929,1.44709
393.66822,1.44479
393.42715,1.43604
393.18608,1.42950
392.94501,1.43505
392.70394,1.44981
392.46287,1.45882
392.22180,1.45229
391.98073,1.43675
391.73965,1.42549
391.49858,1.42566
391.25751,1.43383
391.01644,1.43780
390.77537,1.42774
390.53430,1.40795
390.29323,1.39196
390.05216,1.38968
389.81109,1.39980
389.57002,1.41201
389.32895,1.41815
389.08788,1.41865
388.84681,1.41591
388.60574,1.40915
388.36467,1.39732
388.12360,1.38127
387.88253,1.36573
387.64146,1.35990
387.40038,1.36980
387.15931,1.38959
386.91824,1.40497
386.67717,1.40578
386.43610,1.39181
386.19503,1.36933
385.95396,1.34520
385.71289,1.32238
385.47182,1.30187
385.23075,1.28726
384.98968,1.28319
384.74861,1.29016
384.50754,1.30239
384.26647,1.30991
384.02540,1.30324
383.78433,1.28449
383.54326,1.26771
383.30219,1.26011
383.06111,1.25392
382.82004,1.24100
382.57897,1.22652
382.33790,1.21955
382.09683,1.21648
381.85576,1.20423
381.61469,1.18003
381.37362,1.15618
381.13255,1.14441
380.89148,1.14496
380.65041,1.15162
380.40934,1.16305
380.16827,1.18199
379.92720,1.20111
379.68613,1.20481
379.44506,1.19298
379.20399,1.18392
378.96292,1.18964
378.72184,1.20403
378.48077,1.21448
378.23970,1.21663
377.99863,1.21483
377.75756,1.21534
377.51649,1.22303
377.27542,1.23874
377.03435,1.25765
376.79328,1.27337
376.55221,1.28530
376.31114,1.29730
376.07007,1.30984
375.82900,1.31926
375.58793,1.32516
375.34686,1.33124
375.10579,1.33663
374.86472,1.33522
374.62365,1.32551
374.38257,1.31545
374.14150,1.31540
373.90043,1.32771
373.65936,1.34271
373.41829,1.34699
373.17722,1.33901
372.93615,1.33135
372.69508,1.33476
372.45401,1.34579
372.21294,1.35306
371.97187,1.35276
371.73080,1.35036
371.48973,1.34859
371.24866,1.34524
371.00759,1.34067
370.76652,1.33777
370.52545,1.33594
370.28437,1.33190
370.04330,1.32592
369.80223,1.32073
369.56116,1.31776
369.32009,1.31844
369.07902,1.32399
368.83795,1.33164
368.59688,1.33543
368.35581,1.33217
368.11474,1.32393
367.87367,1.31504
367.63260,1.30856
367.39153,1.30575
367.15046,1.30599
366.90939,1.30625
366.66832,1.30298
366.42725,1.29577
366.18618,1.28749
365.94510,1.28118
365.70403,1.27874
365.46296,1.28176
365.22189,1.29001
364.98082,1.29885
364.73975,1.30157
364.49868,1.29569
364.25761,1.28512
364.01654,1.27586
363.77547,1.27050
363.53440,1.26630
363.29333,1.25857
363.05226,1.24693
362.81119,1.23655
362.57012,1.23304
362.32905,1.23795
362.08798,1.24760
361.84691,1.25468
361.60583,1.25388
361.36476,1.24698
361.12369,1.24033
360.88262,1.23806
360.64155,1.23931
360.40048,1.24039
360.15941,1.23862
359.91834,1.23510
359.67727,1.23250
359.43620,1.23125
359.19513,1.23121
358.95406,1.23343
358.71299,1.23657
358.47192,1.23647
358.23085,1.23190
357.98978,1.22648
357.74871,1.22282
357.50764,1.21913
357.26656,1.21363
357.02549,1.20729
356.78442,1.20218
356.54335,1.20065
356.30228,1.20441
356.06121,1.21133
355.82014,1.21517
355.57907,1.21166
355.33800,1.20353
355.09693,1.19734
354.85586,1.19678
354.61479,1.20073
354.37372,1.20501
354.13265,1.20498
353.89158,1.20006
353.65051,1.19518
353.40944,1.19455
353.16837,1.19564
352.92729,1.19405
352.68622,1.19167
352.44515,1.19313
352.20408,1.19855
351.96301,1.20418
351.72194,1.20697
351.48087,1.20667
351.23980,1.20502
350.99873,1.20384
350.75766,1.20395
350.51659,1.20446
350.27552,1.20331
350.03445,1.20058
349.79338,1.19952
349.55231,1.20190
349.31124,1.20468
349.07017,1.20504
348.82910,1.20555
348.58802,1.20934
348.34695,1.21397
348.10588,1.21485
347.86481,1.21214
347.62374,1.21007
347.38267,1.21113
347.14160,1.21350
346.90053,1.21407
346.65946,1.21339
346.41839,1.21551
346.17732,1.22263
345.93625,1.23213
345.69518,1.23901
345.45411,1.23971
345.21304,1.23497
344.97197,1.22938
344.73090,1.22709
344.48983,1.22920
344.24875,1.23439
344.00768,1.23949
343.76661,1.24211
343.52554,1.24389
343.28447,1.24793
343.04340,1.25349
342.80233,1.25746
342.56126,1.25969
342.32019,1.26219
342.07912,1.26495
341.83805,1.26626
341.59698,1.26560
341.35591,1.26399
341.11484,1.26330
340.87377,1.26575
340.63270,1.27364
340.39163,1.28715
340.15056,1.30107
339.90948,1.30829
339.66841,1.30840
339.42734,1.30606
339.18627,1.30378
338.94520,1.30345
338.70413,1.30849
338.46306,1.31912
338.22199,1.32849
337.98092,1.32731
337.73985,1.31416
337.49878,1.29880
337.25771,1.29249
337.01664,1.29626
336.77557,1.30158
336.53450,1.30204
336.29343,1.29988
336.05236,1.30020
335.81129,1.30369
335.57021,1.30668
335.32914,1.30584
335.08807,1.30162
334.84700,1.29792
334.60593,1.29900
334.36486,1.30485
334.12379,1.31043
333.88272,1.31071
333.64165,1.30533
333.40058,1.29696
333.15951,1.28815
332.91844,1.28064
332.67737,1.27497
332.43630,1.27062
332.19523,1.26641
331.95416,1.26108
331.71309,1.25361
331.47202,1.24534
331.23094,1.24103
330.98987,1.24362
330.74880,1.24771
330.50773,1.24398
330.26666,1.23195
330.02559,1.22060
329.78452,1.21550
329.54345,1.21307
329.30238,1.20799
329.06131,1.20152
328.82024,1.19881
328.57917,1.20154
328.33810,1.20625
328.09703,1.20789
327.85596,1.20420
327.61489,1.19785
327.37382,1.19382
327.13275,1.19518
326.89167,1.20050
326.65060,1.20427
326.40953,1.20158
326.16846,1.19511
325.92739,1.19335
325.68632,1.20034
325.44525,1.21135
325.20418,1.21924
324.96311,1.22242
324.72204,1.22207
324.48097,1.21598
324.23990,1.20323
323.99883,1.19025
323.75776,1.18446
323.51669,1.18574
323.27562,1.19039
323.03455,1.19845
322.79348,1.21010
322.55240,1.21932
322.31133,1.21943
322.07026,1.21087
321.82919,1.19918
321.58812,1.19169
321.34705,1.19358
321.10598,1.20259
320.86491,1.21217
320.62384,1.21981
320.38277,1.22672
320.14170,1.23130
319.90063,1.22850
319.65956,1.21646
319.41849,1.20133
319.17742,1.19273
318.93635,1.19501
318.69528,1.20401
318.45421,1.21281
318.21313,1.21758
317.97206,1.21771
317.73099,1.21670
317.48992,1.22128
317.24885,1.23326
317.00778,1.24192
316.76671,1.23539
316.52564,1.21854
316.28457,1.20399
316.04350,1.19681
315.80243,1.19604
315.56136,1.20117
315.32029,1.21188
315.07922,1.22394
314.83815,1.23142
314.59708,1.23302
314.35601,1.23307
314.11494,1.23737
313.87386,1.24633
313.63279,1.25144
313.39172,1.24596
313.15065,1.23740
312.90958,1.23840
312.66851,1.24911
312.42744,1.25876
312.18637,1.26205
311.94530,1.26367
311.70423,1.26669
311.46316,1.26814
311.22209,1.26727
310.98102,1.26915
310.73995,1.27651
310.49888,1.28412
310.25781,1.28602
310.01674,1.28349
309.77567,1.28173
309.53459,1.28330
309.29352,1.28641
309.05245,1.28799
308.81138,1.28823
308.57031,1.29112
308.32924,1.29752
308.08817,1.30282
307.84710,1.30443
307.60603,1.30450
307.36496,1.30549
307.12389,1.30680
306.88282,1.30834
306.64175,1.31115
306.40068,1.31188
306.15961,1.30503
305.91854,1.29234
305.67747,1.28246
305.43640,1.28002
305.19532,1.28140
304.95425,1.28281
304.71318,1.28560
304.47211,1.29050
304.23104,1.29406
303.98997,1.29387
303.74890,1.29039
303.50783,1.28377
303.26676,1.27615
303.02569,1.27325
302.78462,1.27647
302.54355,1.27889
302.30248,1.27506
302.06141,1.26855
301.82034,1.26530
301.57927,1.26558
301.33820,1.26589
301.09713,1.26553
300.85605,1.26688
300.61498,1.26949
300.37391,1.26955
300.13284,1.26689
299.89177,1.26624
299.65070,1.26905
299.40963,1.27040
299.16856,1.26608
298.92749,1.25832
298.68642,1.25276
298.44535,1.25156
298.20428,1.25008
297.96321,1.24207
297.72214,1.22847
297.48107,1.21711
297.24000,1.21359
296.99893,1.21583
296.75786,1.21820
296.51678,1.21850
296.27571,1.21850
296.03464,1.21956
295.79357,1.22121
295.55250,1.22281
295.31143,1.22410
295.07036,1.22394
294.82929,1.22081
294.58822,1.21473
294.34715,1.20721
294.10608,1.19988
293.86501,1.19356
293.62394,1.18851
293.38287,1.18535
293.14180,1.18486
292.90073,1.18622
292.65966,1.18660
292.41859,1.18318
292.17751,1.17562
291.93644,1.16645
291.69537,1.15915
291.45430,1.15544
291.21323,1.15389
290.97216,1.15157
290.73109,1.14828
290.49002,1.14732
290.24895,1.15055
290.00788,1.15555
289.76681,1.15959
289.52574,1.16299
289.28467,1.16600
289.04360,1.16611
288.80253,1.16156
288.56146,1.15475
288.32039,1.14990
288.07932,1.14914
287.83824,1.15124
287.59717,1.15282
287.35610,1.15120
287.11503,1.14663
286.87396,1.14171
286.63289,1.13916
286.39182,1.13933
286.15075,1.13903
285.90968,1.13508
285.66861,1.12929
285.42754,1.12675
285.18647,1.12879
284.94540,1.13106
284.70433,1.12957
284.46326,1.12581
284.22219,1.12425
283.98112,1.12600
283.74005,1.12717
283.49897,1.12455
283.25790,1.12008
283.01683,1.11756
282.77576,1.11830
282.53469,1.12111
282.29362,1.12406
282.05255,1.12525
281.81148,1.12384
281.57041,1.12091
281.32934,1.11832
281.08827,1.11649
280.84720,1.11398
280.60613,1.11008
280.36506,1.10692
280.12399,1.10697
279.88292,1.10910
279.64185,1.10972
279.40078,1.10735
279.15970,1.10410
278.91863,1.10288
278.67756,1.10443
278.43649,1.10724
278.19542,1.10965
277.95435,1.11122
277.71328,1.11179
277.47221,1.11163
277.23114,1.11232
276.99007,1.11458
276.74900,1.11590
276.50793,1.11381
276.26686,1.10983
276.02579,1.10751
275.78472,1.10806
275.54365,1.10956
275.30258,1.11023
275.06151,1.11053
274.82043,1.11150
274.57936,1.11259
274.33829,1.11315
274.09722,1.11425
273.85615,1.11700
273.61508,1.12002
273.37401,1.12114
273.13294,1.12036
272.89187,1.11961
272.65080,1.12059
272.40973,1.12369
272.16866,1.12818
271.92759,1.13312
271.68652,1.13819
271.44545,1.14333
271.20438,1.14760
270.96331,1.14958
270.72224,1.14954
270.48116,1.14997
270.24009,1.15257
269.99902,1.15529
269.75795,1.15471
269.51688,1.15076
269.27581,1.14718
269.03474,1.14739
268.79367,1.15127
268.55260,1.15631
268.31153,1.16159
268.07046,1.16871
267.82939,1.17777
267.58832,1.18500
267.34725,1.18706
267.10618,1.18587
266.86511,1.18649
266.62404,1.19117
266.38297,1.19784
266.14189,1.20394
265.90082,1.21001
265.65975,1.21837
265.41868,1.22870
265.17761,1.23743
264.93654,1.24198
264.69547,1.24483
264.45440,1.25090
264.21333,1.26129
263.97226,1.27227
263.73119,1.28148
263.49012,1.29099
263.24905,1.30201
263.00798,1.31141
262.76691,1.31718
262.52584,1.32238
262.28477,1.32993
262.04370,1.33759
261.80262,1.34190
261.56155,1.34495
261.32048,1.35300
261.07941,1.36986
260.83834,1.39342
260.59727,1.41733
260.35620,1.43591
260.11513,1.44971
259.87406,1.46542
259.63299,1.48949
259.39192,1.52296
259.15085,1.55859
258.90978,1.58605
258.66871,1.60459
258.42764,1.62269
258.18657,1.64334
257.94550,1.66031
257.70443,1.66835
257.46335,1.67125
257.22228,1.67836
256.98121,1.69403
256.74014,1.71511
256.49907,1.73511
256.25800,1.74833
256.01693,1.75493
255.77586,1.75702
255.53479,1.74714
255.29372,1.71924
255.05265,1.68588
254.81158,1.66182
254.57051,1.64840
254.32944,1.63838
254.08837,1.63043
253.84730,1.63028
253.60623,1.63622
253.36516,1.63929
253.12408,1.63566
252.88301,1.62655
252.64194,1.61243
252.40087,1.59593
252.15980,1.58028
251.91873,1.56251
251.67766,1.53899
251.43659,1.51601
251.19552,1.50300
250.95445,1.50112
250.71338,1.50542
250.47231,1.51221
250.23124,1.52000
249.99017,1.52761
249.74910,1.53429
249.50803,1.53982
249.26696,1.54370
249.02589,1.54444
248.78481,1.54159
248.54374,1.53795
248.30267,1.53645
248.06160,1.53487
247.82053,1.53049
247.57946,1.52812
247.33839,1.53544
247.09732,1.55333
246.85625,1.57523
246.61518,1.59233
246.37411,1.59678
246.13304,1.58985
245.89197,1.58523
245.65090,1.59645
245.40983,1.62405
245.16876,1.65641
244.92769,1.68534
244.68661,1.71326
244.44554,1.74528
244.20447,1.78381
243.96340,1.82294
243.72233,1.85024
243.48126,1.86905
243.24019,1.89827
242.99912,1.93321
242.75805,1.92818
242.51698,1.87057
242.27591,1.81221
242.03484,1.76547
241.79377,1.71480
241.55270,1.65454
241.31163,1.58958
241.07056,1.52488
240.82949,1.46703
240.58842,1.42161
240.34734,1.38817
240.10627,1.36072
239.86520,1.33224
239.62413,1.30075
239.38306,1.27159
239.14199,1.25050
238.90092,1.23539
238.65985,1.21848
238.41878,1.19671
238.17771,1.17537
237.93664,1.15962
237.69557,1.14722
237.45450,1.13211
237.21343,1.11289
236.97236,1.09418
236.73129,1.07948
236.49022,1.06667
236.24915,1.05301
236.00807,1.04077
235.76700,1.03337
235.52593,1.02971
235.28486,1.02606
235.04379,1.02093
234.80272,1.01438
234.56165,1.00568
234.32058,0.99475
234.07951,0.98354
233.83844,0.97466
233.59737,0.96924
233.35630,0.96560
233.11523,0.96063
232.87416,0.95402
232.63309,0.94889
232.39202,0.94659
232.15095,0.94459
231.90988,0.94145
231.66880,0.93944
231.42773,0.93969
231.18666,0.93871
230.94559,0.93274
230.70452,0.92273
230.46345,0.91290
230.22238,0.90656
229.98131,0.90442
229.74024,0.90511
229.49917,0.90600
229.25810,0.90484
229.01703,0.90113
228.77596,0.89533
228.53489,0.88817
228.29382,0.88102
228.05275,0.87489
227.81168,0.86872
227.57061,0.86130
227.32953,0.85457
227.08846,0.85145
226.84739,0.85176
226.60632,0.85304
226.36525,0.85348
226.12418,0.85175
225.88311,0.84703
225.64204,0.84170
225.40097,0.84002
225.15990,0.84269
224.91883,0.84584
224.67776,0.84664
224.43669,0.84658
224.19562,0.84785
223.95455,0.84984
223.71348,0.85075
223.47241,0.85046
223.23134,0.85037
222.99026,0.85157
222.74919,0.85364
222.50812,0.85505
222.26705,0.85513
222.02598,0.85581
221.78491,0.85973
221.54384,0.86663
221.30277,0.87350
221.06170,0.87872
220.82063,0.88304
220.57956,0.88701
220.33849,0.89095
220.09742,0.89634
219.85635,0.90401
219.61528,0.91224
219.37421,0.91867
219.13314,0.92302
218.89207,0.92721
218.65099,0.93414
218.40992,0.94530
218.16885,0.95831
217.92778,0.96928
217.68671,0.97779
217.44564,0.98669
217.20457,0.99756
216.96350,1.00857
216.72243,1.01680
216.48136,1.02197
216.24029,1.02726
215.99922,1.03566
215.75815,1.04701
215.51708,1.05972
215.27601,1.07236
215.03494,1.08325
214.79387,1.09223
214.55280,1.10193
214.31172,1.11394
214.07065,1.12693
213.82958,1.13960
213.58851,1.15167
213.34744,1.16137
213.10637,1.16630
212.86530,1.16779
212.62423,1.17080
212.38316,1.17866
212.14209,1.18950
211.90102,1.19879
211.65995,1.20417
211.41888,1.20597
211.17781,1.20523
210.93674,1.20363
210.69567,1.20218
210.45460,1.20006
210.21353,1.19729
209.97245,1.19667
209.73138,1.20041
209.49031,1.20558
209.24924,1.20587
209.00817,1.19911
208.76710,1.19009
208.52603,1.18507
208.28496,1.18621
208.04389,1.19137
207.80282,1.19673
207.56175,1.19832
207.32068,1.19375
207.07961,1.18430
206.83854,1.17387
206.59747,1.16483
206.35640,1.15608
206.11533,1.14512
205.87426,1.13150
205.63318,1.11796
205.39211,1.10818
205.15104,1.10295
204.90997,1.09891
204.66890,1.09168
204.42783,1.08009
204.18676,1.06659
203.94569,1.05413
203.70462,1.04454
203.46355,1.03904
203.22248,1.03718
202.98141,1.03420
202.74034,1.02315
202.49927,1.00298
202.25820,0.98110
202.01713,0.96538
201.77606,0.95698
201.53499,0.95092
201.29391,0.94172
201.05284,0.92886
200.81177,0.91603
200.57070,0.90568
200.32963,0.89611
200.08856,0.88432
199.84749,0.87018
199.60642,0.85656
199.36535,0.84596
199.12428,0.83823
198.88321,0.83102
198.64214,0.82203
198.40107,0.81092
198.16000,0.79928
197.91893,0.78883
197.67786,0.78040
197.43679,0.77412
197.19572,0.76905
196.95464,0.76291
196.71357,0.75421
196.47250,0.74458
196.23143,0.73684
195.99036,0.73107
195.74929,0.72469
195.50822,0.71655
195.26715,0.70864
195.02608,0.70289
194.78501,0.69819
194.54394,0.69190
194.30287,0.68355
194.06180,0.67547
193.82073,0.66980
193.57966,0.66607
193.33859,0.66193
193.09752,0.65608
192.85645,0.64999
192.61537,0.64587
192.37430,0.64332
192.13323,0.63946
191.89216,0.63286
191.65109,0.62585
191.41002,0.62177
191.16895,0.62098
190.92788,0.62077
190.68681,0.61839
190.44574,0.61385
190.20467,0.60911
189.96360,0.60525
189.72253,0.60151
189.48146,0.59733
189.24039,0.59396
188.99932,0.59251
188.75825,0.59146
188.51718,0.58842
188.27610,0.58392
188.03503,0.58099
187.79396,0.58072
187.55289,0.58094
187.31182,0.57962
187.07075,0.57725
186.82968,0.57488
186.58861,0.57223
186.34754,0.56916
186.10647,0.56694
185.86540,0.56640
185.62433,0.56634
185.38326,0.56532
185.14219,0.56390
184.90112,0.56350
184.66005,0.56418
184.41898,0.56498
184.17791,0.56551
183.93683,0.56602
183.69576,0.56634
183.45469,0.56611
183.21362,0.56603
182.97255,0.56725
182.73148,0.56945
182.49041,0.57094
182.24934,0.57082
182.00827,0.56974
181.76720,0.56873
181.52613,0.56844
181.28506,0.56892
181.04399,0.56947
180.80292,0.56947
180.56185,0.56962
180.32078,0.57097
180.07971,0.57325
179.83864,0.57541
179.59756,0.57740
179.35649,0.57994
179.11542,0.58325
178.87435,0.58715
178.63328,0.59183
178.39221,0.59780
178.15114,0.60542
177.91007,0.61462
177.66900,0.62456
177.42793,0.63416
177.18686,0.64376
176.94579,0.65468
176.70472,0.66670
176.46365,0.67816
176.22258,0.68871
175.98151,0.69948
175.74044,0.71105
175.49937,0.72357
175.25829,0.73786
175.01722,0.75428
174.77615,0.77178
174.53508,0.78921
174.29401,0.80579
174.05294,0.82096
173.81187,0.83521
173.57080,0.84993
173.32973,0.86564
173.08866,0.88124
172.84759,0.89502
172.60652,0.90562
172.36545,0.91239
172.12438,0.91536
171.88331,0.91507
171.64224,0.91272
171.40117,0.90996
171.16010,0.90803
170.91902,0.90697
170.67795,0.90537
170.43688,0.90077
170.19581,0.89263
169.95474,0.88412
169.71367,0.87821
169.47260,0.87336
169.23153,0.86658
168.99046,0.85897
168.74939,0.85443
168.50832,0.85396
168.26725,0.85442
168.02618,0.85282
167.78511,0.84946
167.54404,0.84649
167.30297,0.84511
167.06190,0.84515
166.82083,0.84574
166.57975,0.84578
166.33868,0.84526
166.09761,0.84628
165.85654,0.85082
165.61547,0.85776
165.37440,0.86352
165.13333,0.86615
164.89226,0.86762
164.65119,0.87145
164.41012,0.87934
164.16905,0.89054
163.92798,0.90387
163.68691,0.91892
163.44584,0.93452
163.20477,0.94753
162.96370,0.95492
162.72263,0.95715
162.48156,0.95830
162.24048,0.96242
161.99941,0.96991
161.75834,0.97803
161.51727,0.98450
161.27620,0.98952
161.03513,0.99403
160.79406,0.99731
160.55299,0.99715
160.31192,0.99288
160.07085,0.98721
159.82978,0.98330
159.58871,0.98059
159.34764,0.97582
159.10657,0.96811
158.86550,0.96016
158.62443,0.95462
158.38336,0.95216
158.14229,0.95239
157.90121,0.95401
157.66014,0.95430
157.41907,0.95035
157.17800,0.94175
156.93693,0.93187
156.69586,0.92568
156.45479,0.92536
156.21372,0.92828
155.97265,0.92935
155.73158,0.92499
155.49051,0.91542
155.24944,0.90385
155.00837,0.89368
154.76730,0.88660
154.52623,0.88224
154.28516,0.87873
154.04409,0.87342
153.80302,0.86376
153.56194,0.84891
153.32087,0.83128
153.07980,0.81536
152.83873,0.80339
152.59766,0.79279
152.35659,0.77970
152.11552,0.76465
151.87445,0.75174
151.63338,0.74281
151.39231,0.73531
151.15124,0.72569
150.91017,0.71289
150.66910,0.69796
150.42803,0.68252
150.18696,0.66822
149.94589,0.65629
149.70482,0.64663
149.46375,0.63777
149.22267,0.62802
148.98160,0.61725
148.74053,0.60721
148.49946,0.59942
148.25839,0.59306
148.01732,0.58600
147.77625,0.57798
147.53518,0.57143
147.29411,0.56850
147.05304,0.56822
146.81197,0.56778
146.57090,0.56608
146.32983,0.56485
146.08876,0.56600
145.84769,0.56945
145.60662,0.57376
145.36555,0.57814
145.12448,0.58299
144.88340,0.58846
144.64233,0.59338
144.40126,0.59621
144.16019,0.59692
143.91912,0.59711
143.67805,0.59792
143.43698,0.59817
143.19591,0.59525
142.95484,0.58820
142.71377,0.57911
142.47270,0.57060
142.23163,0.56261
141.99056,0.55313
141.74949,0.54205
141.50842,0.53203
141.26735,0.52498
141.02628,0.51997
140.78521,0.51552
140.54413,0.51178
140.30306,0.50928
140.06199,0.50760
139.82092,0.50639
139.57985,0.50634
139.33878,0.50826
139.09771,0.51183
138.85664,0.51598
138.61557,0.52032
138.37450,0.52547
138.13343,0.53181
137.89236,0.53908
137.65129,0.54734
137.41022,0.55732
137.16915,0.56953
136.92808,0.58374
136.68701,0.59925
136.44594,0.61551
136.20486,0.63267
135.96379,0.65158
135.72272,0.67278
135.48165,0.69591
135.24058,0.72023
134.99951,0.74507
134.75844,0.76967
134.51737,0.79353
134.27630,0.81725
134.03523,0.84206
133.79416,0.86807
133.55309,0.89378
133.31202,0.91762
133.07095,0.93889
132.82988,0.95653
132.58881,0.96934
132.34774,0.97767
132.10667,0.98261
131.86559,0.98380
131.62452,0.98052
131.38345,0.97433
131.14238,0.96802
130.90131,0.96229
130.66024,0.95408
130.41917,0.93861
130.17810,0.91472
129.93703,0.88693
129.69596,0.86086
129.45489,0.83811
129.21382,0.81669
128.97275,0.79468
128.73168,0.77216
128.49061,0.75040
128.24954,0.73026
128.00847,0.71149
127.76740,0.69323
127.52632,0.67486
127.28525,0.65665
127.04418,0.63933
126.80311,0.62309
126.56204,0.60727
126.32097,0.59148
126.07990,0.57649
125.83883,0.56337
125.59776,0.55216
125.35669,0.54204
125.11562,0.53256
124.87455,0.52354
124.63348,0.51425
124.39241,0.50394
124.15134,0.49316
123.91027,0.48344
123.66920,0.47580
123.42812,0.47019
123.18705,0.46611
122.94598,0.46300
122.70491,0.46056
122.46384,0.45885
122.22277,0.45773
121.98170,0.45645
121.74063,0.45451
121.49956,0.45241
121.25849,0.45105
121.01742,0.45123
120.77635,0.45391
120.53528,0.45977
120.29421,0.46839
120.05314,0.47897
119.81207,0.49167
119.57100,0.50724
119.32993,0.52544
119.08885,0.54525
118.84778,0.56641
118.60671,0.59030
118.36564,0.61834
118.12457,0.64890
117.88350,0.67631
117.64243,0.69560
117.40136,0.70779
117.16029,0.71740
116.91922,0.72630
116.67815,0.73387
116.43708,0.74057
116.19601,0.74673
115.95494,0.74998
115.71387,0.74725
115.47280,0.73810
115.23173,0.72424
114.99066,0.70826
114.74958,0.69335
114.50851,0.68150
114.26744,0.67245
114.02637,0.66571
113.78530,0.66252
113.54423,0.66392
113.30316,0.66835
113.06209,0.67264
112.82102,0.67524
112.57995,0.67719
112.33888,0.67969
112.09781,0.68249
111.85674,0.68496
111.61567,0.68818
111.37460,0.69536
111.13353,0.70910
110.89246,0.72732
110.65139,0.74313
110.41031,0.75003
110.16924,0.74632
109.92817,0.73461
109.68710,0.71924
109.44603,0.70389
109.20496,0.69010
108.96389,0.67798
108.72282,0.66745
108.48175,0.65725
108.24068,0.64404
107.99961,0.62502
107.75854,0.60158
107.51747,0.57842
107.27640,0.55909
107.03533,0.54398
106.79426,0.53184
106.55319,0.52107
106.31212,0.50948
106.07104,0.49515
105.82997,0.47832
105.58890,0.46159
105.34783,0.44787
105.10676,0.43842
104.86569,0.43232
104.62462,0.42717
104.38355,0.42046
104.14248,0.41063
103.90141,0.39804
103.66034,0.38556
103.41927,0.37684
103.17820,0.37289
102.93713,0.37056
102.69606,0.36553
102.45499,0.35691
102.21392,0.34787
101.97285,0.34211
101.73177,0.34014
101.49070,0.33900
101.24963,0.33548
101.00856,0.32933
100.76749,0.32269
100.52642,0.31738
100.28535,0.31346
100.04428,0.30953
99.80321,0.30430
99.56214,0.29825
99.32107,0.29315
99.08000,0.28981
98.83893,0.28772
98.59786,0.28603
98.35679,0.28373
98.11572,0.28019
97.87465,0.27648
97.63358,0.27476
97.39250,0.27562
97.15143,0.27678
96.91036,0.27592
96.66929,0.27437
96.42822,0.27645
96.18715,0.28408
95.94608,0.29345
95.70501,0.29945
95.46394,0.30338
95.22287,0.31074
94.98180,0.32198
94.74073,0.33089
94.49966,0.33335
94.25859,0.33301
94.01752,0.33492
93.77645,0.33791
93.53538,0.33745
93.29431,0.33433
93.05323,0.33396
92.81216,0.33715
92.57109,0.33881
92.33002,0.33675
92.08895,0.33501
91.84788,0.33659
91.60681,0.33986
91.36574,0.34392
91.12467,0.35120
90.88360,0.36348
90.64253,0.38036
90.40146,0.40267
90.16039,0.43260
89.91932,0.46924
89.67825,0.50953
89.43718,0.55231
89.19611,0.59472
88.95504,0.62920
88.71396,0.65205
88.47289,0.66519
88.23182,0.66521
87.99075,0.64766
87.74968,0.61867
87.50861,0.58697
87.26754,0.55486
87.02647,0.52346
86.78540,0.49531
86.54433,0.47032
86.30326,0.44674
86.06219,0.42460
85.82112,0.40434
85.58005,0.38536
85.33898,0.36718
85.09791,0.34974
84.85684,0.33301
84.61577,0.31767
84.37469,0.30487
84.13362,0.29473
83.89255,0.28614
83.65148,0.27800
83.41041,0.27031
83.16934,0.26376
82.92827,0.25834
82.68720,0.25334
82.44613,0.24866
82.20506,0.24493
81.96399,0.24236
81.72292,0.24073
81.48185,0.24011
81.24078,0.24014
80.99971,0.23972
80.75864,0.23819
80.51757,0.23595
80.27650,0.23342
80.03542,0.23050
79.79435,0.22729
79.55328,0.22451
79.31221,0.22265
79.07114,0.22135
78.83007,0.22000
78.58900,0.21821
78.34793,0.21576
78.10686,0.21271
77.86579,0.20954
77.62472,0.20643
77.38365,0.20285
77.14258,0.19842
76.90151,0.19390
76.66044,0.19056
76.41937,0.18898
76.17830,0.18841
75.93723,0.18740
75.69615,0.18513
75.45508,0.18232
75.21401,0.18037
74.97294,0.17971
74.73187,0.17946
74.49080,0.17870
74.24973,0.17784
74.00866,0.17806
73.76759,0.17988
73.52652,0.18259
73.28545,0.18496
73.04438,0.18605
72.80331,0.18607
72.56224,0.18650
72.32117,0.18888
72.08010,0.19286
71.83903,0.19613
71.59796,0.19660
71.35688,0.19451
71.11581,0.19202
70.87474,0.19120
70.63367,0.19302
70.39260,0.19842
70.15153,0.20935
69.91046,0.22752
69.66939,0.25189
69.42832,0.27735
69.18725,0.29664
68.94618,0.30386
68.70511,0.29695
68.46404,0.27874
68.22297,0.25595
67.98190,0.23483
67.74083,0.21757
67.49976,0.20360
67.25869,0.19260
67.01761,0.18421
66.77654,0.17672
66.53547,0.16853
66.29440,0.16031
66.05333,0.15425
65.81226,0.15193
65.57119,0.15349
65.33012,0.15834
65.08905,0.16635
64.84798,0.17796
64.60691,0.19270
64.36584,0.20816
64.12477,0.22078
63.88370,0.22752
63.64263,0.22724
63.40156,0.22107
63.16049,0.21164
62.91942,0.20182
62.67834,0.19331
62.43727,0.18575
62.19620,0.17771
61.95513,0.16897
61.71406,0.16093
61.47299,0.15474
61.23192,0.15048
60.99085,0.14842
60.74978,0.15000
60.50871,0.15640
60.26764,0.16664
60.02657,0.17782
59.78550,0.18710
59.54443,0.19245
59.30336,0.19206
59.06229,0.18517
58.82122,0.17365
58.58015,0.16148
58.33907,0.15297
58.09800,0.15135
57.85693,0.15795
57.61586,0.17150
57.37479,0.18783
57.13372,0.20071
56.89265,0.20451
56.65158,0.19679
56.41051,0.17944
56.16944,0.15868
55.92837,0.14218
55.68730,0.13482
55.44623,0.13757
55.20516,0.14903
54.96409,0.16588
54.72302,0.18204
54.48195,0.19009
54.24088,0.18604
53.99980,0.17300
53.75873,0.15917
53.51766,0.15340
53.27659,0.16141
53.03552,0.18241
52.79445,0.20591
52.55338,0.21415
52.31231,0.19942
52.07124,0.17571
51.83017,0.16081
51.58910,0.16222
51.34803,0.17850
51.10696,0.19906
50.86589,0.20509
50.62482,0.19036
50.38375,0.17177
50.14268,0.16723
49.90161,0.18313
49.66053,0.21100
49.41946,0.22467
49.17839,0.20716
48.93732,0.18186
48.69625,0.17792
48.45518,0.19954
48.21411,0.21944
47.97304,0.20659
47.73197,0.18317
47.49090,0.18482
47.24983,0.20837
47.00876,0.21597
46.76769,0.19226
46.52662,0.17397
46.28555,0.17951
46.04448,0.18691
45.80341,0.17521
45.56234,0.16318
45.32126,0.16820
45.08019,0.17732
44.83912,0.17745
44.59805,0.17784
44.35698,0.18212
44.11591,0.18058
43.87484,0.17636
43.63377,0.17910
43.39270,0.18578
43.15163,0.19181
42.91056,0.20033
42.66949,0.20895
42.42842,0.21163
42.18735,0.21188
41.94628,0.21410
41.70521,0.21512
41.46414,0.21382
41.22307,0.21288
40.98199,0.21428
40.74092,0.21982
40.49985,0.22791
40.25878,0.23195
40.01771,0.22889
39.77664,0.22348
39.53557,0.22193
39.29450,0.22783
39.05343,0.24055
38.81236,0.25467
38.57129,0.26449
38.33022,0.26853
38.08915,0.26912
37.84808,0.27165
37.60701,0.28039
37.36594,0.29105
37.12487,0.29515
36.88380,0.29096
36.64272,0.28125
36.40165,0.26845
36.16058,0.25882
35.91951,0.26048
35.67844,0.27083
35.43737,0.27683
35.19630,0.27317
34.95523,0.26665
34.71416,0.25942
34.47309,0.24575
34.23202,0.22587
33.99095,0.20887
33.74988,0.19941
33.50881,0.19469
33.26774,0.19330
33.02667,0.19521
32.78560,0.19498
32.54453,0.18403
32.30345,0.16112
32.06238,0.13671
31.82131,0.12393
31.58024,0.12502
31.33917,0.12947
31.09810,0.12488
30.85703,0.10686
30.61596,0.08113
30.37489,0.05770
30.13382,0.04268
29.89275,0.03745
29.65168,0.04036
29.41061,0.04351
29.16954,0.03454
28.92847,0.00803
28.68740,-0.02706
28.44633,-0.05643
28.20526,-0.07356
27.96418,-0.07938
27.72311,-0.07732
27.48204,-0.07294
27.24097,-0.07155
26.99990,-0.07455
26.75883,-0.08071
26.51776,-0.09145
26.27669,-0.10716
26.03562,-0.12036
25.79455,-0.12596
25.55348,-0.13366
25.31241,-0.15394
25.07134,-0.17773
24.83027,-0.18883
24.58920,-0.18924
24.34813,-0.19101
24.10706,-0.19469
23.86599,-0.19238
23.62491,-0.18400
23.38384,-0.17869
23.14277,-0.18291
22.90170,-0.19391
22.66063,-0.20253
22.41956,-0.19985
22.17849,-0.18693
21.93742,-0.17967
21.69635,-0.19497
21.45528,-0.23352
21.21421,-0.28013
20.97314,-0.31571
20.73207,-0.32854
20.49100,-0.31859
20.24993,-0.29664
20.00886,-0.27488
19.76779,-0.25841
19.52672,-0.25145
19.28564,-0.25886
19.04457,-0.27898
18.80350,-0.30188
18.56243,-0.31788
18.32136,-0.32276
18.08029,-0.31659
17.83922,-0.30503
17.59815,-0.29860
17.35708,-0.30626
17.11601,-0.32482
16.87494,-0.34019
16.63387,-0.34374
16.39280,-0.33693
16.15173,-0.32694
15.91066,-0.32419
15.66959,-0.33452
15.42852,-0.34912
15.18745,-0.35129
14.94637,-0.33788
14.70530,-0.32188
14.46423,-0.31611
14.22316,-0.32227
13.98209,-0.33439
13.74102,-0.34562
13.49995,-0.34898
13.25888,-0.33892
13.01781,-0.31863
12.77674,-0.30065
12.53567,-0.29383
12.29460,-0.29931
12.05353,-0.31840
11.81246,-0.34572
11.57139,-0.36336
11.33032,-0.36602
11.08925,-0.36552
10.84818,-0.36317
10.60710,-0.35786
10.36603,-0.35408
10.12496,-0.35458
9.88389,-0.35996
9.64282,-0.36489
9.40175,-0.36376
9.16068,-0.35900
8.91961,-0.35238
8.67854,-0.34231
8.43747,-0.33272
8.19640,-0.33117
7.95533,-0.33661
7.71426,-0.33994
7.47319,-0.33760
7.23212,-0.33247
6.99105,-0.32915
6.74998,-0.33289
6.50891,-0.34557
6.26783,-0.36361
6.02676,-0.38183
5.78569,-0.39408
5.54462,-0.39805
5.30355,-0.39875
5.06248,-0.39799
4.82141,-0.39277
4.58034,-0.38516
4.33927,-0.37801
4.09820,-0.36895
3.85713,-0.35993
3.61606,-0.35599
3.37499,-0.35453
3.13392,-0.35798
2.89285,-0.37069
2.65178,-0.38161
2.41071,-0.38012
2.16964,-0.37335
1.92856,-0.36457
1.68749,-0.35049
1.44642,-0.33939
1.20535,-0.33781
0.96428,-0.34281
0.72321,-0.36968
0.48214,-0.44839
0.24107,-0.46441
-0.00000,-0.14952
