399.69498,1.49037
399.45391,1.47520
399.21284,1.46766
398.97177,1.46818
398.73070,1.47251
398.48963,1.47619
398.24856,1.47711
398.00749,1.47725
397.76642,1.48096
397.52535,1.48849
397.28428,1.49475
397.04321,1.49903
396.80214,1.50590
396.56107,1.51096
396.32000,1.50045
396.07892,1.47192
395.83785,1.44168
395.59678,1.42589
395.35571,1.42801
395.11464,1.44306
394.87357,1.46282
394.63250,1.47747
394.39143,1.48131
394.15036,1.47705
393.90929,1.47071
393.66822,1.46667
393.42715,1.46585
393.18608,1.46722
392.94501,1.47051
392.70394,1.47294
392.46287,1.47238
392.22180,1.47402
391.98073,1.48261
391.73965,1.49194
391.49858,1.49359
391.25751,1.48959
391.01644,1.48577
390.77537,1.48478
390.53430,1.48802
390.29323,1.49454
390.05216,1.49795
389.81109,1.49128
389.57002,1.47548
389.32895,1.45751
389.08788,1.44088
388.84681,1.42546
388.60574,1.41400
388.36467,1.41182
388.12360,1.42258
387.88253,1.44242
387.64146,1.45726
387.40038,1.45481
387.15931,1.43850
386.91824,1.42124
386.67717,1.41170
386.43610,1.41019
386.19503,1.41158
385.95396,1.40709
385.71289,1.38890
385.47182,1.36030
385.23075,1.33469
384.98968,1.31943
384.74861,1.30950
384.50754,1.29869
384.26647,1.28920
384.02540,1.28582
383.78433,1.28592
383.54326,1.28229
383.30219,1.27206
383.06111,1.25669
382.82004,1.23815
382.57897,1.22130
382.33790,1.21374
382.09683,1.21724
381.85576,1.22296
381.61469,1.22267
381.37362,1.21977
381.13255,1.22007
380.89148,1.22162
380.65041,1.21938
380.40934,1.21523
380.16827,1.21783
379.92720,1.23278
379.68613,1.25528
379.44506,1.27246
379.20399,1.27494
378.96292,1.26537
378.72184,1.25252
378.48077,1.24190
378.23970,1.23602
377.99863,1.23780
377.75756,1.24881
377.51649,1.26653
377.27542,1.28554
377.03435,1.30081
376.79328,1.30921
376.55221,1.31089
376.31114,1.31304
376.07007,1.32612
375.82900,1.35245
375.58793,1.38273
375.34686,1.40692
375.10579,1.42253
374.86472,1.42755
374.62365,1.41831
374.38257,1.40071
374.14150,1.38829
373.90043,1.38525
373.65936,1.38397
373.41829,1.37940
373.17722,1.37385
372.93615,1.36669
372.69508,1.35230
372.45401,1.33089
372.21294,1.31130
371.97187,1.30218
371.73080,1.30407
371.48973,1.30911
371.24866,1.30922
371.00759,1.30468
370.76652,1.29975
370.52545,1.29341
370.28437,1.28125
370.04330,1.26475
369.80223,1.25157
369.56116,1.24649
369.32009,1.24804
369.07902,1.25242
368.83795,1.25586
368.59688,1.25403
368.35581,1.24547
368.11474,1.23654
367.87367,1.23605
367.63260,1.24319
367.39153,1.24652
367.15046,1.23783
366.90939,1.22251
366.66832,1.21193
366.42725,1.21128
366.18618,1.21846
365.94510,1.22822
365.70403,1.23524
365.46296,1.23582
365.22189,1.22897
364.98082,1.21598
364.73975,1.19937
364.49868,1.18431
364.25761,1.17656
364.01654,1.17686
363.77547,1.17963
363.53440,1.17795
363.29333,1.17012
363.05226,1.16155
362.81119,1.15930
362.57012,1.16522
362.32905,1.17531
362.08798,1.18489
361.84691,1.19150
361.60583,1.19334
361.36476,1.18973
361.12369,1.18349
360.88262,1.17891
360.64155,1.17760
360.40048,1.17826
360.15941,1.17844
359.91834,1.17652
359.67727,1.17190
359.43620,1.16495
359.19513,1.15785
358.95406,1.15388
358.71299,1.15492
358.47192,1.16042
358.23085,1.16846
357.98978,1.17606
357.74871,1.17984
357.50764,1.17886
357.26656,1.17520
357.02549,1.17032
356.78442,1.16320
356.54335,1.15314
356.30228,1.14308
356.06121,1.13789
355.82014,1.13937
355.57907,1.14447
355.33800,1.14945
355.09693,1.15390
354.85586,1.15838
354.61479,1.15976
354.37372,1.15359
354.13265,1.14128
353.89158,1.13108
353.65051,1.13046
353.40944,1.13914
353.16837,1.15020
352.92729,1.15745
352.68622,1.15983
352.44515,1.15909
352.20408,1.15661
351.96301,1.15416
351.72194,1.15460
351.48087,1.15936
351.23980,1.16611
350.99873,1.17057
350.75766,1.17006
350.51659,1.16558
350.27552,1.16072
350.03445,1.15758
349.79338,1.15505
349.55231,1.15194
349.31124,1.15040
349.07017,1.15360
348.82910,1.16175
348.58802,1.17162
348.34695,1.17776
348.10588,1.17620
347.86481,1.17070
347.62374,1.17120
347.38267,1.18233
347.14160,1.19718
346.90053,1.20538
346.65946,1.20396
346.41839,1.19713
346.17732,1.19035
345.93625,1.18766
345.69518,1.19057
345.45411,1.19797
345.21304,1.20771
344.97197,1.21718
344.73090,1.22346
344.48983,1.22567
344.24875,1.22675
344.00768,1.22973
343.76661,1.23415
343.52554,1.23819
343.28447,1.24224
343.04340,1.24869
342.80233,1.25896
342.56126,1.27032
342.32019,1.27747
342.07912,1.27923
341.83805,1.28122
341.59698,1.28933
341.35591,1.30277
341.11484,1.31600
340.87377,1.32493
340.63270,1.32818
340.39163,1.32557
340.15056,1.31972
339.90948,1.31517
339.66841,1.31307
339.42734,1.31085
339.18627,1.30923
338.94520,1.31419
338.70413,1.32775
338.46306,1.34251
338.22199,1.35092
337.98092,1.35639
337.73985,1.36705
337.49878,1.38232
337.25771,1.39316
337.01664,1.39369
336.77557,1.38528
336.53450,1.37294
336.29343,1.36306
336.05236,1.35939
335.81129,1.36058
335.57021,1.36346
335.32914,1.36668
335.08807,1.37052
334.84700,1.37365
334.60593,1.37187
334.36486,1.36107
334.12379,1.34162
333.88272,1.32074
333.64165,1.30830
333.40058,1.30828
333.15951,1.31517
332.91844,1.31996
332.67737,1.31776
332.43630,1.30753
332.19523,1.28989
331.95416,1.26968
331.71309,1.25758
331.47202,1.26242
331.23094,1.28004
330.98987,1.29505
330.74880,1.29682
330.50773,1.28708
330.26666,1.27378
330.02559,1.26356
329.78452,1.25881
329.54345,1.25782
329.30238,1.25727
329.06131,1.25559
328.82024,1.25406
328.57917,1.25471
328.33810,1.25732
328.09703,1.25931
327.85596,1.25850
327.61489,1.25569
327.37382,1.25264
327.13275,1.24802
326.89167,1.24000
326.65060,1.23091
326.40953,1.22586
326.16846,1.22862
325.92739,1.23816
325.68632,1.24852
325.44525,1.25459
325.20418,1.25691
324.96311,1.25732
324.72204,1.25455
324.48097,1.24973
324.23990,1.24954
323.99883,1.25771
323.75776,1.26981
323.51669,1.27858
323.27562,1.28008
323.03455,1.27723
322.79348,1.27533
322.55240,1.27548
322.31133,1.27539
322.07026,1.27580
321.82919,1.28169
321.58812,1.29370
321.34705,1.30132
321.10598,1.29375
320.86491,1.27804
320.62384,1.27123
320.38277,1.27721
320.14170,1.28365
319.90063,1.28112
319.65956,1.27622
319.41849,1.27816
319.17742,1.28168
318.93635,1.27396
318.69528,1.25427
318.45421,1.23619
318.21313,1.23190
317.97206,1.24094
317.73099,1.25137
317.48992,1.24994
317.24885,1.23507
317.00778,1.21870
316.76671,1.21371
316.52564,1.22109
316.28457,1.23086
316.04350,1.23595
315.80243,1.23997
315.56136,1.24842
315.32029,1.26055
315.07922,1.27300
314.83815,1.28587
314.59708,1.30203
314.35601,1.32079
314.11494,1.33358
313.87386,1.33024
313.63279,1.31261
313.39172,1.29602
313.15065,1.29371
312.90958,1.30402
312.66851,1.31510
312.42744,1.31975
312.18637,1.31987
311.94530,1.31766
311.70423,1.31288
311.46316,1.30844
311.22209,1.30600
310.98102,1.30214
310.73995,1.29812
310.49888,1.30399
310.25781,1.32435
310.01674,1.34729
309.77567,1.35634
309.53459,1.34964
309.29352,1.33799
309.05245,1.33391
308.81138,1.34499
308.57031,1.36684
308.32924,1.38470
308.08817,1.38765
307.84710,1.37856
307.60603,1.36703
307.36496,1.35960
307.12389,1.35861
306.88282,1.36269
306.64175,1.36546
306.40068,1.36035
306.15961,1.35046
305.91854,1.34447
305.67747,1.34281
305.43640,1.33911
305.19532,1.33359
304.95425,1.33366
304.71318,1.34232
304.47211,1.35354
304.23104,1.35742
303.98997,1.35002
303.74890,1.33872
303.50783,1.33302
303.26676,1.33189
303.02569,1.32644
302.78462,1.31463
302.54355,1.30309
302.30248,1.29587
302.06141,1.29138
301.82034,1.28676
301.57927,1.28195
301.33820,1.27883
301.09713,1.27619
300.85605,1.27037
300.61498,1.26221
300.37391,1.25765
300.13284,1.25908
299.89177,1.26038
299.65070,1.25341
299.40963,1.23833
299.16856,1.22325
298.92749,1.21420
298.68642,1.20883
298.44535,1.20106
298.20428,1.19016
297.96321,1.18120
297.72214,1.17723
297.48107,1.17608
297.24000,1.17468
296.99893,1.17266
296.75786,1.17166
296.51678,1.17219
296.27571,1.17148
296.03464,1.16536
295.79357,1.15458
295.55250,1.14601
295.31143,1.14400
295.07036,1.14537
294.82929,1.14469
294.58822,1.14055
294.34715,1.13509
294.10608,1.13117
293.86501,1.13093
293.62394,1.13269
293.38287,1.13029
293.14180,1.12014
292.90073,1.10661
292.65966,1.09698
292.41859,1.09504
292.17751,1.09985
291.93644,1.10639
291.69537,1.10779
291.45430,1.10138
291.21323,1.09192
290.97216,1.08574
290.73109,1.08432
290.49002,1.08506
290.24895,1.08596
290.00788,1.08765
289.76681,1.09175
289.52574,1.09750
289.28467,1.09993
289.04360,1.09514
288.80253,1.08688
288.56146,1.08206
288.32039,1.08230
288.07932,1.08413
287.83824,1.08479
287.59717,1.08385
287.35610,1.08049
287.11503,1.07385
286.87396,1.06555
286.63289,1.05858
286.39182,1.05445
286.15075,1.05290
285.90968,1.05325
285.66861,1.05499
285.42754,1.05800
285.18647,1.06229
284.94540,1.06688
284.70433,1.06913
284.46326,1.06651
284.22219,1.05984
283.98112,1.05333
283.74005,1.05030
283.49897,1.05017
283.25790,1.05073
283.01683,1.05175
282.77576,1.05407
282.53469,1.05679
282.29362,1.05790
282.05255,1.05724
281.81148,1.05700
281.57041,1.05906
281.32934,1.06286
281.08827,1.06555
280.84720,1.06449
280.60613,1.05954
280.36506,1.05296
280.12399,1.04840
279.88292,1.04933
279.64185,1.05645
279.40078,1.06581
279.15970,1.07135
278.91863,1.07066
278.67756,1.06661
278.43649,1.06255
278.19542,1.05933
277.95435,1.05773
277.71328,1.05965
277.47221,1.06458
277.23114,1.06854
276.99007,1.06843
276.74900,1.06572
276.50793,1.06380
276.26686,1.06342
276.02579,1.06316
275.78472,1.06281
275.54365,1.06367
275.30258,1.06617
275.06151,1.06941
274.82043,1.07326
274.57936,1.07838
274.33829,1.08383
274.09722,1.08737
273.85615,1.08866
273.61508,1.08945
273.37401,1.09042
273.13294,1.09100
272.89187,1.09189
272.65080,1.09482
272.40973,1.09974
272.16866,1.10457
271.92759,1.10746
271.68652,1.10830
271.44545,1.10843
271.20438,1.10873
270.96331,1.10893
270.72224,1.10933
270.48116,1.11171
270.24009,1.11760
269.99902,1.12605
269.75795,1.13408
269.51688,1.13908
269.27581,1.14104
269.03474,1.14212
268.79367,1.14463
268.55260,1.15009
268.31153,1.15879
268.07046,1.16838
267.82939,1.17508
267.58832,1.17855
267.34725,1.18246
267.10618,1.18902
266.86511,1.19666
266.62404,1.20421
266.38297,1.21344
266.14189,1.22544
265.90082,1.23733
265.65975,1.24480
265.41868,1.24779
265.17761,1.25104
264.93654,1.25834
264.69547,1.27029
264.45440,1.28671
264.21333,1.30605
263.97226,1.32356
263.73119,1.33591
263.49012,1.34620
263.24905,1.35917
263.00798,1.37415
262.76691,1.38702
262.52584,1.39707
262.28477,1.40770
262.04370,1.42074
261.80262,1.43576
261.56155,1.45475
261.32048,1.48113
261.07941,1.51327
260.83834,1.54439
260.59727,1.57187
260.35620,1.59985
260.11513,1.62719
259.87406,1.64513
259.63299,1.65214
259.39192,1.65995
259.15085,1.68178
258.90978,1.71594
258.66871,1.73993
258.42764,1.73968
258.18657,1.72717
257.94550,1.72053
257.70443,1.72962
257.46335,1.75008
257.22228,1.76934
256.98121,1.77805
256.74014,1.77244
256.49907,1.75296
256.25800,1.72721
256.01693,1.70408
255.77586,1.68749
255.53479,1.68119
255.29372,1.68499
255.05265,1.68523
254.81158,1.66621
254.57051,1.63068
254.32944,1.59411
254.08837,1.56730
253.84730,1.55216
253.60623,1.54583
253.36516,1.54433
253.12408,1.54605
252.88301,1.54924
252.64194,1.54595
252.40087,1.53009
252.15980,1.50887
251.91873,1.49588
251.67766,1.49692
251.43659,1.50600
251.19552,1.51353
250.95445,1.51386
250.71338,1.50607
250.47231,1.49348
250.23124,1.48241
249.99017,1.47754
249.74910,1.47816
249.50803,1.48112
249.26696,1.48547
249.02589,1.49086
248.78481,1.49482
248.54374,1.49540
248.30267,1.49323
248.06160,1.49099
247.82053,1.49359
247.57946,1.50480
247.33839,1.52127
247.09732,1.53471
246.85625,1.54268
246.61518,1.54938
246.37411,1.55308
246.13304,1.54654
245.89197,1.53315
245.65090,1.52439
245.40983,1.52573
245.16876,1.53558
244.92769,1.55188
244.68661,1.57323
244.44554,1.59673
244.20447,1.62290
243.96340,1.65922
243.72233,1.71031
243.48126,1.76992
243.24019,1.82922
242.99912,1.88177
242.75805,1.91973
242.51698,1.91480
242.27591,1.80201
242.03484,1.68058
241.79377,1.58873
241.55270,1.51810
241.31163,1.45930
241.07056,1.40056
240.82949,1.33458
240.58842,1.26690
240.34734,1.20954
240.10627,1.16764
239.86520,1.13559
239.62413,1.10414
239.38306,1.06989
239.14199,1.03716
238.90092,1.01125
238.65985,0.99241
238.41878,0.97631
238.17771,0.95894
237.93664,0.94008
237.69557,0.92202
237.45450,0.90605
237.21343,0.89161
236.97236,0.87814
236.73129,0.86592
236.49022,0.85488
236.24915,0.84449
236.00807,0.83513
235.76700,0.82798
235.52593,0.82295
235.28486,0.81864
235.04379,0.81414
234.80272,0.80937
234.56165,0.80444
234.32058,0.80028
234.07951,0.79794
233.83844,0.79628
233.59737,0.79230
233.35630,0.78515
233.11523,0.77767
232.87416,0.77317
232.63309,0.77230
232.39202,0.77316
232.15095,0.77337
231.90988,0.77189
231.66880,0.76964
231.42773,0.76822
231.18666,0.76847
230.94559,0.76998
230.70452,0.77124
230.46345,0.77061
230.22238,0.76779
229.98131,0.76450
229.74024,0.76320
229.49917,0.76482
229.25810,0.76744
229.01703,0.76773
228.77596,0.76434
228.53489,0.75959
228.29382,0.75696
228.05275,0.75745
227.81168,0.75882
227.57061,0.75856
227.32953,0.75681
227.08846,0.75526
226.84739,0.75483
226.60632,0.75559
226.36525,0.75753
226.12418,0.76009
225.88311,0.76203
225.64204,0.76249
225.40097,0.76171
225.15990,0.76084
224.91883,0.76134
224.67776,0.76387
224.43669,0.76727
224.19562,0.76948
223.95455,0.77002
223.71348,0.77053
223.47241,0.77251
223.23134,0.77572
222.99026,0.77984
222.74919,0.78529
222.50812,0.79184
222.26705,0.79894
222.02598,0.80758
221.78491,0.81826
221.54384,0.82837
221.30277,0.83556
221.06170,0.84134
220.82063,0.84760
220.57956,0.85365
220.33849,0.85926
220.09742,0.86636
219.85635,0.87683
219.61528,0.89112
219.37421,0.90776
219.13314,0.92314
218.89207,0.93425
218.65099,0.94261
218.40992,0.95278
218.16885,0.96735
217.92778,0.98498
217.68671,1.00252
217.44564,1.01780
217.20457,1.03091
216.96350,1.04406
216.72243,1.05946
216.48136,1.07690
216.24029,1.09376
215.99922,1.10825
215.75815,1.12161
215.51708,1.13602
215.27601,1.15175
215.03494,1.16753
214.79387,1.18226
214.55280,1.19575
214.31172,1.20899
214.07065,1.22430
213.82958,1.24355
213.58851,1.26597
213.34744,1.28695
213.10637,1.29914
212.86530,1.29913
212.62423,1.29259
212.38316,1.28752
212.14209,1.28692
211.90102,1.29041
211.65995,1.29778
211.41888,1.31051
211.17781,1.33008
210.93674,1.35306
210.69567,1.36987
210.45460,1.37334
210.21353,1.36503
209.97245,1.35193
209.73138,1.34218
209.49031,1.34032
209.24924,1.34463
209.00817,1.34887
208.76710,1.34714
208.52603,1.33766
208.28496,1.32294
208.04389,1.30752
207.80282,1.29476
207.56175,1.28433
207.32068,1.27211
207.07961,1.25473
206.83854,1.23537
206.59747,1.22066
206.35640,1.21228
206.11533,1.20679
205.87426,1.20125
205.63318,1.19355
205.39211,1.17924
205.15104,1.15635
204.90997,1.13097
204.66890,1.11032
204.42783,1.09553
204.18676,1.08336
203.94569,1.07054
203.70462,1.05597
203.46355,1.04088
203.22248,1.02708
202.98141,1.01465
202.74034,1.00184
202.49927,0.98681
202.25820,0.96894
202.01713,0.94915
201.77606,0.92880
201.53499,0.90849
201.29391,0.88892
201.05284,0.87181
200.81177,0.85853
200.57070,0.84850
200.32963,0.83908
200.08856,0.82693
199.84749,0.81090
199.60642,0.79405
199.36535,0.78085
199.12428,0.77206
198.88321,0.76450
198.64214,0.75558
198.40107,0.74554
198.16000,0.73522
197.91893,0.72483
197.67786,0.71504
197.43679,0.70660
197.19572,0.69859
196.95464,0.68899
196.71357,0.67746
196.47250,0.66633
196.23143,0.65807
195.99036,0.65227
195.74929,0.64578
195.50822,0.63619
195.26715,0.62505
195.02608,0.61636
194.78501,0.61201
194.54394,0.61022
194.30287,0.60819
194.06180,0.60462
193.82073,0.59948
193.57966,0.59357
193.33859,0.58840
193.09752,0.58481
192.85645,0.58159
192.61537,0.57695
192.37430,0.57103
192.13323,0.56573
191.89216,0.56220
191.65109,0.55972
191.41002,0.55680
191.16895,0.55304
190.92788,0.54939
190.68681,0.54677
190.44574,0.54499
190.20467,0.54293
189.96360,0.53956
189.72253,0.53528
189.48146,0.53228
189.24039,0.53230
188.99932,0.53411
188.75825,0.53476
188.51718,0.53333
188.27610,0.53136
188.03503,0.52962
187.79396,0.52725
187.55289,0.52420
187.31182,0.52238
187.07075,0.52315
186.82968,0.52491
186.58861,0.52471
186.34754,0.52208
186.10647,0.51945
185.86540,0.51902
185.62433,0.52102
185.38326,0.52432
185.14219,0.52705
184.90112,0.52784
184.66005,0.52798
184.41898,0.53036
184.17791,0.53509
183.93683,0.53883
183.69576,0.53959
183.45469,0.53922
183.21362,0.54005
182.97255,0.54219
182.73148,0.54491
182.49041,0.54803
182.24934,0.55076
182.00827,0.55164
181.76720,0.55080
181.52613,0.55066
181.28506,0.55277
181.04399,0.55554
180.80292,0.55670
180.56185,0.55694
180.32078,0.55878
180.07971,0.56277
179.83864,0.56754
179.59756,0.57279
179.35649,0.57925
179.11542,0.58675
178.87435,0.59464
178.63328,0.60317
178.39221,0.61259
178.15114,0.62271
177.91007,0.63370
177.66900,0.64526
177.42793,0.65642
177.18686,0.66783
176.94579,0.68148
176.70472,0.69727
176.46365,0.71339
176.22258,0.72967
175.98151,0.74696
175.74044,0.76484
175.49937,0.78312
175.25829,0.80358
175.01722,0.82746
174.77615,0.85362
174.53508,0.88027
174.29401,0.90668
174.05294,0.93259
173.81187,0.95683
173.57080,0.97772
173.32973,0.99523
173.08866,1.01084
172.84759,1.02430
172.60652,1.03284
172.36545,1.03547
172.12438,1.03628
171.88331,1.04059
171.64224,1.04791
171.40117,1.05183
171.16010,1.04760
170.91902,1.03707
170.67795,1.02450
170.43688,1.01169
170.19581,0.99908
169.95474,0.98792
169.71367,0.97977
169.47260,0.97556
169.23153,0.97489
168.99046,0.97586
168.74939,0.97651
168.50832,0.97552
168.26725,0.97109
168.02618,0.96209
167.78511,0.95124
167.54404,0.94359
167.30297,0.94117
167.06190,0.94172
166.82083,0.94271
166.57975,0.94439
166.33868,0.94844
166.09761,0.95564
165.85654,0.96572
165.61547,0.97821
165.37440,0.99229
165.13333,1.00605
164.89226,1.01762
164.65119,1.02718
164.41012,1.03660
164.16905,1.04677
163.92798,1.05634
163.68691,1.06395
163.44584,1.07119
163.20477,1.08132
162.96370,1.09584
162.72263,1.11395
162.48156,1.13436
162.24048,1.15611
161.99941,1.17686
161.75834,1.19257
161.51727,1.20059
161.27620,1.20055
161.03513,1.19376
160.79406,1.18370
160.55299,1.17468
160.31192,1.16940
160.07085,1.16796
159.82978,1.16763
159.58871,1.16314
159.34764,1.15095
159.10657,1.13400
158.86550,1.11898
158.62443,1.10936
158.38336,1.10299
158.14229,1.09569
157.90121,1.08616
157.66014,1.07748
157.41907,1.07340
157.17800,1.07359
156.93693,1.07347
156.69586,1.06901
156.45479,1.06102
156.21372,1.05376
155.97265,1.04912
155.73158,1.04392
155.49051,1.03389
155.24944,1.01900
155.00837,1.00345
154.76730,0.99129
154.52623,0.98258
154.28516,0.97231
154.04409,0.95458
153.80302,0.92881
153.56194,0.89994
153.32087,0.87381
153.07980,0.85374
152.83873,0.83939
152.59766,0.82685
152.35659,0.81092
152.11552,0.78927
151.87445,0.76412
151.63338,0.73939
151.39231,0.71754
151.15124,0.69902
150.91017,0.68302
150.66910,0.66794
150.42803,0.65235
150.18696,0.63665
149.94589,0.62277
149.70482,0.61178
149.46375,0.60256
149.22267,0.59294
148.98160,0.58198
148.74053,0.57063
148.49946,0.56048
148.25839,0.55238
148.01732,0.54655
147.77625,0.54290
147.53518,0.54071
147.29411,0.53897
147.05304,0.53762
146.81197,0.53761
146.57090,0.53946
146.32983,0.54272
146.08876,0.54639
145.84769,0.54952
145.60662,0.55218
145.36555,0.55599
145.12448,0.56228
144.88340,0.57018
144.64233,0.57755
144.40126,0.58316
144.16019,0.58710
143.91912,0.58976
143.67805,0.59098
143.43698,0.59006
143.19591,0.58617
142.95484,0.57913
142.71377,0.56983
142.47270,0.55976
142.23163,0.54994
141.99056,0.54060
141.74949,0.53206
141.50842,0.52482
141.26735,0.51873
141.02628,0.51309
140.78521,0.50802
140.54413,0.50450
140.30306,0.50290
140.06199,0.50291
139.82092,0.50444
139.57985,0.50783
139.33878,0.51307
139.09771,0.51959
138.85664,0.52681
138.61557,0.53455
138.37450,0.54310
138.13343,0.55311
137.89236,0.56542
137.65129,0.58038
137.41022,0.59742
137.16915,0.61579
136.92808,0.63552
136.68701,0.65684
136.44594,0.67908
136.20486,0.70157
135.96379,0.72561
135.72272,0.75405
135.48165,0.78793
135.24058,0.82552
134.99951,0.86515
134.75844,0.90623
134.51737,0.94658
134.27630,0.98343
134.03523,1.01841
133.79416,1.05563
133.55309,1.09419
133.31202,1.12950
133.07095,1.16038
132.82988,1.18715
132.58881,1.20651
132.34774,1.21550
132.10667,1.21699
131.86559,1.21624
131.62452,1.21439
131.38345,1.20641
131.14238,1.18720
130.90131,1.15913
130.66024,1.12794
130.41917,1.09427
130.17810,1.05616
129.93703,1.01602
129.69596,0.97831
129.45489,0.94211
129.21382,0.90175
128.97275,0.85476
128.73168,0.80614
128.49061,0.76309
128.24954,0.72772
128.00847,0.69684
127.76740,0.66724
127.52632,0.63907
127.28525,0.61359
127.04418,0.59068
126.80311,0.56941
126.56204,0.54957
126.32097,0.53129
126.07990,0.51442
125.83883,0.49904
125.59776,0.48578
125.35669,0.47504
125.11562,0.46639
124.87455,0.45874
124.63348,0.45090
124.39241,0.44226
124.15134,0.43313
123.91027,0.42437
123.66920,0.41683
123.42812,0.41117
123.18705,0.40759
122.94598,0.40565
122.70491,0.40479
122.46384,0.40470
122.22277,0.40513
121.98170,0.40592
121.74063,0.40733
121.49956,0.41006
121.25849,0.41471
121.01742,0.42157
120.77635,0.43079
120.53528,0.44209
120.29421,0.45485
120.05314,0.46908
119.81207,0.48574
119.57100,0.50581
119.32993,0.52927
119.08885,0.55546
118.84778,0.58415
118.60671,0.61591
118.36564,0.65111
118.12457,0.68829
117.88350,0.72388
117.64243,0.75460
117.40136,0.77956
117.16029,0.79899
116.91922,0.81208
116.67815,0.81715
116.43708,0.81321
116.19601,0.80170
115.95494,0.78597
115.71387,0.76844
115.47280,0.74998
115.23173,0.73163
114.99066,0.71491
114.74958,0.70058
114.50851,0.68859
114.26744,0.67897
114.02637,0.67183
113.78530,0.66659
113.54423,0.66291
113.30316,0.66162
113.06209,0.66315
112.82102,0.66624
112.57995,0.66953
112.33888,0.67364
112.09781,0.68030
111.85674,0.69063
111.61567,0.70429
111.37460,0.71874
111.13353,0.73041
110.89246,0.73835
110.65139,0.74495
110.41031,0.75103
110.16924,0.75262
109.92817,0.74503
109.68710,0.72763
109.44603,0.70265
109.20496,0.67270
108.96389,0.64102
108.72282,0.61143
108.48175,0.58643
108.24068,0.56622
107.99961,0.54981
107.75854,0.53599
107.51747,0.52253
107.27640,0.50635
107.03533,0.48619
106.79426,0.46400
106.55319,0.44272
106.31212,0.42445
106.07104,0.41086
105.82997,0.40261
105.58890,0.39778
105.34783,0.39236
105.10676,0.38333
104.86569,0.37059
104.62462,0.35598
104.38355,0.34183
104.14248,0.33071
103.90141,0.32440
103.66034,0.32181
103.41927,0.31899
103.17820,0.31281
102.93713,0.30413
102.69606,0.29615
102.45499,0.29090
102.21392,0.28810
101.97285,0.28624
101.73177,0.28368
101.49070,0.27896
101.24963,0.27179
101.00856,0.26425
100.76749,0.25945
100.52642,0.25831
100.28535,0.25868
100.04428,0.25767
99.80321,0.25371
99.56214,0.24750
99.32107,0.24181
99.08000,0.23924
98.83893,0.23998
98.59786,0.24223
98.35679,0.24391
98.11572,0.24354
97.87465,0.24154
97.63358,0.24079
97.39250,0.24401
97.15143,0.25031
96.91036,0.25576
96.66929,0.25772
96.42822,0.25853
96.18715,0.26349
95.94608,0.27510
95.70501,0.28987
95.46394,0.30155
95.22287,0.30822
94.98180,0.31363
94.74073,0.32106
94.49966,0.32913
94.25859,0.33335
94.01752,0.33124
93.77645,0.32565
93.53538,0.32249
93.29431,0.32494
93.05323,0.32982
92.81216,0.33121
92.57109,0.32885
92.33002,0.32839
92.08895,0.33252
91.84788,0.33744
91.60681,0.34076
91.36574,0.34742
91.12467,0.36281
90.88360,0.38475
90.64253,0.40849
90.40146,0.43735
90.16039,0.47779
89.91932,0.52749
89.67825,0.57875
89.43718,0.63019
89.19611,0.68072
88.95504,0.71977
88.71396,0.73957
88.47289,0.74248
88.23182,0.72796
87.99075,0.69291
87.74968,0.64267
87.50861,0.58694
87.26754,0.53280
87.02647,0.48458
86.78540,0.44315
86.54433,0.40665
86.30326,0.37486
86.06219,0.34924
85.82112,0.32873
85.58005,0.30986
85.33898,0.29083
85.09791,0.27262
84.85684,0.25649
84.61577,0.24248
84.37469,0.23059
84.13362,0.22149
83.89255,0.21510
83.65148,0.20948
83.41041,0.20284
83.16934,0.19565
82.92827,0.18968
82.68720,0.18581
82.44613,0.18352
82.20506,0.18145
81.96399,0.17870
81.72292,0.17559
81.48185,0.17280
81.24078,0.17057
80.99971,0.16916
80.75864,0.16874
80.51757,0.16844
80.27650,0.16715
80.03542,0.16491
79.79435,0.16232
79.55328,0.15948
79.31221,0.15691
79.07114,0.15602
78.83007,0.15718
78.58900,0.15872
78.34793,0.15894
78.10686,0.15811
77.86579,0.15737
77.62472,0.15662
77.38365,0.15466
77.14258,0.15118
76.90151,0.14805
76.66044,0.14764
76.41937,0.15002
76.17830,0.15245
75.93723,0.15225
75.69615,0.14968
75.45508,0.14669
75.21401,0.14410
74.97294,0.14160
74.73187,0.13985
74.49080,0.14049
74.24973,0.14445
74.00866,0.15049
73.76759,0.15546
73.52652,0.15604
73.28545,0.15129
73.04438,0.14400
72.80331,0.13891
72.56224,0.13942
72.32117,0.14512
72.08010,0.15212
71.83903,0.15667
71.59796,0.15832
71.35688,0.15892
71.11581,0.15973
70.87474,0.16103
70.63367,0.16336
70.39260,0.16810
70.15153,0.17696
69.91046,0.19106
69.66939,0.20992
69.42832,0.23111
69.18725,0.25021
68.94618,0.26134
68.70511,0.25990
68.46404,0.24606
68.22297,0.22465
67.98190,0.20157
67.74083,0.18107
67.49976,0.16532
67.25869,0.15458
67.01761,0.14757
66.77654,0.14238
66.53547,0.13771
66.29440,0.13367
66.05333,0.13152
65.81226,0.13256
65.57119,0.13712
65.33012,0.14424
65.08905,0.15239
64.84798,0.16082
64.60691,0.17024
64.36584,0.18140
64.12477,0.19282
63.88370,0.20092
63.64263,0.20286
63.40156,0.19847
63.16049,0.18974
62.91942,0.17943
62.67834,0.16956
62.43727,0.16026
62.19620,0.15060
61.95513,0.14058
61.71406,0.13163
61.47299,0.12511
61.23192,0.12079
60.99085,0.11717
60.74978,0.11328
60.50871,0.10988
60.26764,0.10878
60.02657,0.11101
59.78550,0.11577
59.54443,0.12126
59.30336,0.12678
59.06229,0.13311
58.82122,0.14014
58.58015,0.14601
58.33907,0.14975
58.09800,0.15291
57.85693,0.15713
57.61586,0.16189
57.37479,0.16502
57.13372,0.16408
56.89265,0.15758
56.65158,0.14600
56.41051,0.13184
56.16944,0.11847
55.92837,0.10878
55.68730,0.10454
55.44623,0.10668
55.20516,0.11580
54.96409,0.13205
54.72302,0.15481
54.48195,0.18087
54.24088,0.19970
53.99980,0.19672
53.75873,0.17224
53.51766,0.14151
53.27659,0.11647
53.03552,0.10334
52.79445,0.10654
52.55338,0.12748
52.31231,0.15988
52.07124,0.18560
51.83017,0.18433
51.58910,0.15944
51.34803,0.13225
51.10696,0.11745
50.86589,0.11942
50.62482,0.13626
50.38375,0.15869
50.14268,0.16815
49.90161,0.15308
49.66053,0.12943
49.41946,0.12130
49.17839,0.13800
48.93732,0.16771
48.69625,0.17793
48.45518,0.15249
48.21411,0.12189
47.97304,0.11593
47.73197,0.14175
47.49090,0.18125
47.24983,0.18926
47.00876,0.15651
46.76769,0.13220
46.52662,0.14144
46.28555,0.16276
46.04448,0.15406
45.80341,0.12492
45.56234,0.11919
45.32126,0.14123
45.08019,0.15434
44.83912,0.14336
44.59805,0.14049
44.35698,0.15413
44.11591,0.15809
43.87484,0.14708
43.63377,0.14180
43.39270,0.14769
43.15163,0.15445
42.91056,0.15431
42.66949,0.14717
42.42842,0.13982
42.18735,0.14005
41.94628,0.14538
41.70521,0.14793
41.46414,0.14829
41.22307,0.14954
40.98199,0.14903
40.74092,0.14698
40.49985,0.15031
40.25878,0.16187
40.01771,0.17396
39.77664,0.17750
39.53557,0.17565
39.29450,0.17873
39.05343,0.18953
38.81236,0.20253
38.57129,0.21350
38.33022,0.21939
38.08915,0.21655
37.84808,0.20776
37.60701,0.20179
37.36594,0.20241
37.12487,0.20387
36.88380,0.19894
36.64272,0.18854
36.40165,0.18264
36.16058,0.18839
35.91951,0.19974
35.67844,0.20514
35.43737,0.20172
35.19630,0.19325
34.95523,0.18192
34.71416,0.17018
34.47309,0.16214
34.23202,0.15883
33.99095,0.15741
33.74988,0.15460
33.50881,0.14854
33.26774,0.14021
33.02667,0.13321
32.78560,0.13027
32.54453,0.13067
32.30345,0.13102
32.06238,0.12905
31.82131,0.12561
31.58024,0.12215
31.33917,0.11572
31.09810,0.09768
30.85703,0.06580
30.61596,0.03572
30.37489,0.02571
30.13382,0.03227
29.89275,0.03676
29.65168,0.03075
29.41061,0.02012
29.16954,0.01281
28.92847,0.00837
28.68740,-0.00679
28.44633,-0.04852
28.20526,-0.11205
27.96418,-0.17129
27.72311,-0.20255
27.48204,-0.20105
27.24097,-0.18039
26.99990,-0.15994
26.75883,-0.15168
26.51776,-0.15696
26.27669,-0.17265
26.03562,-0.19630
25.79455,-0.22368
25.55348,-0.24450
25.31241,-0.25202
25.07134,-0.25214
24.83027,-0.25289
24.58920,-0.25717
24.34813,-0.26522
24.10706,-0.27520
23.86599,-0.28469
23.62491,-0.29441
23.38384,-0.30803
23.14277,-0.32526
22.90170,-0.34069
22.66063,-0.34824
22.41956,-0.34465
22.17849,-0.34008
21.93742,-0.34406
21.69635,-0.34685
21.45528,-0.33576
21.21421,-0.32079
20.97314,-0.32150
20.73207,-0.33775
20.49100,-0.35680
20.24993,-0.37368
20.00886,-0.38851
19.76779,-0.39545
19.52672,-0.39155
19.28564,-0.38331
19.04457,-0.37928
18.80350,-0.38598
18.56243,-0.40092
18.32136,-0.40937
18.08029,-0.39704
17.83922,-0.36907
17.59815,-0.34981
17.35708,-0.35798
17.11601,-0.39037
16.87494,-0.43069
16.63387,-0.45573
16.39280,-0.44359
16.15173,-0.41058
15.91066,-0.39833
15.66959,-0.42361
15.42852,-0.46017
15.18745,-0.48079
14.94637,-0.48046
14.70530,-0.46200
14.46423,-0.44519
14.22316,-0.44208
13.98209,-0.44406
13.74102,-0.43962
13.49995,-0.43349
13.25888,-0.43821
13.01781,-0.45355
12.77674,-0.46869
12.53567,-0.47637
12.29460,-0.47139
12.05353,-0.45326
11.81246,-0.43449
11.57139,-0.42710
11.33032,-0.42652
11.08925,-0.42830
10.84818,-0.44019
10.60710,-0.45762
10.36603,-0.47203
10.12496,-0.48108
9.88389,-0.48821
9.64282,-0.49254
9.40175,-0.49047
9.16068,-0.48616
8.91961,-0.47955
8.67854,-0.46415
8.43747,-0.45258
8.19640,-0.46742
7.95533,-0.50051
7.71426,-0.51398
7.47319,-0.49209
7.23212,-0.46210
6.99105,-0.45501
6.74998,-0.46982
6.50891,-0.48113
6.26783,-0.48016
6.02676,-0.46314
5.78569,-0.43551
5.54462,-0.42677
5.30355,-0.43608
5.06248,-0.45748
4.82141,-0.48278
4.58034,-0.50590
4.33927,-0.52530
4.09820,-0.52810
3.85713,-0.51253
3.61606,-0.49442
3.37499,-0.48223
3.13392,-0.48956
2.89285,-0.51354
2.65178,-0.52169
2.41071,-0.52176
2.16964,-0.52280
1.92856,-0.51824
1.68749,-0.51003
1.44642,-0.49676
1.20535,-0.47491
0.96428,-0.46349
0.72321,-0.49464
0.48214,-0.52302
0.24107,-0.47514
-0.00000,-0.15116
