399.69498,1.47817
399.45391,1.47290
399.21284,1.47186
398.97177,1.47297
398.73070,1.47682
398.48963,1.48532
398.24856,1.49526
398.00749,1.50298
397.76642,1.51074
397.52535,1.52067
397.28428,1.53091
397.04321,1.53485
396.80214,1.52608
396.56107,1.51017
396.32000,1.49824
396.07892,1.49722
395.83785,1.50680
395.59678,1.51876
395.35571,1.52115
395.11464,1.50972
394.87357,1.49525
394.63250,1.49174
394.39143,1.49796
394.15036,1.50099
393.90929,1.49714
393.66822,1.49739
393.42715,1.51018
393.18608,1.52912
392.94501,1.54245
392.70394,1.54576
392.46287,1.54031
392.22180,1.52816
391.98073,1.51580
391.73965,1.51349
391.49858,1.52486
391.25751,1.54079
391.01644,1.54834
390.77537,1.54443
390.53430,1.53466
390.29323,1.52619
390.05216,1.52721
389.81109,1.54171
389.57002,1.55972
389.32895,1.56553
389.08788,1.55400
388.84681,1.52929
388.60574,1.49736
388.36467,1.46545
388.12360,1.44207
387.88253,1.43047
387.64146,1.43040
387.40038,1.44481
387.15931,1.47920
386.91824,1.52654
386.67717,1.55045
386.43610,1.51937
386.19503,1.46101
385.95396,1.42244
385.71289,1.41657
385.47182,1.42046
385.23075,1.40901
384.98968,1.38714
384.74861,1.37153
384.50754,1.36127
384.26647,1.34672
384.02540,1.33099
383.78433,1.32689
383.54326,1.33897
383.30219,1.35789
383.06111,1.36980
382.82004,1.36933
382.57897,1.36507
382.33790,1.37147
382.09683,1.39249
381.85576,1.41112
381.61469,1.40436
381.37362,1.37185
381.13255,1.33389
380.89148,1.30458
380.65041,1.28356
380.40934,1.27515
380.16827,1.29117
379.92720,1.32800
379.68613,1.35587
379.44506,1.34992
379.20399,1.32387
378.96292,1.30662
378.72184,1.30853
378.48077,1.31956
378.23970,1.32603
377.99863,1.32500
377.75756,1.32429
377.51649,1.33360
377.27542,1.34937
377.03435,1.36112
376.79328,1.36461
376.55221,1.35986
376.31114,1.35271
376.07007,1.35146
375.82900,1.35594
375.58793,1.35850
375.34686,1.36135
375.10579,1.37862
374.86472,1.41611
374.62365,1.45307
374.38257,1.46124
374.14150,1.44382
373.90043,1.42471
373.65936,1.41650
373.41829,1.41977
373.17722,1.43124
372.93615,1.44197
372.69508,1.43889
372.45401,1.41966
372.21294,1.39567
371.97187,1.37743
371.73080,1.36629
371.48973,1.35527
371.24866,1.33844
371.00759,1.32124
370.76652,1.31578
370.52545,1.32484
370.28437,1.33609
370.04330,1.33526
369.80223,1.32039
369.56116,1.29978
369.32009,1.28254
369.07902,1.27295
368.83795,1.26822
368.59688,1.26215
368.35581,1.25417
368.11474,1.24852
367.87367,1.24467
367.63260,1.23867
367.39153,1.23183
367.15046,1.22895
366.90939,1.22880
366.66832,1.22502
366.42725,1.21673
366.18618,1.20966
365.94510,1.20719
365.70403,1.20688
365.46296,1.20354
365.22189,1.19398
364.98082,1.18098
364.73975,1.17105
364.49868,1.16837
364.25761,1.17317
364.01654,1.18371
363.77547,1.19676
363.53440,1.20672
363.29333,1.20831
363.05226,1.20128
362.81119,1.19022
362.57012,1.18219
362.32905,1.18239
362.08798,1.18642
361.84691,1.18299
361.60583,1.16962
361.36476,1.15745
361.12369,1.15724
360.88262,1.16838
360.64155,1.18167
360.40048,1.18894
360.15941,1.19021
359.91834,1.19091
359.67727,1.19347
359.43620,1.19391
359.19513,1.18788
358.95406,1.17601
358.71299,1.16218
358.47192,1.15095
358.23085,1.14668
357.98978,1.14940
357.74871,1.15247
357.50764,1.14978
357.26656,1.14354
357.02549,1.14115
356.78442,1.14650
356.54335,1.15555
356.30228,1.15922
356.06121,1.15350
355.82014,1.14634
355.57907,1.14879
355.33800,1.16084
355.09693,1.17119
354.85586,1.17206
354.61479,1.16878
354.37372,1.16935
354.13265,1.17093
353.89158,1.16565
353.65051,1.15557
353.40944,1.15005
353.16837,1.15265
352.92729,1.15933
352.68622,1.16539
352.44515,1.16904
352.20408,1.17107
351.96301,1.17351
351.72194,1.17690
351.48087,1.17881
351.23980,1.17792
350.99873,1.17605
350.75766,1.17427
350.51659,1.17141
350.27552,1.16680
350.03445,1.16281
349.79338,1.16400
349.55231,1.17394
349.31124,1.19199
349.07017,1.21129
348.82910,1.22105
348.58802,1.21454
348.34695,1.19692
348.10588,1.18209
347.86481,1.17985
347.62374,1.18803
347.38267,1.19548
347.14160,1.19289
346.90053,1.18327
346.65946,1.17668
346.41839,1.17621
346.17732,1.17791
345.93625,1.18009
345.69518,1.18622
345.45411,1.19902
345.21304,1.21307
344.97197,1.22009
344.73090,1.22162
344.48983,1.22659
344.24875,1.23799
344.00768,1.25085
343.76661,1.26194
343.52554,1.27311
343.28447,1.28432
343.04340,1.29122
342.80233,1.29136
342.56126,1.28609
342.32019,1.27617
342.07912,1.26251
341.83805,1.25107
341.59698,1.24882
341.35591,1.25744
341.11484,1.27586
340.87377,1.30303
340.63270,1.33155
340.39163,1.34674
340.15056,1.34478
339.90948,1.34023
339.66841,1.34676
339.42734,1.36208
339.18627,1.37211
338.94520,1.36577
338.70413,1.34765
338.46306,1.33384
338.22199,1.33602
337.98092,1.35384
337.73985,1.37423
337.49878,1.38076
337.25771,1.37350
337.01664,1.36965
336.77557,1.38057
336.53450,1.39979
336.29343,1.41493
336.05236,1.42276
335.81129,1.42639
335.57021,1.42633
335.32914,1.42105
335.08807,1.41342
334.84700,1.40830
334.60593,1.40226
334.36486,1.38693
334.12379,1.36204
333.88272,1.33982
333.64165,1.33243
333.40058,1.33463
333.15951,1.33229
332.91844,1.32209
332.67737,1.31113
332.43630,1.30625
332.19523,1.30985
331.95416,1.31904
331.71309,1.32802
331.47202,1.33574
331.23094,1.34452
330.98987,1.34881
330.74880,1.34071
330.50773,1.32541
330.26666,1.31382
330.02559,1.30635
329.78452,1.29680
329.54345,1.28773
329.30238,1.28725
329.06131,1.29177
328.82024,1.28942
328.57917,1.28070
328.33810,1.27606
328.09703,1.27679
327.85596,1.27692
327.61489,1.27749
327.37382,1.28236
327.13275,1.28656
326.89167,1.28279
326.65060,1.27451
326.40953,1.27310
326.16846,1.28641
325.92739,1.31094
325.68632,1.33186
325.44525,1.33545
325.20418,1.32308
324.96311,1.30582
324.72204,1.29049
324.48097,1.27740
324.23990,1.26633
323.99883,1.26018
323.75776,1.26378
323.51669,1.27757
323.27562,1.29572
323.03455,1.31512
322.79348,1.33653
322.55240,1.35280
322.31133,1.35321
322.07026,1.34324
321.82919,1.33590
321.58812,1.33263
321.34705,1.32674
321.10598,1.31879
320.86491,1.31566
320.62384,1.31915
320.38277,1.32675
320.14170,1.33980
319.90063,1.35979
319.65956,1.38053
319.41849,1.39148
319.17742,1.38835
318.93635,1.37726
318.69528,1.36707
318.45421,1.36230
318.21313,1.36414
317.97206,1.37429
317.73099,1.39177
317.48992,1.40638
317.24885,1.40523
317.00778,1.38879
316.76671,1.36711
316.52564,1.34642
316.28457,1.32976
316.04350,1.32365
315.80243,1.33613
315.56136,1.36197
315.32029,1.37640
315.07922,1.36499
314.83815,1.34336
314.59708,1.33258
314.35601,1.33473
314.11494,1.34053
313.87386,1.35123
313.63279,1.37590
313.39172,1.41237
313.15065,1.44092
312.90958,1.44256
312.66851,1.42120
312.42744,1.39865
312.18637,1.38945
311.94530,1.39723
311.70423,1.41342
311.46316,1.41855
311.22209,1.40549
310.98102,1.39128
310.73995,1.39123
310.49888,1.40227
310.25781,1.41707
310.01674,1.43388
309.77567,1.44947
309.53459,1.45414
309.29352,1.44271
309.05245,1.43531
308.81138,1.44606
308.57031,1.45862
308.32924,1.45936
308.08817,1.45267
307.84710,1.44503
307.60603,1.43897
307.36496,1.43714
307.12389,1.43987
306.88282,1.44059
306.64175,1.43282
306.40068,1.41927
306.15961,1.40643
305.91854,1.39656
305.67747,1.39161
305.43640,1.39622
305.19532,1.41040
304.95425,1.42464
304.71318,1.42745
304.47211,1.41633
304.23104,1.39849
303.98997,1.38391
303.74890,1.37959
303.50783,1.38471
303.26676,1.39045
303.02569,1.38734
302.78462,1.37516
302.54355,1.36304
302.30248,1.35751
302.06141,1.35530
301.82034,1.34726
301.57927,1.32879
301.33820,1.30553
301.09713,1.28651
300.85605,1.27774
300.61498,1.28133
300.37391,1.29300
300.13284,1.30162
299.89177,1.29744
299.65070,1.28044
299.40963,1.26026
299.16856,1.25095
298.92749,1.26094
298.68642,1.28224
298.44535,1.29195
298.20428,1.27720
297.96321,1.24979
297.72214,1.22608
297.48107,1.21292
297.24000,1.20939
296.99893,1.20956
296.75786,1.20625
296.51678,1.19664
296.27571,1.18589
296.03464,1.18207
295.79357,1.18550
295.55250,1.18789
295.31143,1.18437
295.07036,1.17899
294.82929,1.17504
294.58822,1.16982
294.34715,1.16186
294.10608,1.15416
293.86501,1.14768
293.62394,1.13919
293.38287,1.12754
293.14180,1.11717
292.90073,1.11354
292.65966,1.11718
292.41859,1.12322
292.17751,1.12639
291.93644,1.12545
291.69537,1.12280
291.45430,1.12071
291.21323,1.11814
290.97216,1.11257
290.73109,1.10509
290.49002,1.09982
290.24895,1.09808
290.00788,1.09699
289.76681,1.09409
289.52574,1.08931
289.28467,1.08432
289.04360,1.08252
288.80253,1.08605
288.56146,1.09108
288.32039,1.09077
288.07932,1.08397
287.83824,1.07577
287.59717,1.07061
287.35610,1.06894
287.11503,1.06977
286.87396,1.07304
286.63289,1.07864
286.39182,1.08356
286.15075,1.08226
285.90968,1.07225
285.66861,1.05826
285.42754,1.04831
285.18647,1.04650
284.94540,1.05077
284.70433,1.05624
284.46326,1.05937
284.22219,1.05988
283.98112,1.05936
283.74005,1.05926
283.49897,1.05981
283.25790,1.06012
283.01683,1.05999
282.77576,1.06057
282.53469,1.06156
282.29362,1.06082
282.05255,1.05832
281.81148,1.05631
281.57041,1.05454
281.32934,1.05027
281.08827,1.04421
280.84720,1.04127
280.60613,1.04417
280.36506,1.05031
280.12399,1.05525
279.88292,1.05704
279.64185,1.05715
279.40078,1.05851
279.15970,1.06161
278.91863,1.06297
278.67756,1.05981
278.43649,1.05505
278.19542,1.05424
277.95435,1.05779
277.71328,1.06025
277.47221,1.05818
277.23114,1.05475
276.99007,1.05428
276.74900,1.05624
276.50793,1.05747
276.26686,1.05772
276.02579,1.05894
275.78472,1.06113
275.54365,1.06305
275.30258,1.06478
275.06151,1.06648
274.82043,1.06631
274.57936,1.06314
274.33829,1.06020
274.09722,1.06231
273.85615,1.06943
273.61508,1.07697
273.37401,1.08270
273.13294,1.08795
272.89187,1.09237
272.65080,1.09416
272.40973,1.09441
272.16866,1.09533
271.92759,1.09565
271.68652,1.09417
271.44545,1.09477
271.20438,1.10098
270.96331,1.10933
270.72224,1.11444
270.48116,1.11708
270.24009,1.12170
269.99902,1.12891
269.75795,1.13465
269.51688,1.13580
269.27581,1.13314
269.03474,1.12931
268.79367,1.12621
268.55260,1.12500
268.31153,1.12775
268.07046,1.13671
267.82939,1.15053
267.58832,1.16370
267.34725,1.17152
267.10618,1.17531
266.86511,1.18068
266.62404,1.19060
266.38297,1.20346
266.14189,1.21675
265.90082,1.22899
265.65975,1.23790
265.41868,1.24078
265.17761,1.23908
264.93654,1.23929
264.69547,1.24658
264.45440,1.25963
264.21333,1.27360
263.97226,1.28602
263.73119,1.29738
263.49012,1.30858
263.24905,1.32075
263.00798,1.33526
262.76691,1.35172
262.52584,1.36845
262.28477,1.38664
262.04370,1.40919
261.80262,1.43436
261.56155,1.45702
261.32048,1.47599
261.07941,1.49260
260.83834,1.50752
260.59727,1.52493
260.35620,1.54960
260.11513,1.58081
259.87406,1.61486
259.63299,1.65166
259.39192,1.69647
259.15085,1.74780
258.90978,1.78662
258.66871,1.79872
258.42764,1.80394
258.18657,1.82979
257.94550,1.87206
257.70443,1.89107
257.46335,1.87700
257.22228,1.86802
256.98121,1.85770
256.74014,1.82238
256.49907,1.78466
256.25800,1.77755
256.01693,1.79537
255.77586,1.81012
255.53479,1.80869
255.29372,1.79139
255.05265,1.75674
254.81158,1.71406
254.57051,1.67979
254.32944,1.65521
254.08837,1.63550
253.84730,1.62460
253.60623,1.62822
253.36516,1.64069
253.12408,1.64753
252.88301,1.64336
252.64194,1.63634
252.40087,1.63291
252.15980,1.62802
251.91873,1.61406
251.67766,1.59278
251.43659,1.57077
251.19552,1.55387
250.95445,1.54757
250.71338,1.55373
250.47231,1.56596
250.23124,1.57248
249.99017,1.56846
249.74910,1.56091
249.50803,1.55713
249.26696,1.55665
249.02589,1.55696
248.78481,1.55954
248.54374,1.56592
248.30267,1.57322
248.06160,1.57731
247.82053,1.57866
247.57946,1.57875
247.33839,1.57478
247.09732,1.56801
246.85625,1.56686
246.61518,1.57620
246.37411,1.58951
246.13304,1.59861
245.89197,1.60301
245.65090,1.60542
245.40983,1.60981
245.16876,1.62135
244.92769,1.64442
244.68661,1.68006
244.44554,1.72383
244.20447,1.76906
243.96340,1.81288
243.72233,1.85751
243.48126,1.91263
243.24019,1.97210
242.99912,2.00842
242.75805,2.00527
242.51698,1.90776
242.27591,1.77478
242.03484,1.67360
241.79377,1.59116
241.55270,1.50960
241.31163,1.43031
241.07056,1.36396
240.82949,1.31472
240.58842,1.27546
240.34734,1.23359
240.10627,1.18451
239.86520,1.13639
239.62413,1.09862
239.38306,1.07172
239.14199,1.04870
238.90092,1.02414
238.65985,0.99953
238.41878,0.97869
238.17771,0.96163
237.93664,0.94530
237.69557,0.92811
237.45450,0.91093
237.21343,0.89489
236.97236,0.88099
236.73129,0.87049
236.49022,0.86352
236.24915,0.85809
236.00807,0.85179
235.76700,0.84368
235.52593,0.83392
235.28486,0.82294
235.04379,0.81171
234.80272,0.80193
234.56165,0.79511
234.32058,0.79140
234.07951,0.78972
233.83844,0.78865
233.59737,0.78718
233.35630,0.78521
233.11523,0.78353
232.87416,0.78278
232.63309,0.78239
232.39202,0.78185
232.15095,0.78168
231.90988,0.78189
231.66880,0.78133
231.42773,0.77971
231.18666,0.77816
230.94559,0.77674
230.70452,0.77416
230.46345,0.77045
230.22238,0.76749
229.98131,0.76657
229.74024,0.76673
229.49917,0.76562
229.25810,0.76243
229.01703,0.75955
228.77596,0.75949
228.53489,0.76102
228.29382,0.76164
228.05275,0.76222
227.81168,0.76440
227.57061,0.76584
227.32953,0.76352
227.08846,0.75907
226.84739,0.75632
226.60632,0.75608
226.36525,0.75653
226.12418,0.75674
225.88311,0.75712
225.64204,0.75787
225.40097,0.75946
225.15990,0.76302
224.91883,0.76853
224.67776,0.77415
224.43669,0.77779
224.19562,0.77807
223.95455,0.77547
223.71348,0.77365
223.47241,0.77629
223.23134,0.78268
222.99026,0.78955
222.74919,0.79590
222.50812,0.80259
222.26705,0.80989
222.02598,0.81784
221.78491,0.82608
221.54384,0.83228
221.30277,0.83458
221.06170,0.83541
220.82063,0.83981
220.57956,0.85015
220.33849,0.86343
220.09742,0.87464
219.85635,0.88280
219.61528,0.89156
219.37421,0.90370
219.13314,0.91827
218.89207,0.93333
218.65099,0.94728
218.40992,0.95783
218.16885,0.96415
217.92778,0.96944
217.68671,0.97849
217.44564,0.99388
217.20457,1.01535
216.96350,1.04045
216.72243,1.06481
216.48136,1.08360
216.24029,1.09479
215.99922,1.10060
215.75815,1.10520
215.51708,1.11211
215.27601,1.12363
215.03494,1.13926
214.79387,1.15421
214.55280,1.16528
214.31172,1.17724
214.07065,1.19671
213.82958,1.22204
213.58851,1.24502
213.34744,1.26058
213.10637,1.26948
212.86530,1.27349
212.62423,1.27269
212.38316,1.26805
212.14209,1.26418
211.90102,1.26826
211.65995,1.28534
211.41888,1.31414
211.17781,1.34672
210.93674,1.37081
210.69567,1.37592
210.45460,1.36193
210.21353,1.33949
209.97245,1.32034
209.73138,1.30962
209.49031,1.30871
209.24924,1.31915
209.00817,1.33687
208.76710,1.34649
208.52603,1.33251
208.28496,1.29883
208.04389,1.26422
207.80282,1.24268
207.56175,1.23761
207.32068,1.24587
207.07961,1.25867
206.83854,1.26185
206.59747,1.24619
206.35640,1.21834
206.11533,1.19191
205.87426,1.17402
205.63318,1.16491
205.39211,1.16062
205.15104,1.15455
204.90997,1.14164
204.66890,1.12154
204.42783,1.09666
204.18676,1.07057
203.94569,1.04860
203.70462,1.03518
203.46355,1.03049
203.22248,1.03070
202.98141,1.02887
202.74034,1.01726
202.49927,0.99341
202.25820,0.96457
202.01713,0.94123
201.77606,0.92784
201.53499,0.92131
201.29391,0.91425
201.05284,0.90033
200.81177,0.87982
200.57070,0.85911
200.32963,0.84391
200.08856,0.83474
199.84749,0.82749
199.60642,0.81744
199.36535,0.80378
199.12428,0.78952
198.88321,0.77794
198.64214,0.77043
198.40107,0.76581
198.16000,0.76038
197.91893,0.75015
197.67786,0.73472
197.43679,0.71780
197.19572,0.70430
196.95464,0.69717
196.71357,0.69407
196.47250,0.68804
196.23143,0.67563
195.99036,0.66208
195.74929,0.65434
195.50822,0.65278
195.26715,0.65175
195.02608,0.64590
194.78501,0.63567
194.54394,0.62627
194.30287,0.62134
194.06180,0.61882
193.82073,0.61432
193.57966,0.60763
193.33859,0.60289
193.09752,0.60217
192.85645,0.60186
192.61537,0.59670
192.37430,0.58702
192.13323,0.57842
191.89216,0.57440
191.65109,0.57305
191.41002,0.57046
191.16895,0.56565
190.92788,0.56112
190.68681,0.55893
190.44574,0.55808
190.20467,0.55610
189.96360,0.55224
189.72253,0.54826
189.48146,0.54641
189.24039,0.54725
188.99932,0.54938
188.75825,0.55073
188.51718,0.55012
188.27610,0.54781
188.03503,0.54507
187.79396,0.54307
187.55289,0.54194
187.31182,0.54084
187.07075,0.53923
186.82968,0.53781
186.58861,0.53759
186.34754,0.53812
186.10647,0.53752
185.86540,0.53530
185.62433,0.53367
185.38326,0.53459
185.14219,0.53692
184.90112,0.53869
184.66005,0.54063
184.41898,0.54471
184.17791,0.55012
183.93683,0.55389
183.69576,0.55548
183.45469,0.55763
183.21362,0.56138
182.97255,0.56366
182.73148,0.56237
182.49041,0.56054
182.24934,0.56148
182.00827,0.56367
181.76720,0.56450
181.52613,0.56535
181.28506,0.56832
181.04399,0.57169
180.80292,0.57296
180.56185,0.57327
180.32078,0.57453
180.07971,0.57653
179.83864,0.57920
179.59756,0.58400
179.35649,0.59169
179.11542,0.60157
178.87435,0.61237
178.63328,0.62184
178.39221,0.62835
178.15114,0.63401
177.91007,0.64235
177.66900,0.65334
177.42793,0.66465
177.18686,0.67601
176.94579,0.68849
176.70472,0.70214
176.46365,0.71740
176.22258,0.73561
175.98151,0.75642
175.74044,0.77761
175.49937,0.79813
175.25829,0.81876
175.01722,0.83947
174.77615,0.85936
174.53508,0.88016
174.29401,0.90539
174.05294,0.93368
173.81187,0.95804
173.57080,0.97537
173.32973,0.99067
173.08866,1.00768
172.84759,1.02328
172.60652,1.03331
172.36545,1.03767
172.12438,1.03906
171.88331,1.03921
171.64224,1.03776
171.40117,1.03477
171.16010,1.03216
170.91902,1.03197
170.67795,1.03405
170.43688,1.03576
170.19581,1.03367
169.95474,1.02591
169.71367,1.01400
169.47260,1.00086
169.23153,0.98752
168.99046,0.97411
168.74939,0.96240
168.50832,0.95471
168.26725,0.95109
168.02618,0.94964
167.78511,0.94937
167.54404,0.95176
167.30297,0.95843
167.06190,0.96789
166.82083,0.97581
166.57975,0.97885
166.33868,0.97710
166.09761,0.97322
165.85654,0.97028
165.61547,0.97041
165.37440,0.97493
165.13333,0.98405
164.89226,0.99555
164.65119,1.00716
164.41012,1.02056
164.16905,1.03865
163.92798,1.05888
163.68691,1.07414
163.44584,1.08129
163.20477,1.08559
162.96370,1.09452
162.72263,1.10927
162.48156,1.12470
162.24048,1.13730
161.99941,1.14974
161.75834,1.16487
161.51727,1.17941
161.27620,1.18844
161.03513,1.19104
160.79406,1.18734
160.55299,1.17649
160.31192,1.15981
160.07085,1.14199
159.82978,1.12864
159.58871,1.12338
159.34764,1.12620
159.10657,1.13402
158.86550,1.14080
158.62443,1.13871
158.38336,1.12502
158.14229,1.10647
157.90121,1.09170
157.66014,1.08270
157.41907,1.07672
157.17800,1.07353
156.93693,1.07492
156.69586,1.07581
156.45479,1.06559
156.21372,1.04397
155.97265,1.02346
155.73158,1.01280
155.49051,1.00903
155.24944,1.00528
155.00837,0.99944
154.76730,0.99229
154.52623,0.98196
154.28516,0.96529
154.04409,0.94324
153.80302,0.92080
153.56194,0.90190
153.32087,0.88688
153.07980,0.87411
152.83873,0.86095
152.59766,0.84374
152.35659,0.82047
152.11552,0.79363
151.87445,0.76809
151.63338,0.74717
151.39231,0.73172
151.15124,0.72055
150.91017,0.70977
150.66910,0.69491
150.42803,0.67569
150.18696,0.65600
149.94589,0.63972
149.70482,0.62790
149.46375,0.61907
149.22267,0.61043
148.98160,0.59972
148.74053,0.58770
148.49946,0.57810
148.25839,0.57377
148.01732,0.57337
147.77625,0.57257
147.53518,0.56873
147.29411,0.56369
147.05304,0.56135
146.81197,0.56362
146.57090,0.56897
146.32983,0.57360
146.08876,0.57513
145.84769,0.57528
145.60662,0.57762
145.36555,0.58324
145.12448,0.59005
144.88340,0.59587
144.64233,0.60059
144.40126,0.60499
144.16019,0.60886
143.91912,0.61115
143.67805,0.61144
143.43698,0.60966
143.19591,0.60499
142.95484,0.59694
142.71377,0.58686
142.47270,0.57698
142.23163,0.56822
141.99056,0.56011
141.74949,0.55183
141.50842,0.54280
141.26735,0.53326
141.02628,0.52459
140.78521,0.51825
140.54413,0.51453
140.30306,0.51301
140.06199,0.51380
139.82092,0.51706
139.57985,0.52193
139.33878,0.52725
139.09771,0.53328
138.85664,0.54128
138.61557,0.55138
138.37450,0.56264
138.13343,0.57440
137.89236,0.58616
137.65129,0.59701
137.41022,0.60742
137.16915,0.62050
136.92808,0.63913
136.68701,0.66223
136.44594,0.68661
136.20486,0.71174
135.96379,0.73926
135.72272,0.76841
135.48165,0.79695
135.24058,0.82635
134.99951,0.86039
134.75844,0.89948
134.51737,0.94053
134.27630,0.98014
134.03523,1.01575
133.79416,1.04689
133.55309,1.07464
133.31202,1.09802
133.07095,1.11546
132.82988,1.12908
132.58881,1.14139
132.34774,1.15219
132.10667,1.16248
131.86559,1.17264
131.62452,1.17693
131.38345,1.16783
131.14238,1.14421
130.90131,1.11233
130.66024,1.08055
130.41917,1.05320
130.17810,1.02752
129.93703,0.99661
129.69596,0.95698
129.45489,0.91182
129.21382,0.86758
128.97275,0.82940
128.73168,0.79754
128.49061,0.76785
128.24954,0.73692
128.00847,0.70508
127.76740,0.67456
127.52632,0.64739
127.28525,0.62460
127.04418,0.60545
126.80311,0.58771
126.56204,0.56947
126.32097,0.55015
126.07990,0.53044
125.83883,0.51207
125.59776,0.49733
125.35669,0.48717
125.11562,0.47979
124.87455,0.47216
124.63348,0.46325
124.39241,0.45451
124.15134,0.44705
123.91027,0.44019
123.66920,0.43342
123.42812,0.42765
123.18705,0.42403
122.94598,0.42267
122.70491,0.42338
122.46384,0.42607
122.22277,0.42988
121.98170,0.43297
121.74063,0.43443
121.49956,0.43581
121.25849,0.43911
121.01742,0.44441
120.77635,0.45080
120.53528,0.45864
120.29421,0.46921
120.05314,0.48280
119.81207,0.49856
119.57100,0.51620
119.32993,0.53665
119.08885,0.56121
118.84778,0.59065
118.60671,0.62453
118.36564,0.66072
118.12457,0.69721
117.88350,0.73477
117.64243,0.77399
117.40136,0.80899
117.16029,0.82980
116.91922,0.83362
116.67815,0.82659
116.43708,0.81404
116.19601,0.79632
115.95494,0.77268
115.71387,0.74463
115.47280,0.71635
115.23173,0.69333
114.99066,0.67923
114.74958,0.67407
114.50851,0.67531
114.26744,0.67942
114.02637,0.68290
113.78530,0.68375
113.54423,0.68242
113.30316,0.68104
113.06209,0.68089
112.82102,0.68118
112.57995,0.68096
112.33888,0.68079
112.09781,0.68255
111.85674,0.68868
111.61567,0.70081
111.37460,0.71825
111.13353,0.73848
110.89246,0.75884
110.65139,0.77602
110.41031,0.78554
110.16924,0.78455
109.92817,0.77304
109.68710,0.75215
109.44603,0.72450
109.20496,0.69392
108.96389,0.66308
108.72282,0.63406
108.48175,0.60979
108.24068,0.59176
107.99961,0.57747
107.75854,0.56292
107.51747,0.54625
107.27640,0.52666
107.03533,0.50296
106.79426,0.47684
106.55319,0.45389
106.31212,0.43833
106.07104,0.42926
105.82997,0.42326
105.58890,0.41797
105.34783,0.41130
105.10676,0.40060
104.86569,0.38556
104.62462,0.36931
104.38355,0.35526
104.14248,0.34462
103.90141,0.33752
103.66034,0.33431
103.41927,0.33428
103.17820,0.33396
102.93713,0.32879
102.69606,0.31744
102.45499,0.30338
102.21392,0.29195
101.97285,0.28683
101.73177,0.28827
101.49070,0.29283
101.24963,0.29494
101.00856,0.29081
100.76749,0.28183
100.52642,0.27324
100.28535,0.26924
100.04428,0.27055
99.80321,0.27477
99.56214,0.27725
99.32107,0.27398
99.08000,0.26606
98.83893,0.25949
98.59786,0.25996
98.35679,0.26702
98.11572,0.27254
97.87465,0.26911
97.63358,0.26118
97.39250,0.25977
97.15143,0.26896
96.91036,0.28154
96.66929,0.28679
96.42822,0.28429
96.18715,0.28419
95.94608,0.29368
95.70501,0.30906
95.46394,0.32076
95.22287,0.32610
94.98180,0.33188
94.74073,0.34201
94.49966,0.35024
94.25859,0.34853
94.01752,0.34023
93.77645,0.33580
93.53538,0.33881
93.29431,0.34382
93.05323,0.34612
92.81216,0.34764
92.57109,0.34971
92.33002,0.34857
92.08895,0.34409
91.84788,0.34418
91.60681,0.35345
91.36574,0.36583
91.12467,0.37591
90.88360,0.39097
90.64253,0.41883
90.40146,0.45394
90.16039,0.48915
89.91932,0.53200
89.67825,0.58792
89.43718,0.64405
89.19611,0.68849
88.95504,0.72496
88.71396,0.75259
88.47289,0.76046
88.23182,0.74459
87.99075,0.71038
87.74968,0.66551
87.50861,0.61670
87.26754,0.56688
87.02647,0.51710
86.78540,0.47086
86.54433,0.43161
86.30326,0.39943
86.06219,0.37265
85.82112,0.34962
85.58005,0.32889
85.33898,0.30979
85.09791,0.29240
84.85684,0.27701
84.61577,0.26408
84.37469,0.25361
84.13362,0.24427
83.89255,0.23490
83.65148,0.22601
83.41041,0.21861
83.16934,0.21305
82.92827,0.20942
82.68720,0.20706
82.44613,0.20443
82.20506,0.20106
81.96399,0.19831
81.72292,0.19723
81.48185,0.19695
81.24078,0.19590
80.99971,0.19433
80.75864,0.19411
80.51757,0.19512
80.27650,0.19431
80.03542,0.18994
79.79435,0.18415
79.55328,0.17940
79.31221,0.17561
79.07114,0.17262
78.83007,0.17187
78.58900,0.17356
78.34793,0.17532
78.10686,0.17538
77.86579,0.17438
77.62472,0.17299
77.38365,0.17044
77.14258,0.16645
76.90151,0.16289
76.66044,0.16223
76.41937,0.16488
76.17830,0.16835
75.93723,0.16914
75.69615,0.16614
75.45508,0.16165
75.21401,0.15854
74.97294,0.15751
74.73187,0.15789
74.49080,0.15969
74.24973,0.16342
74.00866,0.16757
73.76759,0.16798
73.52652,0.16237
73.28545,0.15464
73.04438,0.15156
72.80331,0.15638
72.56224,0.16712
72.32117,0.17847
72.08010,0.18457
71.83903,0.18311
71.59796,0.17753
71.35688,0.17324
71.11581,0.17257
70.87474,0.17468
70.63367,0.17885
70.39260,0.18622
70.15153,0.19892
69.91046,0.21842
69.66939,0.24441
69.42832,0.27397
69.18725,0.30002
68.94618,0.31186
68.70511,0.30248
68.46404,0.27602
68.22297,0.24369
67.98190,0.21466
67.74083,0.19276
67.49976,0.17786
67.25869,0.16782
67.01761,0.16033
66.77654,0.15414
66.53547,0.14878
66.29440,0.14389
66.05333,0.13964
65.81226,0.13729
65.57119,0.13809
65.33012,0.14209
65.08905,0.14867
64.84798,0.15780
64.60691,0.16956
64.36584,0.18238
64.12477,0.19257
63.88370,0.19688
63.64263,0.19551
63.40156,0.19095
63.16049,0.18471
62.91942,0.17687
62.67834,0.16819
62.43727,0.16028
62.19620,0.15357
61.95513,0.14725
61.71406,0.14193
61.47299,0.14002
61.23192,0.14255
60.99085,0.14764
60.74978,0.15317
60.50871,0.15957
60.26764,0.16873
60.02657,0.18077
59.78550,0.19323
59.54443,0.20289
59.30336,0.20694
59.06229,0.20302
58.82122,0.19033
58.58015,0.17074
58.33907,0.14824
58.09800,0.12733
57.85693,0.11143
57.61586,0.10209
57.37479,0.09918
57.13372,0.10152
56.89265,0.10795
56.65158,0.11825
56.41051,0.13262
56.16944,0.15042
55.92837,0.16987
55.68730,0.18657
55.44623,0.19229
55.20516,0.18177
54.96409,0.16004
54.72302,0.13767
54.48195,0.12353
54.24088,0.12191
53.99980,0.13287
53.75873,0.15484
53.51766,0.18732
53.27659,0.22761
53.03552,0.25684
52.79445,0.24285
52.55338,0.19138
52.31231,0.13794
52.07124,0.10452
51.83017,0.09805
51.58910,0.11812
51.34803,0.15974
51.10696,0.20615
50.86589,0.21516
50.62482,0.16593
50.38375,0.10500
50.14268,0.07161
49.90161,0.07991
49.66053,0.13271
49.41946,0.19867
49.17839,0.19123
48.93732,0.12397
48.69625,0.08388
48.45518,0.09907
48.21411,0.15942
47.97304,0.20471
47.73197,0.16954
47.49090,0.12467
47.24983,0.12658
47.00876,0.16094
46.76769,0.17008
46.52662,0.13978
46.28555,0.12564
46.04448,0.13971
45.80341,0.14182
45.56234,0.12214
45.32126,0.12217
45.08019,0.14537
44.83912,0.15025
44.59805,0.13471
44.35698,0.13466
44.11591,0.14532
43.87484,0.13930
43.63377,0.12688
43.39270,0.13068
43.15163,0.14517
42.91056,0.15243
42.66949,0.14628
42.42842,0.13174
42.18735,0.11852
41.94628,0.11242
41.70521,0.11116
41.46414,0.11319
41.22307,0.12104
40.98199,0.13470
40.74092,0.15016
40.49985,0.16262
40.25878,0.16858
40.01771,0.16740
39.77664,0.16043
39.53557,0.15024
39.29450,0.14387
39.05343,0.14892
38.81236,0.16291
38.57129,0.17698
38.33022,0.18858
38.08915,0.20230
37.84808,0.22165
37.60701,0.23944
37.36594,0.23776
37.12487,0.21171
36.88380,0.18222
36.64272,0.17244
36.40165,0.18415
36.16058,0.20210
35.91951,0.21025
35.67844,0.20336
35.43737,0.18946
35.19630,0.17591
34.95523,0.16171
34.71416,0.14804
34.47309,0.13689
34.23202,0.12461
33.99095,0.11063
33.74988,0.10255
33.50881,0.10955
33.26774,0.13043
33.02667,0.14841
32.78560,0.14684
32.54453,0.13174
32.30345,0.12001
32.06238,0.11755
31.82131,0.11901
31.58024,0.11046
31.33917,0.08190
31.09810,0.04177
30.85703,0.00571
30.61596,-0.02174
30.37489,-0.04341
30.13382,-0.05755
29.89275,-0.06118
29.65168,-0.06017
29.41061,-0.06579
29.16954,-0.07866
28.92847,-0.08520
28.68740,-0.07960
28.44633,-0.08053
28.20526,-0.11000
27.96418,-0.14929
27.72311,-0.15330
27.48204,-0.11690
27.24097,-0.07476
26.99990,-0.05901
26.75883,-0.08074
26.51776,-0.12949
26.27669,-0.18348
26.03562,-0.22136
25.79455,-0.23141
25.55348,-0.22217
25.31241,-0.21462
25.07134,-0.21450
24.83027,-0.22110
24.58920,-0.24369
24.34813,-0.27924
24.10706,-0.31033
23.86599,-0.32754
23.62491,-0.33809
23.38384,-0.35187
23.14277,-0.37513
22.90170,-0.39182
22.66063,-0.37509
22.41956,-0.34455
22.17849,-0.33615
21.93742,-0.35166
21.69635,-0.37195
21.45528,-0.38705
21.21421,-0.40540
20.97314,-0.42536
20.73207,-0.42635
20.49100,-0.42276
20.24993,-0.42471
20.00886,-0.43100
19.76779,-0.42584
19.52672,-0.39977
19.28564,-0.36741
19.04457,-0.35539
18.80350,-0.37172
18.56243,-0.39772
18.32136,-0.41805
18.08029,-0.43039
17.83922,-0.43250
17.59815,-0.42818
17.35708,-0.43254
17.11601,-0.45344
16.87494,-0.46695
16.63387,-0.46830
16.39280,-0.47804
16.15173,-0.50154
15.91066,-0.51107
15.66959,-0.46477
15.42852,-0.42988
15.18745,-0.42128
14.94637,-0.42279
14.70530,-0.41905
14.46423,-0.41241
14.22316,-0.43055
13.98209,-0.44092
13.74102,-0.42029
13.49995,-0.38157
13.25888,-0.34924
13.01781,-0.33985
12.77674,-0.35908
12.53567,-0.39267
12.29460,-0.41579
12.05353,-0.42746
11.81246,-0.44112
11.57139,-0.44589
11.33032,-0.41400
11.08925,-0.36780
10.84818,-0.35099
10.60710,-0.35635
10.36603,-0.35694
10.12496,-0.37491
9.88389,-0.40573
9.64282,-0.42359
9.40175,-0.42284
9.16068,-0.42119
8.91961,-0.41059
8.67854,-0.39879
8.43747,-0.39431
8.19640,-0.38960
7.95533,-0.38045
7.71426,-0.37605
7.47319,-0.37728
7.23212,-0.39159
6.99105,-0.41072
6.74998,-0.41986
6.50891,-0.41199
6.26783,-0.39496
6.02676,-0.39245
5.78569,-0.39915
5.54462,-0.39332
5.30355,-0.36885
5.06248,-0.34264
4.82141,-0.33994
4.58034,-0.37438
4.33927,-0.42604
4.09820,-0.46149
3.85713,-0.46921
3.61606,-0.43430
3.37499,-0.38447
3.13392,-0.36787
2.89285,-0.38850
2.65178,-0.39049
2.41071,-0.39368
2.16964,-0.41352
1.92856,-0.43167
1.68749,-0.40891
1.44642,-0.41607
1.20535,-0.45319
0.96428,-0.46642
0.72321,-0.44793
0.48214,-0.40657
0.24107,-0.33481
-0.00000,-0.02477
