399.69498,1.48038
399.45391,1.48510
399.21284,1.48567
398.97177,1.48085
398.73070,1.47615
398.48963,1.47453
398.24856,1.47393
398.00749,1.47356
397.76642,1.47296
397.52535,1.46785
397.28428,1.45619
397.04321,1.44416
396.80214,1.43990
396.56107,1.44552
396.32000,1.45666
396.07892,1.46811
395.83785,1.47642
395.59678,1.47806
395.35571,1.47233
395.11464,1.46444
394.87357,1.46135
394.63250,1.46411
394.39143,1.46535
394.15036,1.45862
393.90929,1.44836
393.66822,1.44700
393.42715,1.46044
393.18608,1.47858
392.94501,1.48352
392.70394,1.46915
392.46287,1.44653
392.22180,1.43054
391.98073,1.42812
391.73965,1.43588
391.49858,1.44528
391.25751,1.45151
391.01644,1.45409
390.77537,1.45036
390.53430,1.43805
390.29323,1.42319
390.05216,1.41549
389.81109,1.41563
389.57002,1.41484
389.32895,1.40930
389.08788,1.40683
388.84681,1.41310
388.60574,1.42017
388.36467,1.41717
388.12360,1.40681
387.88253,1.40255
387.64146,1.41392
387.40038,1.44016
387.15931,1.47114
386.91824,1.48874
386.67717,1.47782
386.43610,1.44290
386.19503,1.40352
385.95396,1.37391
385.71289,1.35506
385.47182,1.34325
385.23075,1.33936
384.98968,1.34376
384.74861,1.34672
384.50754,1.33540
384.26647,1.31396
384.02540,1.29933
383.78433,1.29667
383.54326,1.29497
383.30219,1.28385
383.06111,1.26887
382.82004,1.25980
382.57897,1.25506
382.33790,1.25082
382.09683,1.24956
381.85576,1.25140
381.61469,1.24956
381.37362,1.24218
381.13255,1.23515
380.89148,1.23056
380.65041,1.22632
380.40934,1.22569
380.16827,1.23363
379.92720,1.24463
379.68613,1.24585
379.44506,1.23571
379.20399,1.22669
378.96292,1.22831
378.72184,1.24103
378.48077,1.26257
378.23970,1.28875
377.99863,1.31287
377.75756,1.32718
377.51649,1.32721
377.27542,1.32105
377.03435,1.31715
376.79328,1.31465
376.55221,1.31461
376.31114,1.31872
376.07007,1.32558
375.82900,1.33330
375.58793,1.33872
375.34686,1.33903
375.10579,1.33504
374.86472,1.33053
374.62365,1.32907
374.38257,1.33177
374.14150,1.33816
373.90043,1.34696
373.65936,1.35485
373.41829,1.35753
373.17722,1.35235
372.93615,1.34146
372.69508,1.33195
372.45401,1.32909
372.21294,1.33198
371.97187,1.33449
371.73080,1.33173
371.48973,1.32667
371.24866,1.32497
371.00759,1.32585
370.76652,1.32184
370.52545,1.30860
370.28437,1.29127
370.04330,1.27707
369.80223,1.26715
369.56116,1.25785
369.32009,1.24745
369.07902,1.23929
368.83795,1.23749
368.59688,1.24085
368.35581,1.24339
368.11474,1.24150
367.87367,1.23714
367.63260,1.23289
367.39153,1.22974
367.15046,1.22944
366.90939,1.23258
366.66832,1.23483
366.42725,1.23038
366.18618,1.21880
365.94510,1.20493
365.70403,1.19435
365.46296,1.19057
365.22189,1.19188
364.98082,1.19204
364.73975,1.18795
364.49868,1.18301
364.25761,1.18064
364.01654,1.17989
363.77547,1.17839
363.53440,1.17630
363.29333,1.17560
363.05226,1.17832
362.81119,1.18428
362.57012,1.18853
362.32905,1.18559
362.08798,1.17796
361.84691,1.17383
361.60583,1.17586
361.36476,1.17879
361.12369,1.17774
360.88262,1.17297
360.64155,1.16632
360.40048,1.15856
360.15941,1.15143
359.91834,1.14783
359.67727,1.14900
359.43620,1.15319
359.19513,1.15662
358.95406,1.15641
358.71299,1.15406
358.47192,1.15388
358.23085,1.15650
357.98978,1.15704
357.74871,1.15241
357.50764,1.14696
357.26656,1.14629
357.02549,1.14932
356.78442,1.15223
356.54335,1.15512
356.30228,1.15948
356.06121,1.16332
355.82014,1.16390
355.57907,1.16216
355.33800,1.16105
355.09693,1.16213
354.85586,1.16567
354.61479,1.17082
354.37372,1.17499
354.13265,1.17546
353.89158,1.17187
353.65051,1.16663
353.40944,1.16311
353.16837,1.16357
352.92729,1.16815
352.68622,1.17476
352.44515,1.18042
352.20408,1.18260
351.96301,1.17990
351.72194,1.17326
351.48087,1.16653
351.23980,1.16355
350.99873,1.16414
350.75766,1.16466
350.51659,1.16231
350.27552,1.15728
350.03445,1.15122
349.79338,1.14583
349.55231,1.14388
349.31124,1.14753
349.07017,1.15466
348.82910,1.16126
348.58802,1.16684
348.34695,1.17369
348.10588,1.18129
347.86481,1.18593
347.62374,1.18594
347.38267,1.18386
347.14160,1.18285
346.90053,1.18360
346.65946,1.18605
346.41839,1.19196
346.17732,1.20285
345.93625,1.21663
345.69518,1.22873
345.45411,1.23517
345.21304,1.23482
344.97197,1.23081
344.73090,1.22713
344.48983,1.22463
344.24875,1.22179
344.00768,1.21895
343.76661,1.21863
343.52554,1.22101
343.28447,1.22410
343.04340,1.22776
342.80233,1.23281
342.56126,1.23924
342.32019,1.24764
342.07912,1.25629
341.83805,1.25922
341.59698,1.25388
341.35591,1.24779
341.11484,1.25012
340.87377,1.26076
340.63270,1.27333
340.39163,1.28524
340.15056,1.29843
339.90948,1.31103
339.66841,1.31725
339.42734,1.31804
339.18627,1.32209
338.94520,1.33349
338.70413,1.34625
338.46306,1.35237
338.22199,1.35092
337.98092,1.34612
337.73985,1.33928
337.49878,1.32906
337.25771,1.31855
337.01664,1.31449
336.77557,1.31978
336.53450,1.33156
336.29343,1.34582
336.05236,1.36018
335.81129,1.37122
335.57021,1.37289
335.32914,1.36170
335.08807,1.34376
334.84700,1.33064
334.60593,1.32552
334.36486,1.32074
334.12379,1.31198
333.88272,1.30391
333.64165,1.29994
333.40058,1.29749
333.15951,1.29379
332.91844,1.29027
332.67737,1.29040
332.43630,1.29487
332.19523,1.29915
331.95416,1.29902
331.71309,1.29625
331.47202,1.29468
331.23094,1.29365
330.98987,1.28968
330.74880,1.28129
330.50773,1.26930
330.26666,1.25661
330.02559,1.24848
329.78452,1.24810
329.54345,1.25184
329.30238,1.25259
329.06131,1.24854
328.82024,1.24494
328.57917,1.24641
328.33810,1.24986
328.09703,1.24718
327.85596,1.23628
327.61489,1.22513
327.37382,1.22152
327.13275,1.22459
326.89167,1.23005
326.65060,1.23562
326.40953,1.23894
326.16846,1.23594
325.92739,1.22734
325.68632,1.22054
325.44525,1.22149
325.20418,1.23055
324.96311,1.24075
324.72204,1.24165
324.48097,1.23240
324.23990,1.22413
323.99883,1.22568
323.75776,1.23497
323.51669,1.24377
323.27562,1.24603
323.03455,1.24294
322.79348,1.24184
322.55240,1.24795
322.31133,1.25761
322.07026,1.26417
321.82919,1.26772
321.58812,1.27227
321.34705,1.27645
321.10598,1.27501
320.86491,1.26857
320.62384,1.26359
320.38277,1.26157
320.14170,1.25811
319.90063,1.25207
319.65956,1.24802
319.41849,1.24959
319.17742,1.25645
318.93635,1.26673
318.69528,1.27569
318.45421,1.27672
318.21313,1.26980
317.97206,1.26062
317.73099,1.25127
317.48992,1.24212
317.24885,1.23658
317.00778,1.23649
316.76671,1.23936
316.52564,1.24505
316.28457,1.25576
316.04350,1.26645
315.80243,1.26778
315.56136,1.26085
315.32029,1.25729
315.07922,1.26455
314.83815,1.27897
314.59708,1.29321
314.35601,1.30389
314.11494,1.30925
313.87386,1.30635
313.63279,1.29578
313.39172,1.28463
313.15065,1.27944
312.90958,1.28155
312.66851,1.29141
312.42744,1.30548
312.18637,1.31242
311.94530,1.30427
311.70423,1.28869
311.46316,1.28022
311.22209,1.28249
310.98102,1.28924
310.73995,1.29815
310.49888,1.31059
310.25781,1.32094
310.01674,1.32085
309.77567,1.31329
309.53459,1.30852
309.29352,1.31041
309.05245,1.31724
308.81138,1.32833
308.57031,1.34089
308.32924,1.34919
308.08817,1.35419
307.84710,1.36131
307.60603,1.36599
307.36496,1.36006
307.12389,1.35060
306.88282,1.35031
306.64175,1.35638
306.40068,1.35711
306.15961,1.35236
305.91854,1.35075
305.67747,1.35161
305.43640,1.34678
305.19532,1.33634
304.95425,1.32706
304.71318,1.32033
304.47211,1.31386
304.23104,1.30905
303.98997,1.30731
303.74890,1.30530
303.50783,1.29892
303.26676,1.28779
303.02569,1.27468
302.78462,1.26408
302.54355,1.26030
302.30248,1.26405
302.06141,1.27193
301.82034,1.27989
301.57927,1.28441
301.33820,1.28185
301.09713,1.27160
300.85605,1.25809
300.61498,1.24583
300.37391,1.23576
300.13284,1.22861
299.89177,1.22686
299.65070,1.22933
299.40963,1.22855
299.16856,1.21868
298.92749,1.20389
298.68642,1.19291
298.44535,1.18818
298.20428,1.18581
297.96321,1.18307
297.72214,1.18198
297.48107,1.18614
297.24000,1.19443
296.99893,1.19869
296.75786,1.19102
296.51678,1.17339
296.27571,1.15560
296.03464,1.14596
295.79357,1.14676
295.55250,1.15315
295.31143,1.15551
295.07036,1.14840
294.82929,1.13689
294.58822,1.13020
294.34715,1.13157
294.10608,1.13658
293.86501,1.13885
293.62394,1.13616
293.38287,1.13087
293.14180,1.12526
292.90073,1.11899
292.65966,1.11162
292.41859,1.10493
292.17751,1.10150
291.93644,1.10224
291.69537,1.10602
291.45430,1.11003
291.21323,1.11044
290.97216,1.10528
290.73109,1.09658
290.49002,1.08749
290.24895,1.07968
290.00788,1.07445
289.76681,1.07383
289.52574,1.07777
289.28467,1.08149
289.04360,1.07991
288.80253,1.07411
288.56146,1.06965
288.32039,1.07008
288.07932,1.07436
287.83824,1.07857
287.59717,1.07916
287.35610,1.07555
287.11503,1.07050
286.87396,1.06696
286.63289,1.06553
286.39182,1.06590
286.15075,1.06765
285.90968,1.06835
285.66861,1.06435
285.42754,1.05608
285.18647,1.04917
284.94540,1.04807
284.70433,1.05137
284.46326,1.05468
284.22219,1.05630
283.98112,1.05789
283.74005,1.06079
283.49897,1.06400
283.25790,1.06506
283.01683,1.06207
282.77576,1.05579
282.53469,1.04992
282.29362,1.04792
282.05255,1.04954
281.81148,1.05163
281.57041,1.05171
281.32934,1.04965
281.08827,1.04680
280.84720,1.04534
280.60613,1.04698
280.36506,1.05071
280.12399,1.05318
279.88292,1.05305
279.64185,1.05273
279.40078,1.05475
279.15970,1.05876
278.91863,1.06224
278.67756,1.06242
278.43649,1.05875
278.19542,1.05340
277.95435,1.04838
277.71328,1.04459
277.47221,1.04398
277.23114,1.04846
276.99007,1.05605
276.74900,1.06259
276.50793,1.06701
276.26686,1.07029
276.02579,1.07156
275.78472,1.07002
275.54365,1.06767
275.30258,1.06721
275.06151,1.06965
274.82043,1.07391
274.57936,1.07752
274.33829,1.07866
274.09722,1.07826
273.85615,1.07854
273.61508,1.07994
273.37401,1.08198
273.13294,1.08566
272.89187,1.09186
272.65080,1.09826
272.40973,1.10130
272.16866,1.10141
271.92759,1.10235
271.68652,1.10508
271.44545,1.10668
271.20438,1.10589
270.96331,1.10479
270.72224,1.10494
270.48116,1.10653
270.24009,1.11037
269.99902,1.11692
269.75795,1.12481
269.51688,1.13251
269.27581,1.13990
269.03474,1.14625
268.79367,1.14968
268.55260,1.15034
268.31153,1.15144
268.07046,1.15566
267.82939,1.16269
267.58832,1.17074
267.34725,1.17903
267.10618,1.18719
266.86511,1.19370
266.62404,1.19711
266.38297,1.19888
266.14189,1.20263
265.90082,1.20977
265.65975,1.21866
265.41868,1.22833
265.17761,1.24004
264.93654,1.25427
264.69547,1.26888
264.45440,1.28132
264.21333,1.29063
263.97226,1.29813
263.73119,1.30708
263.49012,1.31999
263.24905,1.33561
263.00798,1.35127
262.76691,1.36792
262.52584,1.38896
262.28477,1.41371
262.04370,1.43518
261.80262,1.44746
261.56155,1.45433
261.32048,1.46574
261.07941,1.48653
260.83834,1.51256
260.59727,1.53718
260.35620,1.55863
260.11513,1.57972
259.87406,1.60440
259.63299,1.63731
259.39192,1.67993
259.15085,1.72425
258.90978,1.75885
258.66871,1.77981
258.42764,1.78520
258.18657,1.77667
257.94550,1.76840
257.70443,1.77561
257.46335,1.79914
257.22228,1.82100
256.98121,1.81665
256.74014,1.77985
256.49907,1.73074
256.25800,1.69424
256.01693,1.67728
255.77586,1.66694
255.53479,1.64852
255.29372,1.62519
255.05265,1.61225
254.81158,1.61329
254.57051,1.61021
254.32944,1.58435
254.08837,1.54554
253.84730,1.52160
253.60623,1.52425
253.36516,1.53905
253.12408,1.54489
252.88301,1.53655
252.64194,1.52568
252.40087,1.52135
252.15980,1.51971
251.91873,1.51423
251.67766,1.50462
251.43659,1.49245
251.19552,1.47813
250.95445,1.46551
250.71338,1.46218
250.47231,1.47023
250.23124,1.48091
249.99017,1.48424
249.74910,1.48063
249.50803,1.47645
249.26696,1.47311
249.02589,1.46801
248.78481,1.46409
248.54374,1.46820
248.30267,1.47967
248.06160,1.49026
247.82053,1.49426
247.57946,1.49245
247.33839,1.48918
247.09732,1.48909
246.85625,1.49319
246.61518,1.49849
246.37411,1.50265
246.13304,1.50604
245.89197,1.51113
245.65090,1.51939
245.40983,1.53021
245.16876,1.54222
244.92769,1.55502
244.68661,1.57072
244.44554,1.59085
244.20447,1.61397
243.96340,1.64067
243.72233,1.67953
243.48126,1.74291
243.24019,1.82707
242.99912,1.90159
242.75805,1.93971
242.51698,1.92223
242.27591,1.80785
242.03484,1.69194
241.79377,1.60727
241.55270,1.53765
241.31163,1.46728
241.07056,1.39456
240.82949,1.32837
240.58842,1.27432
240.34734,1.22963
240.10627,1.18878
239.86520,1.14886
239.62413,1.10986
239.38306,1.07366
239.14199,1.04305
238.90092,1.01912
238.65985,0.99927
238.41878,0.97968
238.17771,0.95918
237.93664,0.93895
237.69557,0.91983
237.45450,0.90161
237.21343,0.88463
236.97236,0.87014
236.73129,0.85876
236.49022,0.85002
236.24915,0.84291
236.00807,0.83592
235.76700,0.82767
235.52593,0.81863
235.28486,0.81073
235.04379,0.80486
234.80272,0.80025
234.56165,0.79626
234.32058,0.79293
234.07951,0.78995
233.83844,0.78700
233.59737,0.78461
233.35630,0.78346
233.11523,0.78323
232.87416,0.78265
232.63309,0.78061
232.39202,0.77733
232.15095,0.77415
231.90988,0.77218
231.66880,0.77133
231.42773,0.77074
231.18666,0.76964
230.94559,0.76784
230.70452,0.76573
230.46345,0.76366
230.22238,0.76168
229.98131,0.75981
229.74024,0.75846
229.49917,0.75810
229.25810,0.75854
229.01703,0.75951
228.77596,0.76143
228.53489,0.76436
228.29382,0.76632
228.05275,0.76497
227.81168,0.76115
227.57061,0.75809
227.32953,0.75711
227.08846,0.75675
226.84739,0.75596
226.60632,0.75577
226.36525,0.75697
226.12418,0.75790
225.88311,0.75638
225.64204,0.75291
225.40097,0.75007
225.15990,0.74960
224.91883,0.75156
224.67776,0.75551
224.43669,0.76096
224.19562,0.76707
223.95455,0.77284
223.71348,0.77765
223.47241,0.78139
223.23134,0.78463
222.99026,0.78850
222.74919,0.79352
222.50812,0.79851
222.26705,0.80158
222.02598,0.80284
221.78491,0.80493
221.54384,0.81031
221.30277,0.81889
221.06170,0.82844
220.82063,0.83716
220.57956,0.84563
220.33849,0.85589
220.09742,0.86861
219.85635,0.88198
219.61528,0.89368
219.37421,0.90332
219.13314,0.91260
218.89207,0.92351
218.65099,0.93590
218.40992,0.94765
218.16885,0.95767
217.92778,0.96754
217.68671,0.97963
217.44564,0.99516
217.20457,1.01424
216.96350,1.03600
216.72243,1.05910
216.48136,1.08162
216.24029,1.09938
215.99922,1.10877
215.75815,1.11404
215.51708,1.12519
215.27601,1.14630
215.03494,1.17195
214.79387,1.19477
214.55280,1.21185
214.31172,1.22469
214.07065,1.23676
213.82958,1.25020
213.58851,1.26342
213.34744,1.27282
213.10637,1.27734
212.86530,1.28022
212.62423,1.28601
212.38316,1.29699
212.14209,1.31152
211.90102,1.32427
211.65995,1.33051
211.41888,1.33259
211.17781,1.33722
210.93674,1.34583
210.69567,1.35315
210.45460,1.35565
210.21353,1.35503
209.97245,1.35296
209.73138,1.34986
209.49031,1.34662
209.24924,1.34333
209.00817,1.33976
208.76710,1.33874
208.52603,1.34166
208.28496,1.34116
208.04389,1.32838
207.80282,1.30578
207.56175,1.28380
207.32068,1.26995
207.07961,1.26464
206.83854,1.26249
206.59747,1.25667
206.35640,1.24428
206.11533,1.22791
205.87426,1.21203
205.63318,1.19801
205.39211,1.18251
205.15104,1.16208
204.90997,1.13827
204.66890,1.11573
204.42783,1.09757
204.18676,1.08450
203.94569,1.07532
203.70462,1.06727
203.46355,1.05814
203.22248,1.04736
202.98141,1.03411
202.74034,1.01642
202.49927,0.99413
202.25820,0.97028
202.01713,0.94762
201.77606,0.92717
201.53499,0.90997
201.29391,0.89592
201.05284,0.88200
200.81177,0.86540
200.57070,0.84757
200.32963,0.83171
200.08856,0.81852
199.84749,0.80686
199.60642,0.79644
199.36535,0.78767
199.12428,0.78009
198.88321,0.77166
198.64214,0.75968
198.40107,0.74375
198.16000,0.72751
197.91893,0.71540
197.67786,0.70816
197.43679,0.70291
197.19572,0.69667
196.95464,0.68822
196.71357,0.67745
196.47250,0.66525
196.23143,0.65383
195.99036,0.64526
195.74929,0.63974
195.50822,0.63534
195.26715,0.62925
195.02608,0.62045
194.78501,0.61112
194.54394,0.60460
194.30287,0.60204
194.06180,0.60144
193.82073,0.59950
193.57966,0.59466
193.33859,0.58831
193.09752,0.58314
192.85645,0.58013
192.61537,0.57729
192.37430,0.57229
192.13323,0.56579
191.89216,0.56052
191.65109,0.55750
191.41002,0.55496
191.16895,0.55113
190.92788,0.54629
190.68681,0.54182
190.44574,0.53841
190.20467,0.53598
189.96360,0.53458
189.72253,0.53428
189.48146,0.53440
189.24039,0.53366
188.99932,0.53139
188.75825,0.52838
188.51718,0.52636
188.27610,0.52632
188.03503,0.52762
187.79396,0.52879
187.55289,0.52879
187.31182,0.52764
187.07075,0.52636
186.82968,0.52603
186.58861,0.52634
186.34754,0.52559
186.10647,0.52280
185.86540,0.51946
185.62433,0.51802
185.38326,0.51943
185.14219,0.52225
184.90112,0.52458
184.66005,0.52648
184.41898,0.52937
184.17791,0.53330
183.93683,0.53657
183.69576,0.53845
183.45469,0.54027
183.21362,0.54292
182.97255,0.54513
182.73148,0.54574
182.49041,0.54582
182.24934,0.54654
182.00827,0.54702
181.76720,0.54644
181.52613,0.54623
181.28506,0.54798
181.04399,0.55075
180.80292,0.55281
180.56185,0.55460
180.32078,0.55802
180.07971,0.56341
179.83864,0.56889
179.59756,0.57295
179.35649,0.57651
179.11542,0.58120
178.87435,0.58718
178.63328,0.59412
178.39221,0.60272
178.15114,0.61336
177.91007,0.62535
177.66900,0.63847
177.42793,0.65287
177.18686,0.66745
176.94579,0.68099
176.70472,0.69489
176.46365,0.71123
176.22258,0.72923
175.98151,0.74723
175.74044,0.76639
175.49937,0.78846
175.25829,0.81197
175.01722,0.83462
174.77615,0.85697
174.53508,0.88107
174.29401,0.90801
174.05294,0.93721
173.81187,0.96500
173.57080,0.98608
173.32973,1.00038
173.08866,1.01346
172.84759,1.02793
172.60652,1.04142
172.36545,1.05254
172.12438,1.06139
171.88331,1.06629
171.64224,1.06638
171.40117,1.06429
171.16010,1.06192
170.91902,1.05750
170.67795,1.04841
170.43688,1.03457
170.19581,1.01916
169.95474,1.00615
169.71367,0.99661
169.47260,0.98859
169.23153,0.98070
168.99046,0.97384
168.74939,0.96899
168.50832,0.96563
168.26725,0.96286
168.02618,0.96005
167.78511,0.95660
167.54404,0.95282
167.30297,0.95044
167.06190,0.95104
166.82083,0.95464
166.57975,0.95983
166.33868,0.96458
166.09761,0.96816
165.85654,0.97255
165.61547,0.97976
165.37440,0.98890
165.13333,0.99843
164.89226,1.00966
164.65119,1.02478
164.41012,1.04255
164.16905,1.05933
163.92798,1.07386
163.68691,1.08825
163.44584,1.10457
163.20477,1.12201
162.96370,1.13723
162.72263,1.14695
162.48156,1.15089
162.24048,1.15315
161.99941,1.16048
161.75834,1.17689
161.51727,1.19876
161.27620,1.21588
161.03513,1.22040
160.79406,1.21405
160.55299,1.20303
160.31192,1.18921
160.07085,1.17158
159.82978,1.15319
159.58871,1.14030
159.34764,1.13602
159.10657,1.13753
158.86550,1.13967
158.62443,1.13981
158.38336,1.13769
158.14229,1.13214
157.90121,1.12102
157.66014,1.10510
157.41907,1.08851
157.17800,1.07422
156.93693,1.06164
156.69586,1.04942
156.45479,1.03957
156.21372,1.03657
155.97265,1.04162
155.73158,1.04903
155.49051,1.04913
155.24944,1.03573
155.00837,1.01209
154.76730,0.98704
154.52623,0.96607
154.28516,0.94944
154.04409,0.93534
153.80302,0.92156
153.56194,0.90586
153.32087,0.88734
153.07980,0.86704
152.83873,0.84603
152.59766,0.82414
152.35659,0.80123
152.11552,0.77853
151.87445,0.75767
151.63338,0.73899
151.39231,0.72193
151.15124,0.70628
150.91017,0.69166
150.66910,0.67653
150.42803,0.65956
150.18696,0.64149
149.94589,0.62460
149.70482,0.61078
149.46375,0.60065
149.22267,0.59317
148.98160,0.58597
148.74053,0.57735
148.49946,0.56745
148.25839,0.55739
148.01732,0.54857
147.77625,0.54278
147.53518,0.54119
147.29411,0.54270
147.05304,0.54433
146.81197,0.54375
146.57090,0.54137
146.32983,0.53998
146.08876,0.54223
145.84769,0.54822
145.60662,0.55574
145.36555,0.56265
145.12448,0.56872
144.88340,0.57499
144.64233,0.58195
144.40126,0.58909
144.16019,0.59530
143.91912,0.59948
143.67805,0.60071
143.43698,0.59832
143.19591,0.59212
142.95484,0.58284
142.71377,0.57200
142.47270,0.56107
142.23163,0.55106
141.99056,0.54239
141.74949,0.53458
141.50842,0.52667
141.26735,0.51892
141.02628,0.51287
140.78521,0.50906
140.54413,0.50620
140.30306,0.50332
140.06199,0.50152
139.82092,0.50265
139.57985,0.50715
139.33878,0.51367
139.09771,0.52049
138.85664,0.52716
138.61557,0.53490
138.37450,0.54499
138.13343,0.55726
137.89236,0.57061
137.65129,0.58473
137.41022,0.60010
137.16915,0.61686
136.92808,0.63477
136.68701,0.65429
136.44594,0.67654
136.20486,0.70174
135.96379,0.72899
135.72272,0.75806
135.48165,0.79043
135.24058,0.82745
134.99951,0.86782
134.75844,0.90814
134.51737,0.94618
134.27630,0.98223
134.03523,1.01699
133.79416,1.04974
133.55309,1.08022
133.31202,1.11064
133.07095,1.14386
132.82988,1.17940
132.58881,1.21021
132.34774,1.22650
132.10667,1.22823
131.86559,1.22527
131.62452,1.22059
131.38345,1.20731
131.14238,1.18435
130.90131,1.15915
130.66024,1.13259
130.41917,1.09816
130.17810,1.05526
129.93703,1.01047
129.69596,0.96834
129.45489,0.92847
129.21382,0.88832
128.97275,0.84625
128.73168,0.80365
128.49061,0.76386
128.24954,0.72879
128.00847,0.69801
127.76740,0.67039
127.52632,0.64509
127.28525,0.62125
127.04418,0.59811
126.80311,0.57571
126.56204,0.55498
126.32097,0.53645
126.07990,0.51974
125.83883,0.50445
125.59776,0.49084
125.35669,0.47921
125.11562,0.46918
124.87455,0.46005
124.63348,0.45131
124.39241,0.44248
124.15134,0.43337
123.91027,0.42468
123.66920,0.41760
123.42812,0.41252
123.18705,0.40883
122.94598,0.40614
122.70491,0.40493
122.46384,0.40585
122.22277,0.40870
121.98170,0.41251
121.74063,0.41613
121.49956,0.41916
121.25849,0.42285
121.01742,0.42937
120.77635,0.43941
120.53528,0.45127
120.29421,0.46324
120.05314,0.47610
119.81207,0.49218
119.57100,0.51282
119.32993,0.53755
119.08885,0.56503
118.84778,0.59419
118.60671,0.62481
118.36564,0.65749
118.12457,0.69242
117.88350,0.72772
117.64243,0.75947
117.40136,0.78431
117.16029,0.80114
116.91922,0.80956
116.67815,0.80943
116.43708,0.80250
116.19601,0.79123
115.95494,0.77649
115.71387,0.75902
115.47280,0.74096
115.23173,0.72374
114.99066,0.70713
114.74958,0.69196
114.50851,0.68069
114.26744,0.67428
114.02637,0.67121
113.78530,0.67011
113.54423,0.67071
113.30316,0.67218
113.06209,0.67347
112.82102,0.67527
112.57995,0.67945
112.33888,0.68679
112.09781,0.69657
111.85674,0.70783
111.61567,0.71968
111.37460,0.73127
111.13353,0.74185
110.89246,0.75005
110.65139,0.75419
110.41031,0.75427
110.16924,0.75178
109.92817,0.74697
109.68710,0.73861
109.44603,0.72595
109.20496,0.70780
108.96389,0.68158
108.72282,0.64739
108.48175,0.61078
108.24068,0.57784
107.99961,0.55036
107.75854,0.52748
107.51747,0.50879
107.27640,0.49379
107.03533,0.48088
106.79426,0.46833
106.55319,0.45520
106.31212,0.44122
106.07104,0.42650
105.82997,0.41116
105.58890,0.39523
105.34783,0.37973
105.10676,0.36685
104.86569,0.35803
104.62462,0.35219
104.38355,0.34687
104.14248,0.34093
103.90141,0.33466
103.66034,0.32806
103.41927,0.32039
103.17820,0.31144
102.93713,0.30212
102.69606,0.29387
102.45499,0.28786
102.21392,0.28445
101.97285,0.28279
101.73177,0.28152
101.49070,0.27992
101.24963,0.27784
101.00856,0.27486
100.76749,0.27036
100.52642,0.26448
100.28535,0.25831
100.04428,0.25335
99.80321,0.25097
99.56214,0.25156
99.32107,0.25348
99.08000,0.25306
98.83893,0.24757
98.59786,0.23908
98.35679,0.23345
98.11572,0.23547
97.87465,0.24480
97.63358,0.25512
97.39250,0.25915
97.15143,0.25669
96.91036,0.25467
96.66929,0.25854
96.42822,0.26773
96.18715,0.27794
95.94608,0.28561
95.70501,0.29103
95.46394,0.29750
95.22287,0.30712
94.98180,0.31803
94.74073,0.32614
94.49966,0.32949
94.25859,0.33035
94.01752,0.33203
93.77645,0.33442
93.53538,0.33429
93.29431,0.33120
93.05323,0.32982
92.81216,0.33331
92.57109,0.33781
92.33002,0.33755
92.08895,0.33436
91.84788,0.33552
91.60681,0.34287
91.36574,0.35132
91.12467,0.35888
90.88360,0.37285
90.64253,0.40051
90.40146,0.43895
90.16039,0.47982
89.91932,0.52276
89.67825,0.57491
89.43718,0.63446
89.19611,0.68701
88.95504,0.72400
88.71396,0.74867
88.47289,0.75707
88.23182,0.73826
87.99075,0.69576
87.74968,0.64289
87.50861,0.58739
87.26754,0.53475
87.02647,0.48945
86.78540,0.44979
86.54433,0.41257
86.30326,0.38020
86.06219,0.35569
85.82112,0.33615
85.58005,0.31710
85.33898,0.29822
85.09791,0.28114
84.85684,0.26607
84.61577,0.25259
84.37469,0.24056
84.13362,0.22985
83.89255,0.22074
83.65148,0.21409
83.41041,0.20998
83.16934,0.20667
82.92827,0.20197
82.68720,0.19571
82.44613,0.18972
82.20506,0.18526
81.96399,0.18192
81.72292,0.17893
81.48185,0.17623
81.24078,0.17424
80.99971,0.17307
80.75864,0.17189
80.51757,0.16945
80.27650,0.16569
80.03542,0.16206
79.79435,0.16021
79.55328,0.16084
79.31221,0.16321
79.07114,0.16533
78.83007,0.16561
78.58900,0.16466
78.34793,0.16405
78.10686,0.16364
77.86579,0.16200
77.62472,0.15901
77.38365,0.15626
77.14258,0.15490
76.90151,0.15454
76.66044,0.15430
76.41937,0.15397
76.17830,0.15375
75.93723,0.15345
75.69615,0.15234
75.45508,0.15028
75.21401,0.14867
74.97294,0.14919
74.73187,0.15162
74.49080,0.15360
74.24973,0.15315
74.00866,0.15078
73.76759,0.14843
73.52652,0.14707
73.28545,0.14629
73.04438,0.14577
72.80331,0.14589
72.56224,0.14702
72.32117,0.14838
72.08010,0.14867
71.83903,0.14835
71.59796,0.15044
71.35688,0.15685
71.11581,0.16430
70.87474,0.16717
70.63367,0.16520
70.39260,0.16466
70.15153,0.17189
69.91046,0.18884
69.66939,0.21332
69.42832,0.24056
69.18725,0.26403
68.94618,0.27695
68.70511,0.27526
68.46404,0.26011
68.22297,0.23721
67.98190,0.21304
67.74083,0.19160
67.49976,0.17448
67.25869,0.16223
67.01761,0.15440
66.77654,0.14923
66.53547,0.14493
66.29440,0.14131
66.05333,0.13935
65.81226,0.13965
65.57119,0.14238
65.33012,0.14788
65.08905,0.15603
64.84798,0.16593
64.60691,0.17681
64.36584,0.18829
64.12477,0.19897
63.88370,0.20609
63.64263,0.20751
63.40156,0.20299
63.16049,0.19371
62.91942,0.18201
62.67834,0.17099
62.43727,0.16244
62.19620,0.15535
61.95513,0.14772
61.71406,0.13943
61.47299,0.13181
61.23192,0.12515
60.99085,0.11863
60.74978,0.11274
60.50871,0.10957
60.26764,0.11047
60.02657,0.11464
59.78550,0.12013
59.54443,0.12561
59.30336,0.13137
59.06229,0.13810
58.82122,0.14460
58.58015,0.14915
58.33907,0.15325
58.09800,0.16027
57.85693,0.17027
57.61586,0.17940
57.37479,0.18419
57.13372,0.18362
56.89265,0.17758
56.65158,0.16623
56.41051,0.15123
56.16944,0.13611
55.92837,0.12456
55.68730,0.11829
55.44623,0.11693
55.20516,0.11994
54.96409,0.12776
54.72302,0.14114
54.48195,0.15895
54.24088,0.17733
53.99980,0.19142
53.75873,0.19728
53.51766,0.19269
53.27659,0.17866
53.03552,0.15939
52.79445,0.13994
52.55338,0.12539
52.31231,0.12015
52.07124,0.12566
51.83017,0.13980
51.58910,0.15901
51.34803,0.17930
51.10696,0.19444
50.86589,0.19431
50.62482,0.17224
50.38375,0.13692
50.14268,0.10778
49.90161,0.10058
49.66053,0.12239
49.41946,0.17119
49.17839,0.22070
48.93732,0.21551
48.69625,0.16159
48.45518,0.11798
48.21411,0.11160
47.97304,0.14485
47.73197,0.19724
47.49090,0.21351
47.24983,0.17814
47.00876,0.14759
46.76769,0.14832
46.52662,0.16066
46.28555,0.15326
46.04448,0.13586
45.80341,0.14027
45.56234,0.16821
45.32126,0.18330
45.08019,0.16750
44.83912,0.15824
44.59805,0.17397
44.35698,0.18594
44.11591,0.17320
43.87484,0.16321
43.63377,0.17194
43.39270,0.18180
43.15163,0.18143
42.91056,0.18016
42.66949,0.18064
42.42842,0.17958
42.18735,0.17936
41.94628,0.17776
41.70521,0.17090
41.46414,0.16519
41.22307,0.16639
40.98199,0.17115
40.74092,0.17730
40.49985,0.18716
40.25878,0.20048
40.01771,0.21181
39.77664,0.21479
39.53557,0.21029
39.29450,0.20813
39.05343,0.21668
38.81236,0.23244
38.57129,0.24401
38.33022,0.24633
38.08915,0.24694
37.84808,0.25725
37.60701,0.27517
37.36594,0.28157
37.12487,0.26643
36.88380,0.24398
36.64272,0.23217
36.40165,0.23489
36.16058,0.24626
35.91951,0.26081
35.67844,0.27423
35.43737,0.27942
35.19630,0.27221
34.95523,0.25831
34.71416,0.24349
34.47309,0.22895
34.23202,0.22058
33.99095,0.22482
33.74988,0.23200
33.50881,0.22113
33.26774,0.18963
33.02667,0.16383
32.78560,0.16668
32.54453,0.18905
32.30345,0.20318
32.06238,0.19486
31.82131,0.17270
31.58024,0.15078
31.33917,0.13496
31.09810,0.12557
30.85703,0.11938
30.61596,0.11227
30.37489,0.10884
30.13382,0.11415
29.89275,0.12014
29.65168,0.11278
29.41061,0.08995
29.16954,0.06337
28.92847,0.04031
28.68740,0.01878
28.44633,-0.00066
28.20526,-0.01269
27.96418,-0.01676
27.72311,-0.01986
27.48204,-0.02876
27.24097,-0.04608
26.99990,-0.06549
26.75883,-0.07718
26.51776,-0.08451
26.27669,-0.09659
26.03562,-0.11007
25.79455,-0.11288
25.55348,-0.10500
25.31241,-0.10089
25.07134,-0.10936
24.83027,-0.12904
24.58920,-0.15329
24.34813,-0.17423
24.10706,-0.19444
23.86599,-0.22326
23.62491,-0.25818
23.38384,-0.27830
23.14277,-0.27114
22.90170,-0.25656
22.66063,-0.25953
22.41956,-0.27673
22.17849,-0.27766
21.93742,-0.24935
21.69635,-0.21813
21.45528,-0.21451
21.21421,-0.24517
20.97314,-0.28786
20.73207,-0.31192
20.49100,-0.31467
20.24993,-0.30997
20.00886,-0.30862
19.76779,-0.31030
19.52672,-0.30702
19.28564,-0.30316
19.04457,-0.31123
18.80350,-0.32970
18.56243,-0.34214
18.32136,-0.33994
18.08029,-0.33586
17.83922,-0.34363
17.59815,-0.35259
17.35708,-0.34195
17.11601,-0.31913
16.87494,-0.31231
16.63387,-0.32629
16.39280,-0.33539
16.15173,-0.31919
15.91066,-0.28835
15.66959,-0.27073
15.42852,-0.28326
15.18745,-0.31689
14.94637,-0.33908
14.70530,-0.33559
14.46423,-0.33264
14.22316,-0.35203
13.98209,-0.37893
13.74102,-0.37880
13.49995,-0.35409
13.25888,-0.33847
13.01781,-0.34388
12.77674,-0.35588
12.53567,-0.35419
12.29460,-0.33862
12.05353,-0.33044
11.81246,-0.33901
11.57139,-0.35047
11.33032,-0.34957
11.08925,-0.34506
10.84818,-0.34895
10.60710,-0.36210
10.36603,-0.37257
10.12496,-0.36431
9.88389,-0.35006
9.64282,-0.35142
9.40175,-0.36512
9.16068,-0.37391
8.91961,-0.36406
8.67854,-0.34360
8.43747,-0.33822
8.19640,-0.35737
7.95533,-0.37407
7.71426,-0.35387
7.47319,-0.31630
7.23212,-0.30090
6.99105,-0.31625
6.74998,-0.34674
6.50891,-0.36968
6.26783,-0.36673
6.02676,-0.35085
5.78569,-0.33031
5.54462,-0.30434
5.30355,-0.28836
5.06248,-0.29497
4.82141,-0.31682
4.58034,-0.34279
4.33927,-0.35861
4.09820,-0.34744
3.85713,-0.32467
3.61606,-0.31331
3.37499,-0.31379
3.13392,-0.32232
2.89285,-0.33787
2.65178,-0.34942
2.41071,-0.34867
2.16964,-0.34288
1.92856,-0.33636
1.68749,-0.32944
1.44642,-0.33046
1.20535,-0.33642
0.96428,-0.34266
0.72321,-0.37874
0.48214,-0.44312
0.24107,-0.43628
-0.00000,-0.32225
