399.69498,1.60297
399.45391,1.63020
399.21284,1.66166
398.97177,1.68236
398.73070,1.68349
398.48963,1.67959
398.24856,1.68906
398.00749,1.70507
397.76642,1.70712
397.52535,1.69462
397.28428,1.68198
397.04321,1.67063
396.80214,1.65501
396.56107,1.64490
396.32000,1.65305
396.07892,1.66869
395.83785,1.67315
395.59678,1.66873
395.35571,1.67138
395.11464,1.69037
394.87357,1.72303
394.63250,1.75353
394.39143,1.75529
394.15036,1.73180
393.90929,1.72096
393.66822,1.74379
393.42715,1.79188
393.18608,1.83921
392.94501,1.85536
392.70394,1.84335
392.46287,1.83807
392.22180,1.86886
391.98073,1.95295
391.73965,2.06154
391.49858,2.12194
391.25751,2.12049
391.01644,2.09988
390.77537,2.08486
390.53430,2.05942
390.29323,2.00210
390.05216,1.93720
389.81109,1.90524
389.57002,1.91894
389.32895,1.98634
389.08788,2.10706
388.84681,2.20254
388.60574,2.21505
388.36467,2.26997
388.12360,2.40835
387.88253,2.38126
387.64146,2.17040
387.40038,2.05439
387.15931,2.02633
386.91824,2.03465
386.67717,2.08950
386.43610,2.17719
386.19503,2.27209
385.95396,2.30455
385.71289,2.19653
385.47182,2.05528
385.23075,2.06404
384.98968,2.24732
384.74861,2.41532
384.50754,2.51951
384.26647,2.40207
384.02540,2.34174
383.78433,2.18762
383.54326,2.05021
383.30219,2.06365
383.06111,2.24102
382.82004,2.38075
382.57897,2.23499
382.33790,2.20044
382.09683,2.34545
381.85576,2.49234
381.61469,2.41048
381.37362,2.30446
381.13255,2.22788
380.89148,2.13894
380.65041,2.07739
380.40934,2.05888
380.16827,2.06524
379.92720,2.07098
379.68613,2.08925
379.44506,2.16351
379.20399,2.18836
378.96292,2.11555
378.72184,2.04223
378.48077,2.01844
378.23970,2.03382
377.99863,2.05739
377.75756,2.08749
377.51649,2.08032
377.27542,2.08686
377.03435,2.15580
376.79328,2.26034
376.55221,2.35179
376.31114,2.37247
376.07007,2.24677
375.82900,2.11415
375.58793,2.02347
375.34686,1.97984
375.10579,1.97887
374.86472,1.98331
374.62365,1.94387
374.38257,1.88195
374.14150,1.84769
373.90043,1.83425
373.65936,1.81247
373.41829,1.79178
373.17722,1.78943
372.93615,1.79184
372.69508,1.78051
372.45401,1.75699
372.21294,1.72115
371.97187,1.66810
371.73080,1.60745
371.48973,1.55690
371.24866,1.52593
371.00759,1.51250
370.76652,1.50389
370.52545,1.48801
370.28437,1.46778
370.04330,1.45430
369.80223,1.44802
369.56116,1.43816
369.32009,1.42069
369.07902,1.40258
368.83795,1.38863
368.59688,1.37636
368.35581,1.36187
368.11474,1.34475
367.87367,1.32923
367.63260,1.31947
367.39153,1.31585
367.15046,1.31622
366.90939,1.31885
366.66832,1.32558
366.42725,1.33752
366.18618,1.34809
365.94510,1.34730
365.70403,1.33446
365.46296,1.31963
365.22189,1.31104
364.98082,1.30589
364.73975,1.29675
364.49868,1.28467
364.25761,1.27617
364.01654,1.27259
363.77547,1.27102
363.53440,1.26959
363.29333,1.26676
363.05226,1.26112
362.81119,1.25449
362.57012,1.25062
362.32905,1.25132
362.08798,1.25414
361.84691,1.25371
361.60583,1.24741
361.36476,1.23883
361.12369,1.23354
360.88262,1.23262
360.64155,1.23263
360.40048,1.23135
360.15941,1.23128
359.91834,1.23490
359.67727,1.23935
359.43620,1.24039
359.19513,1.23975
358.95406,1.24214
358.71299,1.24669
358.47192,1.24777
358.23085,1.24400
357.98978,1.23910
357.74871,1.23386
357.50764,1.22636
357.26656,1.21803
357.02549,1.21288
356.78442,1.21218
356.54335,1.21449
356.30228,1.21977
356.06121,1.22938
355.82014,1.24165
355.57907,1.25064
355.33800,1.25196
355.09693,1.24806
354.85586,1.24501
354.61479,1.24495
354.37372,1.24328
354.13265,1.23526
353.89158,1.22398
353.65051,1.21697
353.40944,1.21748
353.16837,1.22349
352.92729,1.23194
352.68622,1.23973
352.44515,1.24395
352.20408,1.24515
351.96301,1.24637
351.72194,1.24932
351.48087,1.25480
351.23980,1.26158
350.99873,1.26603
350.75766,1.26701
350.51659,1.26825
350.27552,1.27410
350.03445,1.28414
349.79338,1.29324
349.55231,1.29787
349.31124,1.30054
349.07017,1.30588
348.82910,1.31509
348.58802,1.32524
348.34695,1.33121
348.10588,1.32877
347.86481,1.31981
347.62374,1.31295
347.38267,1.31376
347.14160,1.31756
346.90053,1.31694
346.65946,1.31315
346.41839,1.31414
346.17732,1.32461
345.93625,1.34273
345.69518,1.36255
345.45411,1.37570
345.21304,1.37488
344.97197,1.36127
344.73090,1.34565
344.48983,1.33970
344.24875,1.34636
344.00768,1.35812
343.76661,1.36677
343.52554,1.37143
343.28447,1.37518
343.04340,1.37877
342.80233,1.38355
342.56126,1.39506
342.32019,1.41574
342.07912,1.43701
341.83805,1.44767
341.59698,1.44973
341.35591,1.45525
341.11484,1.47035
340.87377,1.49042
340.63270,1.50893
340.39163,1.52757
340.15056,1.55229
339.90948,1.57947
339.66841,1.59698
339.42734,1.60698
339.18627,1.62818
338.94520,1.67010
338.70413,1.72470
338.46306,1.77241
338.22199,1.79589
337.98092,1.79215
337.73985,1.77217
337.49878,1.76102
337.25771,1.76989
337.01664,1.79159
336.77557,1.81823
336.53450,1.83684
336.29343,1.84594
336.05236,1.85436
335.81129,1.85171
335.57021,1.82565
335.32914,1.79988
335.08807,1.78819
334.84700,1.78618
334.60593,1.78746
334.36486,1.78851
334.12379,1.79149
333.88272,1.79900
333.64165,1.80149
333.40058,1.78407
333.15951,1.74715
332.91844,1.71550
332.67737,1.70924
332.43630,1.71640
332.19523,1.70698
331.95416,1.67034
331.71309,1.62764
331.47202,1.60415
331.23094,1.60457
330.98987,1.61699
330.74880,1.62254
330.50773,1.61022
330.26666,1.58448
330.02559,1.54929
329.78452,1.50512
329.54345,1.46278
329.30238,1.43988
329.06131,1.44412
328.82024,1.46704
328.57917,1.49393
328.33810,1.51888
328.09703,1.54503
327.85596,1.57002
327.61489,1.58234
327.37382,1.58038
327.13275,1.57020
326.89167,1.55268
326.65060,1.52873
326.40953,1.50467
326.16846,1.49637
325.92739,1.51351
325.68632,1.54691
325.44525,1.57831
325.20418,1.59768
324.96311,1.60236
324.72204,1.59434
324.48097,1.58672
324.23990,1.58821
323.99883,1.59918
323.75776,1.62026
323.51669,1.64640
323.27562,1.66569
323.03455,1.67836
322.79348,1.70695
322.55240,1.76742
322.31133,1.83140
322.07026,1.85192
321.82919,1.84538
321.58812,1.84529
321.34705,1.85185
321.10598,1.86434
320.86491,1.90829
320.62384,1.97095
320.38277,2.02418
320.14170,2.10724
319.90063,2.18988
319.65956,2.16463
319.41849,2.06666
319.17742,2.03665
318.93635,2.09868
318.69528,2.13631
318.45421,2.18115
318.21313,2.18596
317.97206,2.05839
317.73099,1.94984
317.48992,1.87392
317.24885,1.79714
317.00778,1.76198
316.76671,1.78839
316.52564,1.86242
316.28457,1.95316
316.04350,2.00852
315.80243,1.98989
315.56136,1.92521
315.32029,1.87815
315.07922,1.87358
314.83815,1.90129
314.59708,1.94868
314.35601,2.00419
314.11494,2.06828
313.87386,2.15782
313.63279,2.26729
313.39172,2.31919
313.15065,2.32373
312.90958,2.32714
312.66851,2.33247
312.42744,2.46068
312.18637,2.59745
311.94530,2.67091
311.70423,2.57195
311.46316,2.43725
311.22209,2.21433
310.98102,2.19835
310.73995,2.42280
310.49888,2.56493
310.25781,2.42921
310.01674,2.33380
309.77567,2.37696
309.53459,2.51184
309.29352,2.61559
309.05245,2.47749
308.81138,2.28931
308.57031,2.16399
308.32924,2.07424
308.08817,1.99263
307.84710,1.92358
307.60603,1.88963
307.36496,1.89198
307.12389,1.89019
306.88282,1.85169
306.64175,1.79342
306.40068,1.75144
306.15961,1.73297
305.91854,1.70662
305.67747,1.65369
305.43640,1.59811
305.19532,1.56819
304.95425,1.56963
304.71318,1.58363
304.47211,1.58410
304.23104,1.56440
303.98997,1.53531
303.74890,1.50243
303.50783,1.46460
303.26676,1.42494
303.02569,1.39164
302.78462,1.36823
302.54355,1.34981
302.30248,1.33256
302.06141,1.31929
301.82034,1.31040
301.57927,1.29907
301.33820,1.28206
301.09713,1.26663
300.85605,1.26105
300.61498,1.26434
300.37391,1.26653
300.13284,1.25778
299.89177,1.23975
299.65070,1.22498
299.40963,1.22195
299.16856,1.22581
298.92749,1.22585
298.68642,1.21767
298.44535,1.20355
298.20428,1.18569
297.96321,1.16591
297.72214,1.14881
297.48107,1.13924
297.24000,1.13598
296.99893,1.13214
296.75786,1.12395
296.51678,1.11486
296.27571,1.10849
296.03464,1.10333
295.79357,1.09669
295.55250,1.08898
295.31143,1.08191
295.07036,1.07608
294.82929,1.07150
294.58822,1.06776
294.34715,1.06343
294.10608,1.05740
293.86501,1.05049
293.62394,1.04476
293.38287,1.04170
293.14180,1.04147
292.90073,1.04287
292.65966,1.04431
292.41859,1.04511
292.17751,1.04490
291.93644,1.04236
291.69537,1.03657
291.45430,1.02895
291.21323,1.02198
290.97216,1.01674
290.73109,1.01272
290.49002,1.00902
290.24895,1.00565
290.00788,1.00400
289.76681,1.00511
289.52574,1.00675
289.28467,1.00483
289.04360,0.99839
288.80253,0.99083
288.56146,0.98623
288.32039,0.98595
288.07932,0.98823
287.83824,0.99021
287.59717,0.99036
287.35610,0.98941
287.11503,0.98850
286.87396,0.98695
286.63289,0.98332
286.39182,0.97795
286.15075,0.97267
285.90968,0.96930
285.66861,0.96900
285.42754,0.97077
285.18647,0.97110
284.94540,0.96814
284.70433,0.96470
284.46326,0.96384
284.22219,0.96427
283.98112,0.96270
283.74005,0.95886
283.49897,0.95545
283.25790,0.95434
283.01683,0.95450
282.77576,0.95409
282.53469,0.95401
282.29362,0.95644
282.05255,0.95999
281.81148,0.96082
281.57041,0.95840
281.32934,0.95511
281.08827,0.95197
280.84720,0.94914
280.60613,0.94803
280.36506,0.94936
280.12399,0.95165
279.88292,0.95325
279.64185,0.95396
279.40078,0.95464
279.15970,0.95670
278.91863,0.96068
278.67756,0.96461
278.43649,0.96537
278.19542,0.96233
277.95435,0.95778
277.71328,0.95372
277.47221,0.95067
277.23114,0.94912
276.99007,0.94932
276.74900,0.94985
276.50793,0.94929
276.26686,0.94878
276.02579,0.95044
275.78472,0.95411
275.54365,0.95753
275.30258,0.95878
275.06151,0.95783
274.82043,0.95642
274.57936,0.95656
274.33829,0.95838
274.09722,0.95999
273.85615,0.95970
273.61508,0.95763
273.37401,0.95483
273.13294,0.95191
272.89187,0.94866
272.65080,0.94482
272.40973,0.94198
272.16866,0.94353
271.92759,0.95086
271.68652,0.96078
271.44545,0.96832
271.20438,0.97146
270.96331,0.97159
270.72224,0.97135
270.48116,0.97351
270.24009,0.97949
269.99902,0.98677
269.75795,0.99039
269.51688,0.98895
269.27581,0.98650
269.03474,0.98733
268.79367,0.99219
268.55260,0.99987
268.31153,1.00871
268.07046,1.01628
267.82939,1.02066
267.58832,1.02271
267.34725,1.02489
267.10618,1.02833
266.86511,1.03245
266.62404,1.03595
266.38297,1.03789
266.14189,1.03916
265.90082,1.04237
265.65975,1.04895
265.41868,1.05690
265.17761,1.06365
264.93654,1.07040
264.69547,1.08028
264.45440,1.09286
264.21333,1.10382
263.97226,1.11031
263.73119,1.11397
263.49012,1.11786
263.24905,1.12296
263.00798,1.12956
262.76691,1.13944
262.52584,1.15396
262.28477,1.17127
262.04370,1.18792
261.80262,1.20199
261.56155,1.21289
261.32048,1.22014
261.07941,1.22519
260.83834,1.23238
260.59727,1.24518
260.35620,1.26240
260.11513,1.28077
259.87406,1.29943
259.63299,1.31807
259.39192,1.33339
259.15085,1.34325
258.90978,1.35248
258.66871,1.36891
258.42764,1.39432
258.18657,1.42300
257.94550,1.44807
257.70443,1.46820
257.46335,1.49057
257.22228,1.52316
256.98121,1.56266
256.74014,1.59892
256.49907,1.62998
256.25800,1.65954
256.01693,1.68616
255.77586,1.71054
255.53479,1.74471
255.29372,1.79720
255.05265,1.85640
254.81158,1.90180
254.57051,1.93079
254.32944,1.96195
254.08837,2.01824
253.84730,2.10933
253.60623,2.20143
253.36516,2.23109
253.12408,2.20137
252.88301,2.16539
252.64194,2.14245
252.40087,2.12227
252.15980,2.11489
251.91873,2.15207
251.67766,2.25424
251.43659,2.40606
251.19552,2.51622
250.95445,2.53642
250.71338,2.54098
250.47231,2.49657
250.23124,2.42352
249.99017,2.38518
249.74910,2.36805
249.50803,2.34419
249.26696,2.31144
249.02589,2.28722
248.78481,2.31132
248.54374,2.40855
248.30267,2.49768
248.06160,2.45940
247.82053,2.35435
247.57946,2.25809
247.33839,2.20048
247.09732,2.18244
246.85625,2.19350
246.61518,2.22869
246.37411,2.25868
246.13304,2.22635
245.89197,2.14185
245.65090,2.07154
245.40983,2.03117
245.16876,2.01338
244.92769,2.01261
244.68661,2.02467
244.44554,2.02277
244.20447,1.95767
243.96340,1.83839
243.72233,1.71893
243.48126,1.62149
243.24019,1.54332
242.99912,1.48277
242.75805,1.43553
242.51698,1.38986
242.27591,1.33852
242.03484,1.28600
241.79377,1.23824
241.55270,1.19532
241.31163,1.15489
241.07056,1.11560
240.82949,1.07755
240.58842,1.04178
240.34734,1.00933
240.10627,0.98076
239.86520,0.95625
239.62413,0.93483
239.38306,0.91436
239.14199,0.89323
238.90092,0.87197
238.65985,0.85234
238.41878,0.83506
238.17771,0.81927
237.93664,0.80425
237.69557,0.79025
237.45450,0.77691
237.21343,0.76336
236.97236,0.75028
236.73129,0.73954
236.49022,0.73142
236.24915,0.72447
236.00807,0.71787
235.76700,0.71180
235.52593,0.70634
235.28486,0.70141
235.04379,0.69688
234.80272,0.69217
234.56165,0.68722
234.32058,0.68303
234.07951,0.67990
233.83844,0.67625
233.59737,0.67102
233.35630,0.66573
233.11523,0.66273
232.87416,0.66265
232.63309,0.66406
232.39202,0.66469
232.15095,0.66330
231.90988,0.66070
231.66880,0.65835
231.42773,0.65642
231.18666,0.65431
230.94559,0.65199
230.70452,0.64994
230.46345,0.64852
230.22238,0.64815
229.98131,0.64904
229.74024,0.65054
229.49917,0.65142
229.25810,0.65069
229.01703,0.64807
228.77596,0.64425
228.53489,0.64057
228.29382,0.63792
228.05275,0.63621
227.81168,0.63513
227.57061,0.63476
227.32953,0.63561
227.08846,0.63787
226.84739,0.64070
226.60632,0.64283
226.36525,0.64399
226.12418,0.64476
225.88311,0.64533
225.64204,0.64576
225.40097,0.64664
225.15990,0.64835
224.91883,0.65059
224.67776,0.65303
224.43669,0.65551
224.19562,0.65764
223.95455,0.65949
223.71348,0.66204
223.47241,0.66595
223.23134,0.67070
222.99026,0.67541
222.74919,0.67984
222.50812,0.68422
222.26705,0.68893
222.02598,0.69410
221.78491,0.69913
221.54384,0.70309
221.30277,0.70605
221.06170,0.70954
220.82063,0.71551
220.57956,0.72490
220.33849,0.73664
220.09742,0.74807
219.85635,0.75756
219.61528,0.76636
219.37421,0.77654
219.13314,0.78769
218.89207,0.79746
218.65099,0.80494
218.40992,0.81171
218.16885,0.81969
217.92778,0.82967
217.68671,0.84146
217.44564,0.85368
217.20457,0.86429
216.96350,0.87311
216.72243,0.88282
216.48136,0.89554
216.24029,0.91023
215.99922,0.92464
215.75815,0.93766
215.51708,0.94866
215.27601,0.95729
215.03494,0.96541
214.79387,0.97614
214.55280,0.99008
214.31172,1.00373
214.07065,1.01301
213.82958,1.01784
213.58851,1.02135
213.34744,1.02505
213.10637,1.02796
212.86530,1.03043
212.62423,1.03537
212.38316,1.04474
212.14209,1.05668
211.90102,1.06677
211.65995,1.07186
211.41888,1.07335
211.17781,1.07570
210.93674,1.08119
210.69567,1.08661
210.45460,1.08608
210.21353,1.07891
209.97245,1.07173
209.73138,1.07056
209.49031,1.07423
209.24924,1.07714
209.00817,1.07568
208.76710,1.07073
208.52603,1.06565
208.28496,1.06282
208.04389,1.06208
207.80282,1.06212
207.56175,1.06159
207.32068,1.05834
207.07961,1.04994
206.83854,1.03623
206.59747,1.02059
206.35640,1.00785
206.11533,1.00057
205.87426,0.99684
205.63318,0.99237
205.39211,0.98507
205.15104,0.97630
204.90997,0.96777
204.66890,0.95887
204.42783,0.94715
204.18676,0.93121
203.94569,0.91275
203.70462,0.89528
203.46355,0.88123
203.22248,0.87114
202.98141,0.86412
202.74034,0.85774
202.49927,0.84916
202.25820,0.83756
202.01713,0.82403
201.77606,0.80962
201.53499,0.79491
201.29391,0.78056
201.05284,0.76712
200.81177,0.75484
200.57070,0.74379
200.32963,0.73359
200.08856,0.72336
199.84749,0.71246
199.60642,0.70141
199.36535,0.69111
199.12428,0.68162
198.88321,0.67237
198.64214,0.66290
198.40107,0.65282
198.16000,0.64225
197.91893,0.63230
197.67786,0.62398
197.43679,0.61663
197.19572,0.60873
196.95464,0.59964
196.71357,0.58987
196.47250,0.58061
196.23143,0.57318
195.99036,0.56791
195.74929,0.56384
195.50822,0.55972
195.26715,0.55484
195.02608,0.54905
194.78501,0.54272
194.54394,0.53658
194.30287,0.53116
194.06180,0.52653
193.82073,0.52257
193.57966,0.51913
193.33859,0.51595
193.09752,0.51254
192.85645,0.50864
192.61537,0.50470
192.37430,0.50155
192.13323,0.49933
191.89216,0.49724
191.65109,0.49454
191.41002,0.49146
191.16895,0.48863
190.92788,0.48572
190.68681,0.48167
190.44574,0.47674
190.20467,0.47295
189.96360,0.47158
189.72253,0.47118
189.48146,0.46949
189.24039,0.46627
188.99932,0.46280
188.75825,0.45985
188.51718,0.45759
188.27610,0.45635
188.03503,0.45609
187.79396,0.45603
187.55289,0.45560
187.31182,0.45504
187.07075,0.45484
186.82968,0.45527
186.58861,0.45610
186.34754,0.45648
186.10647,0.45580
185.86540,0.45475
185.62433,0.45444
185.38326,0.45515
185.14219,0.45658
184.90112,0.45821
184.66005,0.45940
184.41898,0.46020
184.17791,0.46181
183.93683,0.46488
183.69576,0.46823
183.45469,0.47035
183.21362,0.47142
182.97255,0.47272
182.73148,0.47501
182.49041,0.47811
182.24934,0.48123
182.00827,0.48310
181.76720,0.48301
181.52613,0.48207
181.28506,0.48226
181.04399,0.48435
180.80292,0.48755
180.56185,0.49062
180.32078,0.49265
180.07971,0.49378
179.83864,0.49559
179.59756,0.49943
179.35649,0.50450
179.11542,0.50895
178.87435,0.51245
178.63328,0.51653
178.39221,0.52275
178.15114,0.53145
177.91007,0.54191
177.66900,0.55291
177.42793,0.56335
177.18686,0.57327
176.94579,0.58430
176.70472,0.59819
176.46365,0.61490
176.22258,0.63284
175.98151,0.65028
175.74044,0.66618
175.49937,0.68092
175.25829,0.69660
175.01722,0.71504
174.77615,0.73553
174.53508,0.75557
174.29401,0.77350
174.05294,0.78947
173.81187,0.80420
173.57080,0.81792
173.32973,0.83075
173.08866,0.84329
172.84759,0.85563
172.60652,0.86649
172.36545,0.87461
172.12438,0.88011
171.88331,0.88311
171.64224,0.88274
171.40117,0.87879
171.16010,0.87242
170.91902,0.86493
170.67795,0.85732
170.43688,0.85057
170.19581,0.84527
169.95474,0.84121
169.71367,0.83729
169.47260,0.83225
169.23153,0.82624
168.99046,0.82142
168.74939,0.81948
168.50832,0.81941
168.26725,0.81892
168.02618,0.81717
167.78511,0.81465
167.54404,0.81217
167.30297,0.81090
167.06190,0.81154
166.82083,0.81285
166.57975,0.81346
166.33868,0.81457
166.09761,0.81863
165.85654,0.82605
165.61547,0.83476
165.37440,0.84247
165.13333,0.84856
164.89226,0.85443
164.65119,0.86262
164.41012,0.87485
164.16905,0.89051
163.92798,0.90653
163.68691,0.91877
163.44584,0.92518
163.20477,0.92834
162.96370,0.93330
162.72263,0.94223
162.48156,0.95237
162.24048,0.95933
161.99941,0.96165
161.75834,0.96133
161.51727,0.96089
161.27620,0.96184
161.03513,0.96435
160.79406,0.96688
160.55299,0.96725
160.31192,0.96514
160.07085,0.96230
159.82978,0.96003
159.58871,0.95782
159.34764,0.95457
159.10657,0.94946
158.86550,0.94197
158.62443,0.93254
158.38336,0.92301
158.14229,0.91524
157.90121,0.90961
157.66014,0.90536
157.41907,0.90230
157.17800,0.90061
156.93693,0.89903
156.69586,0.89548
156.45479,0.88975
156.21372,0.88357
155.97265,0.87835
155.73158,0.87447
155.49051,0.87132
155.24944,0.86696
155.00837,0.85955
154.76730,0.84920
154.52623,0.83663
154.28516,0.82186
154.04409,0.80575
153.80302,0.79030
153.56194,0.77628
153.32087,0.76254
153.07980,0.74774
152.83873,0.73131
152.59766,0.71377
152.35659,0.69683
152.11552,0.68195
151.87445,0.66856
151.63338,0.65476
151.39231,0.63937
151.15124,0.62246
150.91017,0.60473
150.66910,0.58742
150.42803,0.57247
150.18696,0.56119
149.94589,0.55265
149.70482,0.54423
149.46375,0.53402
149.22267,0.52239
148.98160,0.51126
148.74053,0.50236
148.49946,0.49615
148.25839,0.49182
148.01732,0.48819
147.77625,0.48458
147.53518,0.48129
147.29411,0.47912
147.05304,0.47849
146.81197,0.47883
146.57090,0.47923
146.32983,0.47979
146.08876,0.48177
145.84769,0.48602
145.60662,0.49163
145.36555,0.49694
145.12448,0.50142
144.88340,0.50602
144.64233,0.51142
144.40126,0.51699
144.16019,0.52147
143.91912,0.52431
143.67805,0.52564
143.43698,0.52527
143.19591,0.52236
142.95484,0.51601
142.71377,0.50623
142.47270,0.49429
142.23163,0.48214
141.99056,0.47134
141.74949,0.46271
141.50842,0.45650
141.26735,0.45243
141.02628,0.44971
140.78521,0.44761
140.54413,0.44590
140.30306,0.44450
140.06199,0.44341
139.82092,0.44326
139.57985,0.44518
139.33878,0.44949
139.09771,0.45530
138.85664,0.46129
138.61557,0.46695
138.37450,0.47303
138.13343,0.48106
137.89236,0.49189
137.65129,0.50470
137.41022,0.51832
137.16915,0.53291
136.92808,0.54923
136.68701,0.56727
136.44594,0.58674
136.20486,0.60766
135.96379,0.62951
135.72272,0.65116
135.48165,0.67279
135.24058,0.69656
134.99951,0.72457
134.75844,0.75610
134.51737,0.78737
134.27630,0.81453
134.03523,0.83671
133.79416,0.85553
133.55309,0.87298
133.31202,0.89044
133.07095,0.90787
132.82988,0.92324
132.58881,0.93420
132.34774,0.94039
132.10667,0.94359
131.86559,0.94578
131.62452,0.94686
131.38345,0.94383
131.14238,0.93351
130.90131,0.91573
130.66024,0.89284
130.41917,0.86773
130.17810,0.84280
129.93703,0.81901
129.69596,0.79535
129.45489,0.76935
129.21382,0.73959
128.97275,0.70766
128.73168,0.67643
128.49061,0.64724
128.24954,0.61985
128.00847,0.59413
127.76740,0.57027
127.52632,0.54791
127.28525,0.52635
127.04418,0.50534
126.80311,0.48541
126.56204,0.46754
126.32097,0.45237
126.07990,0.43960
125.83883,0.42814
125.59776,0.41698
125.35669,0.40602
125.11562,0.39589
124.87455,0.38693
124.63348,0.37887
124.39241,0.37139
124.15134,0.36446
123.91027,0.35795
123.66920,0.35180
123.42812,0.34645
123.18705,0.34230
122.94598,0.33932
122.70491,0.33749
122.46384,0.33691
122.22277,0.33773
121.98170,0.34000
121.74063,0.34335
121.49956,0.34704
121.25849,0.35101
121.01742,0.35639
120.77635,0.36433
120.53528,0.37470
120.29421,0.38622
120.05314,0.39775
119.81207,0.40965
119.57100,0.42351
119.32993,0.44044
119.08885,0.46037
118.84778,0.48290
118.60671,0.50776
118.36564,0.53423
118.12457,0.56083
117.88350,0.58552
117.64243,0.60653
117.40136,0.62330
117.16029,0.63600
116.91922,0.64378
116.67815,0.64500
116.43708,0.64016
116.19601,0.63247
115.95494,0.62493
115.71387,0.61773
115.47280,0.60893
115.23173,0.59676
114.99066,0.58152
114.74958,0.56617
114.50851,0.55409
114.26744,0.54590
114.02637,0.54009
113.78530,0.53654
113.54423,0.53660
113.30316,0.53924
113.06209,0.54117
112.82102,0.54149
112.57995,0.54292
112.33888,0.54748
112.09781,0.55426
111.85674,0.56145
111.61567,0.56843
111.37460,0.57528
111.13353,0.58127
110.89246,0.58536
110.65139,0.58736
110.41031,0.58719
110.16924,0.58384
109.92817,0.57653
109.68710,0.56595
109.44603,0.55313
109.20496,0.53816
108.96389,0.52102
108.72282,0.50254
108.48175,0.48363
108.24068,0.46437
107.99961,0.44452
107.75854,0.42441
107.51747,0.40532
107.27640,0.38889
107.03533,0.37580
106.79426,0.36528
106.55319,0.35603
106.31212,0.34734
106.07104,0.33882
105.82997,0.32989
105.58890,0.32048
105.34783,0.31138
105.10676,0.30315
104.86569,0.29529
104.62462,0.28739
104.38355,0.27993
104.14248,0.27314
103.90141,0.26673
103.66034,0.26103
103.41927,0.25684
103.17820,0.25349
102.93713,0.24907
102.69606,0.24315
102.45499,0.23761
102.21392,0.23423
101.97285,0.23265
101.73177,0.23086
101.49070,0.22733
101.24963,0.22230
101.00856,0.21701
100.76749,0.21208
100.52642,0.20758
100.28535,0.20409
100.04428,0.20230
99.80321,0.20185
99.56214,0.20158
99.32107,0.20071
99.08000,0.19901
98.83893,0.19692
98.59786,0.19556
98.35679,0.19600
98.11572,0.19838
97.87465,0.20194
97.63358,0.20546
97.39250,0.20779
97.15143,0.20888
96.91036,0.20998
96.66929,0.21237
96.42822,0.21621
96.18715,0.22106
95.94608,0.22677
95.70501,0.23364
95.46394,0.24189
95.22287,0.25089
94.98180,0.25881
94.74073,0.26362
94.49966,0.26512
94.25859,0.26522
94.01752,0.26567
93.77645,0.26626
93.53538,0.26604
93.29431,0.26556
93.05323,0.26638
92.81216,0.26867
92.57109,0.27074
92.33002,0.27144
92.08895,0.27201
91.84788,0.27455
91.60681,0.27998
91.36574,0.28847
91.12467,0.30065
90.88360,0.31726
90.64253,0.33820
90.40146,0.36302
90.16039,0.39205
89.91932,0.42607
89.67825,0.46480
89.43718,0.50564
89.19611,0.54342
88.95504,0.57192
88.71396,0.58714
88.47289,0.58804
88.23182,0.57449
87.99075,0.54744
87.74968,0.51115
87.50861,0.47175
87.26754,0.43341
87.02647,0.39750
86.78540,0.36452
86.54433,0.33547
86.30326,0.31113
86.06219,0.29076
85.82112,0.27252
85.58005,0.25502
85.33898,0.23838
85.09791,0.22334
84.85684,0.20994
84.61577,0.19755
84.37469,0.18628
84.13362,0.17719
83.89255,0.17082
83.65148,0.16613
83.41041,0.16164
83.16934,0.15691
82.92827,0.15239
82.68720,0.14844
82.44613,0.14507
82.20506,0.14229
81.96399,0.14006
81.72292,0.13817
81.48185,0.13673
81.24078,0.13605
80.99971,0.13602
80.75864,0.13601
80.51757,0.13524
80.27650,0.13318
80.03542,0.12990
79.79435,0.12630
79.55328,0.12359
79.31221,0.12243
79.07114,0.12253
78.83007,0.12290
78.58900,0.12261
78.34793,0.12147
78.10686,0.11990
77.86579,0.11809
77.62472,0.11590
77.38365,0.11356
77.14258,0.11185
76.90151,0.11130
76.66044,0.11138
76.41937,0.11074
76.17830,0.10864
75.93723,0.10581
75.69615,0.10351
75.45508,0.10232
75.21401,0.10207
74.97294,0.10212
74.73187,0.10195
74.49080,0.10170
74.24973,0.10190
74.00866,0.10244
73.76759,0.10274
73.52652,0.10269
73.28545,0.10269
73.04438,0.10298
72.80331,0.10358
72.56224,0.10441
72.32117,0.10540
72.08010,0.10682
71.83903,0.10905
71.59796,0.11180
71.35688,0.11452
71.11581,0.11755
70.87474,0.12170
70.63367,0.12684
70.39260,0.13238
70.15153,0.13925
69.91046,0.14961
69.66939,0.16407
69.42832,0.17964
69.18725,0.19072
68.94618,0.19280
68.70511,0.18575
68.46404,0.17321
68.22297,0.15924
67.98190,0.14626
67.74083,0.13528
67.49976,0.12679
67.25869,0.12078
67.01761,0.11662
66.77654,0.11329
66.53547,0.10975
66.29440,0.10549
66.05333,0.10113
65.81226,0.09831
65.57119,0.09807
65.33012,0.09986
65.08905,0.10252
64.84798,0.10597
64.60691,0.11086
64.36584,0.11694
64.12477,0.12247
63.88370,0.12525
63.64263,0.12420
63.40156,0.12036
63.16049,0.11600
62.91942,0.11241
62.67834,0.10919
62.43727,0.10550
62.19620,0.10091
61.95513,0.09577
61.71406,0.09135
61.47299,0.08867
61.23192,0.08711
60.99085,0.08525
60.74978,0.08310
60.50871,0.08220
60.26764,0.08386
60.02657,0.08781
59.78550,0.09182
59.54443,0.09304
59.30336,0.09071
59.06229,0.08709
58.82122,0.08482
58.58015,0.08455
58.33907,0.08542
58.09800,0.08603
57.85693,0.08529
57.61586,0.08358
57.37479,0.08205
57.13372,0.08026
56.89265,0.07680
56.65158,0.07260
56.41051,0.07063
56.16944,0.07216
55.92837,0.07574
55.68730,0.07901
55.44623,0.08042
55.20516,0.07973
54.96409,0.07772
54.72302,0.07576
54.48195,0.07521
54.24088,0.07654
53.99980,0.07908
53.75873,0.08176
53.51766,0.08370
53.27659,0.08399
53.03552,0.08249
52.79445,0.08044
52.55338,0.07872
52.31231,0.07662
52.07124,0.07378
51.83017,0.07143
51.58910,0.07049
51.34803,0.07076
51.10696,0.07252
50.86589,0.07613
50.62482,0.07996
50.38375,0.08114
50.14268,0.07876
49.90161,0.07514
49.66053,0.07274
49.41946,0.07084
49.17839,0.06736
48.93732,0.06325
48.69625,0.06196
48.45518,0.06423
48.21411,0.06646
47.97304,0.06496
47.73197,0.05991
47.49090,0.05460
47.24983,0.05185
47.00876,0.05122
46.76769,0.05018
46.52662,0.04786
46.28555,0.04653
46.04448,0.04865
45.80341,0.05285
45.56234,0.05455
45.32126,0.05172
45.08019,0.04795
44.83912,0.04777
44.59805,0.05146
44.35698,0.05673
44.11591,0.06200
43.87484,0.06454
43.63377,0.05989
43.39270,0.04801
43.15163,0.03625
42.91056,0.03238
42.66949,0.03591
42.42842,0.03897
42.18735,0.03724
41.94628,0.03518
41.70521,0.03712
41.46414,0.03958
41.22307,0.03794
40.98199,0.03535
40.74092,0.03741
40.49985,0.04151
40.25878,0.04089
40.01771,0.03677
39.77664,0.03703
39.53557,0.04393
39.29450,0.05261
39.05343,0.05982
38.81236,0.06516
38.57129,0.06696
38.33022,0.06504
38.08915,0.06466
37.84808,0.07124
37.60701,0.08208
37.36594,0.08833
37.12487,0.08608
36.88380,0.08008
36.64272,0.07616
36.40165,0.07561
36.16058,0.07743
35.91951,0.08058
35.67844,0.08299
35.43737,0.08386
35.19630,0.08725
34.95523,0.09652
34.71416,0.10565
34.47309,0.10451
34.23202,0.09286
33.99095,0.08062
33.74988,0.07679
33.50881,0.08343
33.26774,0.09711
33.02667,0.11476
32.78560,0.13492
32.54453,0.14979
32.30345,0.15080
32.06238,0.14053
31.82131,0.12516
31.58024,0.10471
31.33917,0.07999
31.09810,0.06042
30.85703,0.05388
30.61596,0.05626
30.37489,0.06022
30.13382,0.06805
29.89275,0.08544
29.65168,0.10589
29.41061,0.11507
29.16954,0.10777
28.92847,0.09145
28.68740,0.07746
28.44633,0.07765
28.20526,0.09965
27.96418,0.13500
27.72311,0.16388
27.48204,0.17411
27.24097,0.17051
26.99990,0.16737
26.75883,0.17036
26.51776,0.16629
26.27669,0.14260
26.03562,0.11992
25.79455,0.13317
25.55348,0.17404
25.31241,0.20404
25.07134,0.20927
24.83027,0.20442
24.58920,0.20196
24.34813,0.20314
24.10706,0.21182
23.86599,0.23482
23.62491,0.26929
23.38384,0.30354
23.14277,0.33015
22.90170,0.34906
22.66063,0.35193
22.41956,0.32385
22.17849,0.27573
21.93742,0.23977
21.69635,0.23182
21.45528,0.24754
21.21421,0.28264
20.97314,0.34054
20.73207,0.42387
20.49100,0.50945
20.24993,0.54579
20.00886,0.51632
19.76779,0.46554
19.52672,0.42652
19.28564,0.40528
19.04457,0.41122
18.80350,0.44416
18.56243,0.48948
18.32136,0.54753
18.08029,0.62940
17.83922,0.69420
17.59815,0.67826
17.35708,0.63909
17.11601,0.66518
16.87494,0.76477
16.63387,0.89688
16.39280,0.93507
16.15173,0.84182
15.91066,0.76854
15.66959,0.68359
15.42852,0.60284
15.18745,0.62920
14.94637,0.74656
14.70530,0.86848
14.46423,0.97096
14.22316,1.03757
13.98209,0.86184
13.74102,0.74827
13.49995,0.79095
13.25888,0.92865
13.01781,1.08575
12.77674,1.12009
12.53567,0.95095
12.29460,0.84800
12.05353,0.87384
11.81246,0.89934
11.57139,0.95948
11.33032,1.18339
11.08925,1.27152
10.84818,1.02925
10.60710,0.95327
10.36603,1.00244
10.12496,1.00112
9.88389,0.97633
9.64282,1.02159
9.40175,1.14185
9.16068,1.02253
8.91961,0.99411
8.67854,1.01185
8.43747,0.98310
8.19640,0.95132
7.95533,1.04390
7.71426,1.12622
7.47319,1.02912
7.23212,0.85135
6.99105,0.73228
6.74998,0.72643
6.50891,0.82531
6.26783,0.98632
6.02676,1.06472
5.78569,1.02406
5.54462,0.98070
5.30355,1.02016
5.06248,1.17197
4.82141,1.18655
4.58034,1.03287
4.33927,1.00351
4.09820,1.01851
3.85713,0.99369
3.61606,0.92174
3.37499,0.80824
3.13392,0.71772
2.89285,0.69637
2.65178,0.75922
2.41071,0.81866
2.16964,0.80007
1.92856,0.81104
1.68749,0.95194
1.44642,1.01170
1.20535,0.96578
0.96428,1.02341
0.72321,1.17588
0.48214,1.24977
0.24107,1.08239
-0.00000,0.66883
