399.69498,1.57022
399.45391,1.57220
399.21284,1.56927
398.97177,1.56000
398.73070,1.55435
398.48963,1.56046
398.24856,1.57066
398.00749,1.56987
397.76642,1.55894
397.52535,1.55340
397.28428,1.55878
397.04321,1.56424
396.80214,1.56157
396.56107,1.55566
396.32000,1.55356
396.07892,1.55716
395.83785,1.56450
395.59678,1.57170
395.35571,1.57331
395.11464,1.56453
394.87357,1.54877
394.63250,1.53573
394.39143,1.53224
394.15036,1.54330
393.90929,1.57011
393.66822,1.60026
393.42715,1.61411
393.18608,1.60632
392.94501,1.58993
392.70394,1.57876
392.46287,1.57080
392.22180,1.55281
391.98073,1.52406
391.73965,1.49977
391.49858,1.49207
391.25751,1.49752
391.01644,1.50319
390.77537,1.50167
390.53430,1.49547
390.29323,1.49325
390.05216,1.50149
389.81109,1.51428
389.57002,1.52062
389.32895,1.52301
389.08788,1.53386
388.84681,1.55241
388.60574,1.56189
388.36467,1.55571
388.12360,1.54562
387.88253,1.54335
387.64146,1.55292
387.40038,1.56618
387.15931,1.56567
386.91824,1.55150
386.67717,1.54169
386.43610,1.54216
386.19503,1.53897
385.95396,1.51799
385.71289,1.48310
385.47182,1.45056
385.23075,1.43218
384.98968,1.42720
384.74861,1.42663
384.50754,1.42649
384.26647,1.42784
384.02540,1.42690
383.78433,1.42100
383.54326,1.41300
383.30219,1.40643
383.06111,1.39927
382.82004,1.38272
382.57897,1.35499
382.33790,1.33290
382.09683,1.33476
381.85576,1.35357
381.61469,1.35628
381.37362,1.32682
381.13255,1.29059
380.89148,1.27336
380.65041,1.27330
380.40934,1.27810
380.16827,1.28689
379.92720,1.30592
379.68613,1.33048
379.44506,1.34326
379.20399,1.33883
378.96292,1.33872
378.72184,1.35937
378.48077,1.38534
378.23970,1.39238
377.99863,1.38258
377.75756,1.37351
377.51649,1.37024
377.27542,1.36719
377.03435,1.36383
376.79328,1.36693
376.55221,1.37986
376.31114,1.39684
376.07007,1.41481
375.82900,1.44145
375.58793,1.47849
375.34686,1.50891
375.10579,1.51312
374.86472,1.49393
374.62365,1.47135
374.38257,1.46175
374.14150,1.46500
373.90043,1.46447
373.65936,1.44698
373.41829,1.42370
373.17722,1.41682
372.93615,1.42937
372.69508,1.44219
372.45401,1.44222
372.21294,1.43249
371.97187,1.41539
371.73080,1.39221
371.48973,1.37039
371.24866,1.36078
371.00759,1.36518
370.76652,1.37412
370.52545,1.37753
370.28437,1.37298
370.04330,1.36462
369.80223,1.35960
369.56116,1.36132
369.32009,1.36156
369.07902,1.34927
368.83795,1.32948
368.59688,1.31702
368.35581,1.31550
368.11474,1.31676
367.87367,1.31571
367.63260,1.31458
367.39153,1.31424
367.15046,1.31149
366.90939,1.30630
366.66832,1.30361
366.42725,1.30541
366.18618,1.30788
365.94510,1.30828
365.70403,1.30837
365.46296,1.30833
365.22189,1.30479
364.98082,1.29754
364.73975,1.29125
364.49868,1.28839
364.25761,1.28562
364.01654,1.27890
363.77547,1.26987
363.53440,1.26366
363.29333,1.26226
363.05226,1.26424
362.81119,1.26928
362.57012,1.27821
362.32905,1.28711
362.08798,1.28910
361.84691,1.28333
361.60583,1.27353
361.36476,1.26319
361.12369,1.25573
360.88262,1.25309
360.64155,1.25370
360.40048,1.25465
360.15941,1.25471
359.91834,1.25348
359.67727,1.25216
359.43620,1.25513
359.19513,1.26465
358.95406,1.27486
358.71299,1.27734
358.47192,1.27120
358.23085,1.26178
357.98978,1.25341
357.74871,1.24752
357.50764,1.24472
357.26656,1.24602
357.02549,1.25132
356.78442,1.25706
356.54335,1.25821
356.30228,1.25397
356.06121,1.24847
355.82014,1.24560
355.57907,1.24693
355.33800,1.25266
355.09693,1.25962
354.85586,1.26131
354.61479,1.25526
354.37372,1.24848
354.13265,1.25112
353.89158,1.26451
353.65051,1.27769
353.40944,1.27738
353.16837,1.26379
352.92729,1.24882
352.68622,1.24148
352.44515,1.24138
352.20408,1.24327
351.96301,1.24543
351.72194,1.24930
351.48087,1.25313
351.23980,1.25386
350.99873,1.25276
350.75766,1.25355
350.51659,1.25880
350.27552,1.27011
350.03445,1.28527
349.79338,1.29403
349.55231,1.28643
349.31124,1.26718
349.07017,1.25099
348.82910,1.24708
348.58802,1.25362
348.34695,1.26342
348.10588,1.27122
347.86481,1.27637
347.62374,1.28058
347.38267,1.28480
347.14160,1.28901
346.90053,1.29257
346.65946,1.29398
346.41839,1.29220
346.17732,1.28998
345.93625,1.29352
345.69518,1.30325
345.45411,1.31048
345.21304,1.31033
344.97197,1.31069
344.73090,1.32092
344.48983,1.33853
344.24875,1.34939
344.00768,1.34318
343.76661,1.32781
343.52554,1.32043
343.28447,1.32839
343.04340,1.34456
342.80233,1.35708
342.56126,1.35885
342.32019,1.35211
342.07912,1.34714
341.83805,1.35235
341.59698,1.36745
341.35591,1.38284
341.11484,1.38887
340.87377,1.38771
340.63270,1.38935
340.39163,1.39875
340.15056,1.41212
339.90948,1.42336
339.66841,1.43156
339.42734,1.44060
339.18627,1.45087
338.94520,1.45820
338.70413,1.46149
338.46306,1.46207
338.22199,1.45922
337.98092,1.45305
337.73985,1.44649
337.49878,1.44323
337.25771,1.44405
337.01664,1.44514
336.77557,1.44407
336.53450,1.44463
336.29343,1.44982
336.05236,1.45458
335.81129,1.45276
335.57021,1.44566
335.32914,1.43710
335.08807,1.42584
334.84700,1.40978
334.60593,1.39453
334.36486,1.39016
334.12379,1.40124
333.88272,1.42365
333.64165,1.44854
333.40058,1.46695
333.15951,1.47110
332.91844,1.45581
332.67737,1.42942
332.43630,1.40757
332.19523,1.39480
331.95416,1.38461
331.71309,1.37205
331.47202,1.35889
331.23094,1.34920
330.98987,1.34725
330.74880,1.35896
330.50773,1.38365
330.26666,1.40236
330.02559,1.39783
329.78452,1.37636
329.54345,1.34820
329.30238,1.31906
329.06131,1.29842
328.82024,1.29457
328.57917,1.30573
328.33810,1.32141
328.09703,1.33085
327.85596,1.33153
327.61489,1.33285
327.37382,1.34490
327.13275,1.36081
326.89167,1.36000
326.65060,1.34152
326.40953,1.32511
326.16846,1.31798
325.92739,1.31414
325.68632,1.31194
325.44525,1.31520
325.20418,1.32138
324.96311,1.32062
324.72204,1.31254
324.48097,1.31103
324.23990,1.32566
323.99883,1.34966
323.75776,1.36502
323.51669,1.36420
323.27562,1.35411
323.03455,1.34243
322.79348,1.33660
322.55240,1.34542
322.31133,1.37059
322.07026,1.39790
321.82919,1.40996
321.58812,1.40763
321.34705,1.40024
321.10598,1.38571
320.86491,1.36196
320.62384,1.34270
320.38277,1.34147
320.14170,1.35454
319.90063,1.36611
319.65956,1.36778
319.41849,1.36259
319.17742,1.35210
318.93635,1.33548
318.69528,1.31764
318.45421,1.30739
318.21313,1.30991
317.97206,1.32279
317.73099,1.33459
317.48992,1.33297
317.24885,1.32160
317.00778,1.31582
316.76671,1.31925
316.52564,1.32593
316.28457,1.33789
316.04350,1.35500
315.80243,1.37066
315.56136,1.38266
315.32029,1.39056
315.07922,1.39057
314.83815,1.38119
314.59708,1.36926
314.35601,1.36247
314.11494,1.36306
313.87386,1.37293
313.63279,1.39203
313.39172,1.41096
313.15065,1.42343
312.90958,1.43384
312.66851,1.43970
312.42744,1.43532
312.18637,1.42209
311.94530,1.40823
311.70423,1.39783
311.46316,1.38853
311.22209,1.38229
310.98102,1.38684
310.73995,1.40434
310.49888,1.42517
310.25781,1.43729
310.01674,1.44205
309.77567,1.44963
309.53459,1.46052
309.29352,1.46671
309.05245,1.46622
308.81138,1.46251
308.57031,1.45804
308.32924,1.45256
308.08817,1.44683
307.84710,1.43917
307.60603,1.42670
307.36496,1.41787
307.12389,1.42581
306.88282,1.44935
306.64175,1.47600
306.40068,1.49760
306.15961,1.50940
305.91854,1.50766
305.67747,1.49721
305.43640,1.48604
305.19532,1.47790
304.95425,1.47890
304.71318,1.49187
304.47211,1.50082
304.23104,1.48552
303.98997,1.45062
303.74890,1.42077
303.50783,1.40976
303.26676,1.40735
303.02569,1.39596
302.78462,1.37279
302.54355,1.35128
302.30248,1.34245
302.06141,1.34509
301.82034,1.35415
301.57927,1.36711
301.33820,1.37776
301.09713,1.37797
300.85605,1.36790
300.61498,1.35387
300.37391,1.34060
300.13284,1.33054
299.89177,1.32604
299.65070,1.32549
299.40963,1.32198
299.16856,1.31230
298.92749,1.30198
298.68642,1.29768
298.44535,1.29911
298.20428,1.30006
297.96321,1.29505
297.72214,1.28422
297.48107,1.27261
297.24000,1.26593
296.99893,1.26550
296.75786,1.26459
296.51678,1.25450
296.27571,1.23622
296.03464,1.22009
295.79357,1.21471
295.55250,1.22114
295.31143,1.23348
295.07036,1.24110
294.82929,1.23612
294.58822,1.22272
294.34715,1.21162
294.10608,1.20821
293.86501,1.21025
293.62394,1.21129
293.38287,1.20636
293.14180,1.19753
292.90073,1.19091
292.65966,1.18976
292.41859,1.19049
292.17751,1.18540
291.93644,1.17287
291.69537,1.16021
291.45430,1.15502
291.21323,1.15864
290.97216,1.16681
290.73109,1.17341
290.49002,1.17445
290.24895,1.17085
290.00788,1.16617
289.76681,1.16063
289.52574,1.15168
289.28467,1.14074
289.04360,1.13301
288.80253,1.13105
288.56146,1.13347
288.32039,1.13803
288.07932,1.14132
287.83824,1.13875
287.59717,1.13023
287.35610,1.12220
287.11503,1.12005
286.87396,1.12227
286.63289,1.12461
286.39182,1.12627
286.15075,1.12953
285.90968,1.13593
285.66861,1.14505
285.42754,1.15480
285.18647,1.16164
284.94540,1.16254
284.70433,1.15731
284.46326,1.14880
284.22219,1.14107
283.98112,1.13636
283.74005,1.13302
283.49897,1.12777
283.25790,1.12086
283.01683,1.11679
282.77576,1.11868
282.53469,1.12437
282.29362,1.12900
282.05255,1.13108
281.81148,1.13311
281.57041,1.13548
281.32934,1.13437
281.08827,1.12739
280.84720,1.11826
280.60613,1.11316
280.36506,1.11390
280.12399,1.11752
279.88292,1.12146
279.64185,1.12519
279.40078,1.12736
279.15970,1.12692
278.91863,1.12641
278.67756,1.12912
278.43649,1.13340
278.19542,1.13348
277.95435,1.12666
277.71328,1.11676
277.47221,1.10939
277.23114,1.10672
276.99007,1.10797
276.74900,1.11253
276.50793,1.11957
276.26686,1.12558
276.02579,1.12648
275.78472,1.12262
275.54365,1.11891
275.30258,1.11967
275.06151,1.12490
274.82043,1.13138
274.57936,1.13632
274.33829,1.13956
274.09722,1.14297
273.85615,1.14830
273.61508,1.15474
273.37401,1.15940
273.13294,1.16132
272.89187,1.16375
272.65080,1.16932
272.40973,1.17552
272.16866,1.17867
271.92759,1.17960
271.68652,1.18162
271.44545,1.18487
271.20438,1.18603
270.96331,1.18344
270.72224,1.18072
270.48116,1.18360
270.24009,1.19264
269.99902,1.20158
269.75795,1.20383
269.51688,1.20017
269.27581,1.19845
269.03474,1.20430
268.79367,1.21438
268.55260,1.22078
268.31153,1.22172
268.07046,1.22243
267.82939,1.22559
267.58832,1.22819
267.34725,1.22813
267.10618,1.22937
266.86511,1.23728
266.62404,1.25255
266.38297,1.27133
266.14189,1.28802
265.90082,1.29889
265.65975,1.30583
265.41868,1.31348
265.17761,1.32263
264.93654,1.33141
264.69547,1.34181
264.45440,1.35778
264.21333,1.37766
263.97226,1.39474
263.73119,1.40655
263.49012,1.41768
263.24905,1.43271
263.00798,1.45108
262.76691,1.46601
262.52584,1.47200
262.28477,1.47386
262.04370,1.47855
261.80262,1.48624
261.56155,1.49617
261.32048,1.51198
261.07941,1.53806
260.83834,1.57353
260.59727,1.60988
260.35620,1.63816
260.11513,1.66140
259.87406,1.69362
259.63299,1.73896
259.39192,1.78282
259.15085,1.81073
258.90978,1.82793
258.66871,1.84694
258.42764,1.87292
258.18657,1.90539
257.94550,1.92897
257.70443,1.92275
257.46335,1.88534
257.22228,1.84151
256.98121,1.81508
256.74014,1.80025
256.49907,1.78226
256.25800,1.76160
256.01693,1.74273
255.77586,1.72232
255.53479,1.69931
255.29372,1.68370
255.05265,1.68519
254.81158,1.69681
254.57051,1.69760
254.32944,1.67834
254.08837,1.65723
253.84730,1.65799
253.60623,1.68101
253.36516,1.69850
253.12408,1.68576
252.88301,1.64951
252.64194,1.61092
252.40087,1.58363
252.15980,1.57023
251.91873,1.57059
251.67766,1.57990
251.43659,1.58179
251.19552,1.56340
250.95445,1.53691
250.71338,1.52392
250.47231,1.52879
250.23124,1.53865
249.99017,1.54131
249.74910,1.53742
249.50803,1.53506
249.26696,1.53932
249.02589,1.54979
248.78481,1.56515
248.54374,1.58128
248.30267,1.58625
248.06160,1.57526
247.82053,1.56192
247.57946,1.56289
247.33839,1.57931
247.09732,1.59690
246.85625,1.60300
246.61518,1.59934
246.37411,1.59320
246.13304,1.58816
245.89197,1.58677
245.65090,1.59115
245.40983,1.60053
245.16876,1.61404
244.92769,1.63431
244.68661,1.66602
244.44554,1.70847
244.20447,1.74970
243.96340,1.77855
243.72233,1.80186
243.48126,1.83769
243.24019,1.89844
242.99912,1.97978
242.75805,2.03726
242.51698,1.98323
242.27591,1.85791
242.03484,1.75123
241.79377,1.66902
241.55270,1.60656
241.31163,1.54963
241.07056,1.48040
240.82949,1.40289
240.58842,1.33592
240.34734,1.28699
240.10627,1.24779
239.86520,1.20837
239.62413,1.16644
239.38306,1.12467
239.14199,1.08680
238.90092,1.05602
238.65985,1.03292
238.41878,1.01472
238.17771,0.99771
237.93664,0.98103
237.69557,0.96669
237.45450,0.95552
237.21343,0.94578
236.97236,0.93503
236.73129,0.92264
236.49022,0.91020
236.24915,0.89858
236.00807,0.88678
235.76700,0.87485
235.52593,0.86442
235.28486,0.85513
235.04379,0.84447
234.80272,0.83326
234.56165,0.82658
234.32058,0.82653
234.07951,0.82845
233.83844,0.82720
233.59737,0.82346
233.35630,0.82054
233.11523,0.81886
232.87416,0.81748
232.63309,0.81741
232.39202,0.81930
232.15095,0.82062
231.90988,0.81878
231.66880,0.81494
231.42773,0.81222
231.18666,0.81135
230.94559,0.81030
230.70452,0.80776
230.46345,0.80473
230.22238,0.80230
229.98131,0.80014
229.74024,0.79844
229.49917,0.79874
229.25810,0.80134
229.01703,0.80380
228.77596,0.80384
228.53489,0.80214
228.29382,0.80034
228.05275,0.79836
227.81168,0.79539
227.57061,0.79201
227.32953,0.79018
227.08846,0.79141
226.84739,0.79556
226.60632,0.80040
226.36525,0.80283
226.12418,0.80179
225.88311,0.79898
225.64204,0.79654
225.40097,0.79580
225.15990,0.79770
224.91883,0.80158
224.67776,0.80464
224.43669,0.80551
224.19562,0.80589
223.95455,0.80704
223.71348,0.80841
223.47241,0.81038
223.23134,0.81475
222.99026,0.82214
222.74919,0.83157
222.50812,0.84126
222.26705,0.84918
222.02598,0.85499
221.78491,0.86036
221.54384,0.86545
221.30277,0.86828
221.06170,0.86934
220.82063,0.87313
220.57956,0.88350
220.33849,0.89996
220.09742,0.91813
219.85635,0.93343
219.61528,0.94521
219.37421,0.95586
219.13314,0.96596
218.89207,0.97410
218.65099,0.98157
218.40992,0.99176
218.16885,1.00577
217.92778,1.02161
217.68671,1.03715
217.44564,1.05212
217.20457,1.06693
216.96350,1.08110
216.72243,1.09350
216.48136,1.10507
216.24029,1.11946
215.99922,1.13868
215.75815,1.16142
215.51708,1.18642
215.27601,1.21366
215.03494,1.24079
214.79387,1.26179
214.55280,1.27243
214.31172,1.27550
214.07065,1.27721
213.82958,1.28213
213.58851,1.29371
213.34744,1.31337
213.10637,1.33626
212.86530,1.35076
212.62423,1.35131
212.38316,1.34768
212.14209,1.35032
211.90102,1.35950
211.65995,1.37241
211.41888,1.38940
211.17781,1.40810
210.93674,1.41683
210.69567,1.40585
210.45460,1.38549
210.21353,1.37413
209.97245,1.37589
209.73138,1.38484
209.49031,1.39784
209.24924,1.41202
209.00817,1.41701
208.76710,1.40478
208.52603,1.38094
208.28496,1.35622
208.04389,1.33744
207.80282,1.32794
207.56175,1.32870
207.32068,1.33612
207.07961,1.34205
206.83854,1.33751
206.59747,1.31657
206.35640,1.28275
206.11533,1.25106
205.87426,1.23559
205.63318,1.23579
205.39211,1.23615
205.15104,1.22102
204.90997,1.19111
204.66890,1.15995
204.42783,1.13933
204.18676,1.13034
203.94569,1.12335
203.70462,1.10870
203.46355,1.08729
203.22248,1.06669
202.98141,1.05165
202.74034,1.04170
202.49927,1.03299
202.25820,1.02046
202.01713,1.00123
201.77606,0.97685
201.53499,0.95205
201.29391,0.93124
201.05284,0.91664
200.81177,0.90773
200.57070,0.90094
200.32963,0.89158
200.08856,0.87791
199.84749,0.86231
199.60642,0.84743
199.36535,0.83346
199.12428,0.82033
198.88321,0.80891
198.64214,0.79777
198.40107,0.78356
198.16000,0.76725
197.91893,0.75470
197.67786,0.74917
197.43679,0.74630
197.19572,0.73846
196.95464,0.72387
196.71357,0.70867
196.47250,0.69898
196.23143,0.69454
195.99036,0.69020
195.74929,0.68233
195.50822,0.67241
195.26715,0.66401
195.02608,0.65896
194.78501,0.65637
194.54394,0.65340
194.30287,0.64781
194.06180,0.64021
193.82073,0.63282
193.57966,0.62706
193.33859,0.62234
193.09752,0.61669
192.85645,0.60939
192.61537,0.60231
192.37430,0.59740
192.13323,0.59422
191.89216,0.59120
191.65109,0.58739
191.41002,0.58254
191.16895,0.57746
190.92788,0.57396
190.68681,0.57273
190.44574,0.57235
190.20467,0.57187
189.96360,0.57216
189.72253,0.57318
189.48146,0.57274
189.24039,0.56987
188.99932,0.56678
188.75825,0.56527
188.51718,0.56371
188.27610,0.56001
188.03503,0.55619
187.79396,0.55584
187.55289,0.55758
187.31182,0.55601
187.07075,0.55005
186.82968,0.54473
186.58861,0.54345
186.34754,0.54459
186.10647,0.54588
185.86540,0.54788
185.62433,0.55128
185.38326,0.55433
185.14219,0.55536
184.90112,0.55555
184.66005,0.55710
184.41898,0.55972
184.17791,0.56182
183.93683,0.56428
183.69576,0.56913
183.45469,0.57487
183.21362,0.57756
182.97255,0.57634
182.73148,0.57391
182.49041,0.57224
182.24934,0.57215
182.00827,0.57466
181.76720,0.57883
181.52613,0.58122
181.28506,0.58029
181.04399,0.57868
180.80292,0.57895
180.56185,0.58080
180.32078,0.58375
180.07971,0.58872
179.83864,0.59579
179.59756,0.60344
179.35649,0.61037
179.11542,0.61609
178.87435,0.62127
178.63328,0.62815
178.39221,0.63809
178.15114,0.64935
177.91007,0.66023
177.66900,0.67174
177.42793,0.68463
177.18686,0.69752
176.94579,0.70977
176.70472,0.72298
176.46365,0.73915
176.22258,0.75881
175.98151,0.78037
175.74044,0.80154
175.49937,0.82243
175.25829,0.84503
175.01722,0.87017
174.77615,0.89662
174.53508,0.92187
174.29401,0.94367
174.05294,0.96242
173.81187,0.98066
173.57080,0.99845
173.32973,1.01384
173.08866,1.02798
172.84759,1.04388
172.60652,1.06136
172.36545,1.07772
172.12438,1.09056
171.88331,1.09667
171.64224,1.09439
171.40117,1.08827
171.16010,1.08482
170.91902,1.08543
170.67795,1.08669
170.43688,1.08450
170.19581,1.07581
169.95474,1.05891
169.71367,1.03589
169.47260,1.01390
169.23153,0.99997
168.99046,0.99557
168.74939,0.99771
168.50832,1.00286
168.26725,1.00866
168.02618,1.01422
167.78511,1.01900
167.54404,1.02038
167.30297,1.01488
167.06190,1.00323
166.82083,0.99090
166.57975,0.98289
166.33868,0.98123
166.09761,0.98742
165.85654,1.00298
165.61547,1.02540
165.37440,1.04596
165.13333,1.05617
164.89226,1.05756
164.65119,1.05946
164.41012,1.06734
164.16905,1.07892
163.92798,1.08997
163.68691,1.10026
163.44584,1.11437
163.20477,1.13794
162.96370,1.17148
162.72263,1.20560
162.48156,1.22662
162.24048,1.23009
161.99941,1.22252
161.75834,1.21286
161.51727,1.20678
161.27620,1.20557
161.03513,1.20831
160.79406,1.21404
160.55299,1.22039
160.31192,1.22199
160.07085,1.21483
159.82978,1.20081
159.58871,1.18589
159.34764,1.17636
159.10657,1.17600
158.86550,1.18363
158.62443,1.19081
158.38336,1.18553
158.14229,1.16526
157.90121,1.14037
157.66014,1.12129
157.41907,1.11084
157.17800,1.10776
156.93693,1.11112
156.69586,1.11757
156.45479,1.11812
156.21372,1.10603
155.97265,1.08543
155.73158,1.06660
155.49051,1.05667
155.24944,1.05438
155.00837,1.05185
154.76730,1.04216
154.52623,1.02463
154.28516,1.00269
154.04409,0.98133
153.80302,0.96527
153.56194,0.95388
153.32087,0.93978
153.07980,0.91659
152.83873,0.88635
152.59766,0.85641
152.35659,0.83177
152.11552,0.81223
151.87445,0.79504
151.63338,0.77822
151.39231,0.76125
151.15124,0.74393
150.91017,0.72621
150.66910,0.70866
150.42803,0.69238
150.18696,0.67806
149.94589,0.66503
149.70482,0.65115
149.46375,0.63484
149.22267,0.61778
148.98160,0.60406
148.74053,0.59585
148.49946,0.59081
148.25839,0.58484
148.01732,0.57702
147.77625,0.57011
147.53518,0.56643
147.29411,0.56557
147.05304,0.56586
146.81197,0.56619
146.57090,0.56672
146.32983,0.56880
146.08876,0.57395
145.84769,0.58186
145.60662,0.58956
145.36555,0.59417
145.12448,0.59631
144.88340,0.59905
144.64233,0.60433
144.40126,0.61172
144.16019,0.61925
143.91912,0.62431
143.67805,0.62544
143.43698,0.62383
143.19591,0.62132
142.95484,0.61705
142.71377,0.60864
142.47270,0.59624
142.23163,0.58258
141.99056,0.56959
141.74949,0.55753
141.50842,0.54660
141.26735,0.53751
141.02628,0.53077
140.78521,0.52657
140.54413,0.52534
140.30306,0.52720
140.06199,0.53053
139.82092,0.53263
139.57985,0.53315
139.33878,0.53543
139.09771,0.54215
138.85664,0.55158
138.61557,0.56043
138.37450,0.56844
138.13343,0.57757
137.89236,0.58891
137.65129,0.60290
137.41022,0.62009
137.16915,0.64006
136.92808,0.66080
136.68701,0.68052
136.44594,0.69947
136.20486,0.71979
135.96379,0.74448
135.72272,0.77561
135.48165,0.81247
135.24058,0.85252
134.99951,0.89455
134.75844,0.93805
134.51737,0.97939
134.27630,1.01477
134.03523,1.04653
133.79416,1.07948
133.55309,1.11241
133.31202,1.14090
133.07095,1.16531
132.82988,1.18800
132.58881,1.20880
132.34774,1.22740
132.10667,1.24226
131.86559,1.24886
131.62452,1.24634
131.38345,1.23930
131.14238,1.22883
130.90131,1.20957
130.66024,1.17777
130.41917,1.13871
130.17810,1.10000
129.93703,1.05953
129.69596,1.00982
129.45489,0.95220
129.21382,0.89698
128.97275,0.85089
128.73168,0.81247
128.49061,0.77811
128.24954,0.74571
128.00847,0.71456
127.76740,0.68540
127.52632,0.65939
127.28525,0.63595
127.04418,0.61327
126.80311,0.59069
126.56204,0.56934
126.32097,0.55081
126.07990,0.53551
125.83883,0.52205
125.59776,0.50850
125.35669,0.49481
125.11562,0.48264
124.87455,0.47278
124.63348,0.46422
124.39241,0.45621
124.15134,0.44965
123.91027,0.44522
123.66920,0.44122
123.42812,0.43531
123.18705,0.42761
122.94598,0.42070
122.70491,0.41701
122.46384,0.41738
122.22277,0.42060
121.98170,0.42394
121.74063,0.42591
121.49956,0.42856
121.25849,0.43495
121.01742,0.44528
120.77635,0.45735
120.53528,0.46969
120.29421,0.48287
120.05314,0.49855
119.81207,0.51801
119.57100,0.54114
119.32993,0.56682
119.08885,0.59373
118.84778,0.62081
118.60671,0.64795
118.36564,0.67623
118.12457,0.70628
117.88350,0.73709
117.64243,0.76709
117.40136,0.79468
117.16029,0.81718
116.91922,0.83232
116.67815,0.84047
116.43708,0.84184
116.19601,0.83436
115.95494,0.81808
115.71387,0.79836
115.47280,0.78062
115.23173,0.76477
114.99066,0.74660
114.74958,0.72399
114.50851,0.70036
114.26744,0.68108
114.02637,0.66788
113.78530,0.65914
113.54423,0.65390
113.30316,0.65373
113.06209,0.66137
112.82102,0.67800
112.57995,0.70104
112.33888,0.72469
112.09781,0.74298
111.85674,0.75326
111.61567,0.75663
111.37460,0.75499
111.13353,0.74881
110.89246,0.73955
110.65139,0.73288
110.41031,0.73530
110.16924,0.74659
109.92817,0.75727
109.68710,0.75641
109.44603,0.74088
109.20496,0.71385
108.96389,0.67960
108.72282,0.64333
108.48175,0.61049
108.24068,0.58420
107.99961,0.56439
107.75854,0.54909
107.51747,0.53568
107.27640,0.52147
107.03533,0.50466
106.79426,0.48542
106.55319,0.46513
106.31212,0.44526
106.07104,0.42813
105.82997,0.41628
105.58890,0.40908
105.34783,0.40222
105.10676,0.39202
104.86569,0.37788
104.62462,0.36102
104.38355,0.34447
104.14248,0.33322
103.90141,0.33055
103.66034,0.33376
103.41927,0.33519
103.17820,0.32925
102.93713,0.31741
102.69606,0.30501
102.45499,0.29597
102.21392,0.29136
101.97285,0.29018
101.73177,0.29016
101.49070,0.28840
101.24963,0.28306
101.00856,0.27522
100.76749,0.26871
100.52642,0.26702
100.28535,0.27010
100.04428,0.27364
99.80321,0.27210
99.56214,0.26413
99.32107,0.25460
99.08000,0.24992
98.83893,0.25190
98.59786,0.25551
98.35679,0.25375
98.11572,0.24669
97.87465,0.24202
97.63358,0.24566
97.39250,0.25517
97.15143,0.26257
96.91036,0.26278
96.66929,0.25924
96.42822,0.25983
96.18715,0.26863
95.94608,0.28204
95.70501,0.29268
95.46394,0.29899
95.22287,0.30715
94.98180,0.32119
94.74073,0.33598
94.49966,0.34234
94.25859,0.33996
94.01752,0.33811
93.77645,0.34124
93.53538,0.34273
93.29431,0.33791
93.05323,0.33508
92.81216,0.34171
92.57109,0.35045
92.33002,0.35003
92.08895,0.34495
91.84788,0.34717
91.60681,0.35728
91.36574,0.36796
91.12467,0.37929
90.88360,0.39741
90.64253,0.42305
90.40146,0.45409
90.16039,0.49299
89.91932,0.54093
89.67825,0.59322
89.43718,0.64849
89.19611,0.70652
88.95504,0.75450
88.71396,0.77729
88.47289,0.77443
88.23182,0.74979
87.99075,0.70677
87.74968,0.65434
87.50861,0.60045
87.26754,0.54770
87.02647,0.49845
86.78540,0.45560
86.54433,0.41964
86.30326,0.38954
86.06219,0.36370
85.82112,0.33943
85.58005,0.31547
85.33898,0.29363
85.09791,0.27591
84.85684,0.26221
84.61577,0.25105
84.37469,0.24064
84.13362,0.23001
83.89255,0.22018
83.65148,0.21234
83.41041,0.20585
83.16934,0.19947
82.92827,0.19322
82.68720,0.18819
82.44613,0.18535
82.20506,0.18434
81.96399,0.18355
81.72292,0.18209
81.48185,0.18083
81.24078,0.18068
80.99971,0.18130
80.75864,0.18183
80.51757,0.18187
80.27650,0.18159
80.03542,0.18090
79.79435,0.17892
79.55328,0.17497
79.31221,0.17008
79.07114,0.16607
78.83007,0.16376
78.58900,0.16299
78.34793,0.16312
78.10686,0.16303
77.86579,0.16144
77.62472,0.15752
77.38365,0.15151
77.14258,0.14508
76.90151,0.14062
76.66044,0.13926
76.41937,0.14044
76.17830,0.14329
75.93723,0.14673
75.69615,0.14841
75.45508,0.14626
75.21401,0.14126
74.97294,0.13674
74.73187,0.13503
74.49080,0.13633
74.24973,0.13955
74.00866,0.14303
73.76759,0.14528
73.52652,0.14592
73.28545,0.14608
73.04438,0.14783
72.80331,0.15231
72.56224,0.15805
72.32117,0.16182
72.08010,0.16153
71.83903,0.15806
71.59796,0.15394
71.35688,0.15133
71.11581,0.15137
70.87474,0.15447
70.63367,0.16120
70.39260,0.17327
70.15153,0.19235
69.91046,0.21763
69.66939,0.24525
69.42832,0.26931
69.18725,0.28357
68.94618,0.28415
68.70511,0.27155
68.46404,0.24980
68.22297,0.22420
67.98190,0.19928
67.74083,0.17807
67.49976,0.16215
67.25869,0.15191
67.01761,0.14652
66.77654,0.14349
66.53547,0.13944
66.29440,0.13288
66.05333,0.12548
65.81226,0.12058
65.57119,0.12093
65.33012,0.12774
65.08905,0.14061
64.84798,0.15728
64.60691,0.17424
64.36584,0.18890
64.12477,0.20033
63.88370,0.20749
63.64263,0.20904
63.40156,0.20572
63.16049,0.19992
62.91942,0.19250
62.67834,0.18242
62.43727,0.16930
62.19620,0.15464
61.95513,0.14068
61.71406,0.12855
61.47299,0.11776
61.23192,0.10787
60.99085,0.10054
60.74978,0.09874
60.50871,0.10357
60.26764,0.11226
60.02657,0.12047
59.78550,0.12691
59.54443,0.13436
59.30336,0.14476
59.06229,0.15561
58.82122,0.16381
58.58015,0.17044
58.33907,0.17756
58.09800,0.18243
57.85693,0.18015
57.61586,0.16988
57.37479,0.15333
57.13372,0.13206
56.89265,0.10965
56.65158,0.09234
56.41051,0.08615
56.16944,0.09432
55.92837,0.11660
55.68730,0.14850
55.44623,0.18111
55.20516,0.20165
54.96409,0.19757
54.72302,0.16909
54.48195,0.13125
54.24088,0.10021
53.99980,0.08673
53.75873,0.09522
53.51766,0.12370
53.27659,0.16398
53.03552,0.19818
52.79445,0.20143
52.55338,0.17123
52.31231,0.13358
52.07124,0.10942
51.83017,0.10572
51.58910,0.12328
51.34803,0.15680
51.10696,0.18140
50.86589,0.16531
50.62482,0.12534
50.38375,0.09688
50.14268,0.09584
49.90161,0.12794
49.66053,0.18080
49.41946,0.19657
49.17839,0.15045
48.93732,0.10679
48.69625,0.10070
48.45518,0.13437
48.21411,0.17714
47.97304,0.16409
47.73197,0.11438
47.49090,0.09508
47.24983,0.12279
47.00876,0.15688
46.76769,0.13583
46.52662,0.09874
46.28555,0.09833
46.04448,0.11921
45.80341,0.11706
45.56234,0.10365
45.32126,0.11654
45.08019,0.14138
44.83912,0.14081
44.59805,0.12682
44.35698,0.12422
44.11591,0.12707
43.87484,0.12849
43.63377,0.13376
43.39270,0.13888
43.15163,0.14004
42.91056,0.14751
42.66949,0.16397
42.42842,0.17471
42.18735,0.17009
41.94628,0.15451
41.70521,0.13828
41.46414,0.13019
41.22307,0.12878
40.98199,0.12741
40.74092,0.12727
40.49985,0.13268
40.25878,0.14224
40.01771,0.15320
39.77664,0.16409
39.53557,0.17249
39.29450,0.17749
39.05343,0.17976
38.81236,0.17957
38.57129,0.17901
38.33022,0.18106
38.08915,0.18474
37.84808,0.18852
37.60701,0.19445
37.36594,0.20270
37.12487,0.21000
36.88380,0.21420
36.64272,0.21570
36.40165,0.21636
36.16058,0.21784
35.91951,0.22207
35.67844,0.23032
35.43737,0.23904
35.19630,0.24179
34.95523,0.24095
34.71416,0.24416
34.47309,0.24418
34.23202,0.22729
33.99095,0.20119
33.74988,0.18288
33.50881,0.17901
33.26774,0.18556
33.02667,0.19708
32.78560,0.21239
32.54453,0.22841
32.30345,0.23815
32.06238,0.23209
31.82131,0.20914
31.58024,0.18050
31.33917,0.15996
31.09810,0.15292
30.85703,0.14886
30.61596,0.13575
30.37489,0.11646
30.13382,0.09932
29.89275,0.08802
29.65168,0.08159
29.41061,0.07161
29.16954,0.05062
28.92847,0.02528
28.68740,0.00916
28.44633,0.00596
28.20526,0.00746
27.96418,0.00512
27.72311,-0.00235
27.48204,-0.00879
27.24097,-0.01007
26.99990,-0.01298
26.75883,-0.02161
26.51776,-0.03317
26.27669,-0.04886
26.03562,-0.06821
25.79455,-0.08255
25.55348,-0.08473
25.31241,-0.06816
25.07134,-0.03583
24.83027,-0.00827
24.58920,-0.00367
24.34813,-0.02260
24.10706,-0.05473
23.86599,-0.08800
23.62491,-0.11455
23.38384,-0.13678
23.14277,-0.16284
22.90170,-0.19013
22.66063,-0.19909
22.41956,-0.17864
22.17849,-0.14115
21.93742,-0.11306
21.69635,-0.12096
21.45528,-0.15811
21.21421,-0.18872
20.97314,-0.19027
20.73207,-0.17702
20.49100,-0.17627
20.24993,-0.19377
20.00886,-0.21144
19.76779,-0.21279
19.52672,-0.19777
19.28564,-0.18742
19.04457,-0.21494
18.80350,-0.29402
18.56243,-0.37494
18.32136,-0.35661
18.08029,-0.29182
17.83922,-0.23984
17.59815,-0.22171
17.35708,-0.21835
17.11601,-0.19307
16.87494,-0.16668
16.63387,-0.17025
16.39280,-0.21107
16.15173,-0.26663
15.91066,-0.29161
15.66959,-0.28160
15.42852,-0.25595
15.18745,-0.24586
14.94637,-0.26200
14.70530,-0.28657
14.46423,-0.30006
14.22316,-0.28484
13.98209,-0.27171
13.74102,-0.26817
13.49995,-0.25565
13.25888,-0.24971
13.01781,-0.27532
12.77674,-0.31909
12.53567,-0.34541
12.29460,-0.33264
12.05353,-0.29810
11.81246,-0.28596
11.57139,-0.31226
11.33032,-0.34898
11.08925,-0.35463
10.84818,-0.34690
10.60710,-0.32039
10.36603,-0.28946
10.12496,-0.27920
9.88389,-0.27501
9.64282,-0.27713
9.40175,-0.28681
9.16068,-0.30310
8.91961,-0.32793
8.67854,-0.34627
8.43747,-0.32493
8.19640,-0.31015
7.95533,-0.29785
7.71426,-0.27888
7.47319,-0.28721
7.23212,-0.32101
6.99105,-0.35276
6.74998,-0.36529
6.50891,-0.35681
6.26783,-0.33018
6.02676,-0.30195
5.78569,-0.29115
5.54462,-0.29780
5.30355,-0.31949
5.06248,-0.32767
4.82141,-0.32083
4.58034,-0.30243
4.33927,-0.28726
4.09820,-0.28296
3.85713,-0.27905
3.61606,-0.26731
3.37499,-0.25421
3.13392,-0.24397
2.89285,-0.23828
2.65178,-0.23843
2.41071,-0.24604
2.16964,-0.24966
1.92856,-0.25089
1.68749,-0.26865
1.44642,-0.27820
1.20535,-0.29429
0.96428,-0.30254
0.72321,-0.30965
0.48214,-0.34418
0.24107,-0.32255
-0.00000,-0.17832
