399.69498,1.54266
399.45391,1.54037
399.21284,1.54635
398.97177,1.55437
398.73070,1.55535
398.48963,1.55100
398.24856,1.55005
398.00749,1.55608
397.76642,1.56434
397.52535,1.57119
397.28428,1.57774
397.04321,1.58443
396.80214,1.58587
396.56107,1.56685
396.32000,1.52535
396.07892,1.48823
395.83785,1.48179
395.59678,1.50746
395.35571,1.54641
395.11464,1.57268
394.87357,1.57459
394.63250,1.56543
394.39143,1.55916
394.15036,1.55642
393.90929,1.55987
393.66822,1.57368
393.42715,1.58702
393.18608,1.58747
392.94501,1.57709
392.70394,1.56025
392.46287,1.54023
392.22180,1.52645
391.98073,1.51941
391.73965,1.50831
391.49858,1.49040
391.25751,1.47328
391.01644,1.46857
390.77537,1.48165
390.53430,1.50325
390.29323,1.51950
390.05216,1.52662
389.81109,1.52894
389.57002,1.52942
389.32895,1.52450
389.08788,1.50985
388.84681,1.49355
388.60574,1.49191
388.36467,1.51347
388.12360,1.54621
387.88253,1.56366
387.64146,1.55580
387.40038,1.53846
387.15931,1.52778
386.91824,1.52058
386.67717,1.50027
386.43610,1.46450
386.19503,1.43395
385.95396,1.42402
385.71289,1.42992
385.47182,1.43966
385.23075,1.44938
384.98968,1.45805
384.74861,1.45180
384.50754,1.42277
384.26647,1.38530
384.02540,1.35492
383.78433,1.33046
383.54326,1.30870
383.30219,1.29593
383.06111,1.30327
382.82004,1.33530
382.57897,1.38084
382.33790,1.41306
382.09683,1.40808
381.85576,1.37376
381.61469,1.33688
381.37362,1.30717
381.13255,1.28403
380.89148,1.27433
380.65041,1.28161
380.40934,1.29728
380.16827,1.30784
379.92720,1.30810
379.68613,1.30463
379.44506,1.30575
379.20399,1.31595
378.96292,1.33254
378.72184,1.34744
378.48077,1.35841
378.23970,1.36445
377.99863,1.36008
377.75756,1.34679
377.51649,1.33719
377.27542,1.34205
377.03435,1.35968
376.79328,1.38115
376.55221,1.40022
376.31114,1.41093
376.07007,1.40574
375.82900,1.38722
375.58793,1.37169
375.34686,1.37545
375.10579,1.40044
374.86472,1.42648
374.62365,1.42939
374.38257,1.41522
374.14150,1.40928
373.90043,1.42066
373.65936,1.43809
373.41829,1.45100
373.17722,1.45856
372.93615,1.45907
372.69508,1.45111
372.45401,1.43975
372.21294,1.42803
371.97187,1.41480
371.73080,1.40337
371.48973,1.39906
371.24866,1.39972
371.00759,1.39768
370.76652,1.38902
370.52545,1.37570
370.28437,1.36204
370.04330,1.35183
369.80223,1.34420
369.56116,1.33333
369.32009,1.31694
369.07902,1.30246
368.83795,1.29905
368.59688,1.30605
368.35581,1.31342
368.11474,1.31300
367.87367,1.30590
367.63260,1.29811
367.39153,1.29365
367.15046,1.29132
366.90939,1.28567
366.66832,1.27465
366.42725,1.26478
366.18618,1.26285
365.94510,1.26738
365.70403,1.27043
365.46296,1.26739
365.22189,1.26243
364.98082,1.26125
364.73975,1.26381
364.49868,1.26667
364.25761,1.26809
364.01654,1.26951
363.77547,1.27325
363.53440,1.27817
363.29333,1.27920
363.05226,1.27204
362.81119,1.25706
362.57012,1.24106
362.32905,1.23381
362.08798,1.23917
361.84691,1.25058
361.60583,1.25772
361.36476,1.25784
361.12369,1.25547
360.88262,1.25245
360.64155,1.24664
360.40048,1.23859
360.15941,1.23264
359.91834,1.23145
359.67727,1.23322
359.43620,1.23454
359.19513,1.23509
358.95406,1.23766
358.71299,1.24307
358.47192,1.24849
358.23085,1.25111
357.98978,1.24982
357.74871,1.24462
357.50764,1.23820
357.26656,1.23533
357.02549,1.23885
356.78442,1.24730
356.54335,1.25587
356.30228,1.25820
356.06121,1.25013
355.82014,1.23517
355.57907,1.22217
355.33800,1.21900
355.09693,1.22742
354.85586,1.24125
354.61479,1.25067
354.37372,1.24940
354.13265,1.23862
353.89158,1.22469
353.65051,1.21546
353.40944,1.21673
353.16837,1.22618
352.92729,1.23502
352.68622,1.23675
352.44515,1.23072
352.20408,1.22120
351.96301,1.21559
351.72194,1.21874
351.48087,1.22703
351.23980,1.23234
350.99873,1.23282
350.75766,1.23460
350.51659,1.24235
350.27552,1.25351
350.03445,1.26239
349.79338,1.26647
349.55231,1.26620
349.31124,1.26128
349.07017,1.25191
348.82910,1.24259
348.58802,1.24065
348.34695,1.24962
348.10588,1.26596
347.86481,1.28115
347.62374,1.28762
347.38267,1.28544
347.14160,1.28159
346.90053,1.27975
346.65946,1.27682
346.41839,1.27268
346.17732,1.27356
345.93625,1.28230
345.69518,1.29490
345.45411,1.30674
345.21304,1.31545
344.97197,1.31939
344.73090,1.31891
344.48983,1.31771
344.24875,1.31947
344.00768,1.32404
343.76661,1.32897
343.52554,1.33168
343.28447,1.32988
343.04340,1.32594
342.80233,1.32640
342.56126,1.33342
342.32019,1.34356
342.07912,1.35148
341.83805,1.35243
341.59698,1.34405
341.35591,1.33117
341.11484,1.32666
340.87377,1.33697
340.63270,1.35626
340.39163,1.37548
340.15056,1.38918
339.90948,1.39678
339.66841,1.40142
339.42734,1.40693
339.18627,1.41493
338.94520,1.42240
338.70413,1.42528
338.46306,1.42604
338.22199,1.43148
337.98092,1.44290
337.73985,1.45408
337.49878,1.45796
337.25771,1.44967
337.01664,1.42951
336.77557,1.40921
336.53450,1.40453
336.29343,1.41989
336.05236,1.44366
335.81129,1.45995
335.57021,1.46280
335.32914,1.45343
335.08807,1.43522
334.84700,1.41588
334.60593,1.40155
334.36486,1.39174
334.12379,1.38422
333.88272,1.37673
333.64165,1.36714
333.40058,1.35964
333.15951,1.36121
332.91844,1.37212
332.67737,1.38486
332.43630,1.39108
332.19523,1.39049
331.95416,1.38593
331.71309,1.37352
331.47202,1.34817
331.23094,1.31762
330.98987,1.30034
330.74880,1.30203
330.50773,1.30483
330.26666,1.29260
330.02559,1.27816
329.78452,1.28396
329.54345,1.30766
329.30238,1.32470
329.06131,1.32204
328.82024,1.31045
328.57917,1.30617
328.33810,1.31371
328.09703,1.32486
327.85596,1.33102
327.61489,1.33208
327.37382,1.32996
327.13275,1.32102
326.89167,1.30547
326.65060,1.29164
326.40953,1.28679
326.16846,1.29078
325.92739,1.29990
325.68632,1.31272
325.44525,1.32728
325.20418,1.33772
324.96311,1.33850
324.72204,1.32926
324.48097,1.31548
324.23990,1.30471
323.99883,1.30207
323.75776,1.30622
323.51669,1.30877
323.27562,1.30499
323.03455,1.30553
322.79348,1.32185
322.55240,1.34334
322.31133,1.34935
322.07026,1.34108
321.82919,1.33586
321.58812,1.34032
321.34705,1.34894
321.10598,1.35866
320.86491,1.36905
320.62384,1.37569
320.38277,1.37321
320.14170,1.36346
319.90063,1.35496
319.65956,1.35223
319.41849,1.34898
319.17742,1.33949
318.93635,1.32966
318.69528,1.32553
318.45421,1.32514
318.21313,1.32851
317.97206,1.33659
317.73099,1.34053
317.48992,1.33633
317.24885,1.33572
317.00778,1.33759
316.76671,1.32839
316.52564,1.31372
316.28457,1.31678
316.04350,1.34616
315.80243,1.38192
315.56136,1.39512
315.32029,1.38111
315.07922,1.36373
314.83815,1.36144
314.59708,1.37195
314.35601,1.38399
314.11494,1.38691
313.87386,1.38109
313.63279,1.37873
313.39172,1.38596
313.15065,1.39690
312.90958,1.40110
312.66851,1.39552
312.42744,1.38921
312.18637,1.38720
311.94530,1.38821
311.70423,1.39686
311.46316,1.42033
311.22209,1.44990
310.98102,1.45954
310.73995,1.44202
310.49888,1.42118
310.25781,1.40934
310.01674,1.39862
309.77567,1.38825
309.53459,1.38276
309.29352,1.37904
309.05245,1.37702
308.81138,1.38508
308.57031,1.40521
308.32924,1.42565
308.08817,1.43430
307.84710,1.43189
307.60603,1.42414
307.36496,1.41456
307.12389,1.40714
306.88282,1.40525
306.64175,1.40791
306.40068,1.40809
306.15961,1.40290
305.91854,1.40341
305.67747,1.42257
305.43640,1.45721
305.19532,1.48847
304.95425,1.49826
304.71318,1.48164
304.47211,1.44923
304.23104,1.42125
303.98997,1.40942
303.74890,1.40805
303.50783,1.40247
303.26676,1.38424
303.02569,1.36165
302.78462,1.34943
302.54355,1.35265
302.30248,1.36508
302.06141,1.37669
301.82034,1.38151
301.57927,1.38010
301.33820,1.37311
301.09713,1.35919
300.85605,1.34010
300.61498,1.32235
300.37391,1.31401
300.13284,1.31833
299.89177,1.32739
299.65070,1.32710
299.40963,1.31441
299.16856,1.30041
298.92749,1.29376
298.68642,1.29345
298.44535,1.29580
298.20428,1.29719
297.96321,1.29233
297.72214,1.27754
297.48107,1.25780
297.24000,1.24437
296.99893,1.24210
296.75786,1.24368
296.51678,1.23934
296.27571,1.22987
296.03464,1.22365
295.79357,1.22315
295.55250,1.22218
295.31143,1.21425
295.07036,1.20050
294.82929,1.18937
294.58822,1.18776
294.34715,1.19413
294.10608,1.20099
293.86501,1.20366
293.62394,1.20425
293.38287,1.20607
293.14180,1.20863
292.90073,1.20913
292.65966,1.20650
292.41859,1.20197
292.17751,1.19706
291.93644,1.19153
291.69537,1.18385
291.45430,1.17503
291.21323,1.16821
290.97216,1.16383
290.73109,1.15935
290.49002,1.15433
290.24895,1.15133
290.00788,1.15103
289.76681,1.15127
289.52574,1.15135
289.28467,1.15184
289.04360,1.15150
288.80253,1.14869
288.56146,1.14461
288.32039,1.14196
288.07932,1.14187
287.83824,1.14392
287.59717,1.14655
287.35610,1.14757
287.11503,1.14553
286.87396,1.14114
286.63289,1.13637
286.39182,1.13217
286.15075,1.12797
285.90968,1.12331
285.66861,1.11920
285.42754,1.11736
285.18647,1.11819
284.94540,1.11984
284.70433,1.11999
284.46326,1.11823
284.22219,1.11606
283.98112,1.11454
283.74005,1.11385
283.49897,1.11512
283.25790,1.11906
283.01683,1.12290
282.77576,1.12313
282.53469,1.12101
282.29362,1.12137
282.05255,1.12553
281.81148,1.12884
281.57041,1.12724
281.32934,1.12299
281.08827,1.12041
280.84720,1.12033
280.60613,1.12157
280.36506,1.12308
280.12399,1.12235
279.88292,1.11776
279.64185,1.11338
279.40078,1.11567
279.15970,1.12543
278.91863,1.13572
278.67756,1.13900
278.43649,1.13581
278.19542,1.13329
277.95435,1.13488
277.71328,1.13692
277.47221,1.13625
277.23114,1.13469
276.99007,1.13415
276.74900,1.13292
276.50793,1.13001
276.26686,1.12915
276.02579,1.13424
275.78472,1.14264
275.54365,1.14667
275.30258,1.14291
275.06151,1.13661
274.82043,1.13543
274.57936,1.14207
274.33829,1.15247
274.09722,1.15916
273.85615,1.15844
273.61508,1.15436
273.37401,1.15397
273.13294,1.16012
272.89187,1.16939
272.65080,1.17400
272.40973,1.16770
272.16866,1.15485
271.92759,1.14801
271.68652,1.15404
271.44545,1.16821
271.20438,1.18067
270.96331,1.18577
270.72224,1.18447
270.48116,1.18137
270.24009,1.18102
269.99902,1.18482
269.75795,1.19027
269.51688,1.19402
269.27581,1.19528
269.03474,1.19505
268.79367,1.19421
268.55260,1.19499
268.31153,1.20218
268.07046,1.21814
267.82939,1.23731
267.58832,1.24990
267.34725,1.25212
267.10618,1.24946
266.86511,1.24958
266.62404,1.25552
266.38297,1.26469
266.14189,1.27321
265.90082,1.28139
265.65975,1.29260
265.41868,1.30753
265.17761,1.32300
264.93654,1.33602
264.69547,1.34667
264.45440,1.35689
264.21333,1.36876
263.97226,1.38239
263.73119,1.39473
263.49012,1.40165
263.24905,1.40277
263.00798,1.40410
262.76691,1.41435
262.52584,1.43919
262.28477,1.47557
262.04370,1.51188
261.80262,1.53868
261.56155,1.55684
261.32048,1.57167
261.07941,1.58428
260.83834,1.59359
260.59727,1.60408
260.35620,1.62264
260.11513,1.64961
259.87406,1.67822
259.63299,1.70520
259.39192,1.73362
259.15085,1.75674
258.90978,1.76464
258.66871,1.76899
258.42764,1.78863
258.18657,1.82827
257.94550,1.87816
257.70443,1.90950
257.46335,1.89909
257.22228,1.86792
256.98121,1.83836
256.74014,1.81126
256.49907,1.78137
256.25800,1.75018
256.01693,1.72601
255.77586,1.70781
255.53479,1.68578
255.29372,1.65868
255.05265,1.63960
254.81158,1.64192
254.57051,1.66319
254.32944,1.68617
254.08837,1.69332
253.84730,1.68377
253.60623,1.67373
253.36516,1.67488
253.12408,1.68068
252.88301,1.67470
252.64194,1.65305
252.40087,1.62999
252.15980,1.61813
251.91873,1.61516
251.67766,1.61063
251.43659,1.60070
251.19552,1.59130
250.95445,1.58578
250.71338,1.57770
250.47231,1.56272
250.23124,1.55204
249.99017,1.56276
249.74910,1.59670
249.50803,1.63314
249.26696,1.64364
249.02589,1.62080
248.78481,1.58795
248.54374,1.57228
248.30267,1.57826
248.06160,1.58998
247.82053,1.59425
247.57946,1.59524
247.33839,1.60095
247.09732,1.60723
246.85625,1.60328
246.61518,1.58702
246.37411,1.56691
246.13304,1.55365
245.89197,1.55374
245.65090,1.56607
245.40983,1.58383
245.16876,1.60255
244.92769,1.62482
244.68661,1.65510
244.44554,1.69540
244.20447,1.74643
243.96340,1.80193
243.72233,1.84977
243.48126,1.88677
243.24019,1.91741
242.99912,1.94278
242.75805,1.95824
242.51698,1.96118
242.27591,1.91658
242.03484,1.80736
241.79377,1.70509
241.55270,1.61218
241.31163,1.52236
241.07056,1.43796
240.82949,1.36527
240.58842,1.30931
240.34734,1.26680
240.10627,1.22933
239.86520,1.19275
239.62413,1.15912
239.38306,1.12980
239.14199,1.10166
238.90092,1.07227
238.65985,1.04349
238.41878,1.01756
238.17771,0.99454
237.93664,0.97417
237.69557,0.95712
237.45450,0.94337
237.21343,0.93164
236.97236,0.92139
236.73129,0.91369
236.49022,0.90837
236.24915,0.90207
236.00807,0.89090
235.76700,0.87546
235.52593,0.86129
235.28486,0.85327
235.04379,0.85057
234.80272,0.84811
234.56165,0.84273
234.32058,0.83622
234.07951,0.83164
233.83844,0.82942
233.59737,0.82803
233.35630,0.82642
233.11523,0.82376
232.87416,0.81938
232.63309,0.81397
232.39202,0.80946
232.15095,0.80752
231.90988,0.80810
231.66880,0.80929
231.42773,0.80988
231.18666,0.81110
230.94559,0.81368
230.70452,0.81535
230.46345,0.81450
230.22238,0.81296
229.98131,0.81222
229.74024,0.81090
229.49917,0.80782
229.25810,0.80425
229.01703,0.80123
228.77596,0.79789
228.53489,0.79362
228.29382,0.78996
228.05275,0.78899
227.81168,0.79124
227.57061,0.79538
227.32953,0.79877
227.08846,0.79897
226.84739,0.79706
226.60632,0.79717
226.36525,0.80006
226.12418,0.80183
225.88311,0.80102
225.64204,0.80040
225.40097,0.80120
225.15990,0.80237
224.91883,0.80398
224.67776,0.80607
224.43669,0.80678
224.19562,0.80554
223.95455,0.80492
223.71348,0.80757
223.47241,0.81420
223.23134,0.82437
222.99026,0.83619
222.74919,0.84520
222.50812,0.84784
222.26705,0.84647
222.02598,0.84735
221.78491,0.85369
221.54384,0.86374
221.30277,0.87522
221.06170,0.88799
220.82063,0.90192
220.57956,0.91459
220.33849,0.92300
220.09742,0.92748
219.85635,0.93227
219.61528,0.94066
219.37421,0.95152
219.13314,0.96258
218.89207,0.97428
218.65099,0.98746
218.40992,1.00080
218.16885,1.01349
217.92778,1.02709
217.68671,1.04273
217.44564,1.05937
217.20457,1.07607
216.96350,1.09408
216.72243,1.11445
216.48136,1.13474
216.24029,1.15106
215.99922,1.16304
215.75815,1.17315
215.51708,1.18245
215.27601,1.19116
215.03494,1.20082
214.79387,1.21394
214.55280,1.23314
214.31172,1.25739
214.07065,1.27825
213.82958,1.28925
213.58851,1.29752
213.34744,1.31410
213.10637,1.33724
212.86530,1.35477
212.62423,1.36099
212.38316,1.36146
212.14209,1.36258
211.90102,1.36545
211.65995,1.36968
211.41888,1.37832
211.17781,1.39550
210.93674,1.41771
210.69567,1.43059
210.45460,1.42270
210.21353,1.40127
209.97245,1.38487
209.73138,1.38188
209.49031,1.38545
209.24924,1.38881
209.00817,1.39139
208.76710,1.39015
208.52603,1.38186
208.28496,1.37119
208.04389,1.36422
207.80282,1.36026
207.56175,1.35609
207.32068,1.34872
207.07961,1.33404
206.83854,1.31087
206.59747,1.28368
206.35640,1.26270
206.11533,1.25817
205.87426,1.26695
205.63318,1.26919
205.39211,1.24977
205.15104,1.21918
204.90997,1.19610
204.66890,1.18381
204.42783,1.17280
204.18676,1.15373
203.94569,1.12583
203.70462,1.09665
203.46355,1.07543
203.22248,1.06570
202.98141,1.06086
202.74034,1.04884
202.49927,1.02544
202.25820,0.99931
202.01713,0.97986
201.77606,0.96764
201.53499,0.95648
201.29391,0.94059
201.05284,0.91993
200.81177,0.89948
200.57070,0.88443
200.32963,0.87587
200.08856,0.86927
199.84749,0.85839
199.60642,0.84236
199.36535,0.82643
199.12428,0.81464
198.88321,0.80519
198.64214,0.79365
198.40107,0.77867
198.16000,0.76352
197.91893,0.75215
197.67786,0.74442
197.43679,0.73605
197.19572,0.72478
196.95464,0.71425
196.71357,0.70881
196.47250,0.70687
196.23143,0.70210
195.99036,0.69109
195.74929,0.67775
195.50822,0.66812
195.26715,0.66354
195.02608,0.66029
194.78501,0.65486
194.54394,0.64811
194.30287,0.64259
194.06180,0.63797
193.82073,0.63142
193.57966,0.62224
193.33859,0.61365
193.09752,0.60868
192.85645,0.60649
192.61537,0.60367
192.37430,0.59880
192.13323,0.59393
191.89216,0.59093
191.65109,0.58844
191.41002,0.58415
191.16895,0.57862
190.92788,0.57440
190.68681,0.57209
190.44574,0.56982
190.20467,0.56633
189.96360,0.56291
189.72253,0.56104
189.48146,0.55997
189.24039,0.55821
188.99932,0.55659
188.75825,0.55721
188.51718,0.55980
188.27610,0.56167
188.03503,0.56147
187.79396,0.56048
187.55289,0.55949
187.31182,0.55724
187.07075,0.55334
186.82968,0.55022
186.58861,0.54978
186.34754,0.55003
186.10647,0.54804
185.86540,0.54467
185.62433,0.54262
185.38326,0.54205
185.14219,0.54211
184.90112,0.54447
184.66005,0.55114
184.41898,0.55978
184.17791,0.56563
183.93683,0.56778
183.69576,0.56934
183.45469,0.57173
183.21362,0.57347
182.97255,0.57416
182.73148,0.57500
182.49041,0.57569
182.24934,0.57544
182.00827,0.57539
181.76720,0.57612
181.52613,0.57611
181.28506,0.57498
181.04399,0.57423
180.80292,0.57384
180.56185,0.57335
180.32078,0.57525
180.07971,0.58264
179.83864,0.59438
179.59756,0.60604
179.35649,0.61433
179.11542,0.61880
178.87435,0.62128
178.63328,0.62432
178.39221,0.62964
178.15114,0.63807
177.91007,0.65008
177.66900,0.66507
177.42793,0.68143
177.18686,0.69808
176.94579,0.71505
176.70472,0.73260
176.46365,0.75041
176.22258,0.76735
175.98151,0.78307
175.74044,0.79942
175.49937,0.81849
175.25829,0.84048
175.01722,0.86443
174.77615,0.88938
174.53508,0.91378
174.29401,0.93569
174.05294,0.95434
173.81187,0.97116
173.57080,0.98889
173.32973,1.00911
173.08866,1.03093
172.84759,1.05231
172.60652,1.07098
172.36545,1.08448
172.12438,1.09233
171.88331,1.09683
171.64224,1.09949
171.40117,1.09956
171.16010,1.09720
170.91902,1.09367
170.67795,1.08959
170.43688,1.08449
170.19581,1.07600
169.95474,1.06154
169.71367,1.04320
169.47260,1.02668
169.23153,1.01504
168.99046,1.00751
168.74939,1.00313
168.50832,1.00131
168.26725,1.00062
168.02618,0.99944
167.78511,0.99667
167.54404,0.99229
167.30297,0.98719
167.06190,0.98254
166.82083,0.98060
166.57975,0.98437
166.33868,0.99434
166.09761,1.00705
165.85654,1.01844
165.61547,1.02725
165.37440,1.03476
165.13333,1.04259
164.89226,1.05131
164.65119,1.06050
164.41012,1.07042
164.16905,1.08321
163.92798,1.10054
163.68691,1.12144
163.44584,1.14302
163.20477,1.16039
162.96370,1.16851
162.72263,1.16945
162.48156,1.17384
162.24048,1.18977
161.99941,1.21284
161.75834,1.23016
161.51727,1.23391
161.27620,1.22771
161.03513,1.21930
160.79406,1.21342
160.55299,1.21258
160.31192,1.21731
160.07085,1.22358
159.82978,1.22451
159.58871,1.21539
159.34764,1.19669
159.10657,1.17396
158.86550,1.15321
158.62443,1.13809
158.38336,1.13154
158.14229,1.13519
157.90121,1.14459
157.66014,1.14813
157.41907,1.13815
157.17800,1.12138
156.93693,1.10904
156.69586,1.10492
156.45479,1.10657
156.21372,1.10711
155.97265,1.09721
155.73158,1.07572
155.49051,1.05314
155.24944,1.04101
155.00837,1.04200
154.76730,1.04620
154.52623,1.03756
154.28516,1.01171
154.04409,0.98004
153.80302,0.95366
153.56194,0.93577
153.32087,0.92333
153.07980,0.90911
152.83873,0.88754
152.59766,0.86090
152.35659,0.83592
152.11552,0.81539
151.87445,0.79631
151.63338,0.77547
151.39231,0.75423
151.15124,0.73620
150.91017,0.72191
150.66910,0.70832
150.42803,0.69231
150.18696,0.67352
149.94589,0.65462
149.70482,0.63917
149.46375,0.62819
149.22267,0.61902
148.98160,0.60854
148.74053,0.59664
148.49946,0.58567
148.25839,0.57762
148.01732,0.57268
147.77625,0.56936
147.53518,0.56609
147.29411,0.56345
147.05304,0.56344
146.81197,0.56615
146.57090,0.56880
146.32983,0.56938
146.08876,0.56960
145.84769,0.57251
145.60662,0.57799
145.36555,0.58266
145.12448,0.58497
144.88340,0.58795
144.64233,0.59490
144.40126,0.60427
144.16019,0.61172
143.91912,0.61577
143.67805,0.61794
143.43698,0.61825
143.19591,0.61413
142.95484,0.60431
142.71377,0.59156
142.47270,0.57979
142.23163,0.56991
141.99056,0.56013
141.74949,0.54973
141.50842,0.54039
141.26735,0.53368
141.02628,0.52950
140.78521,0.52733
140.54413,0.52710
140.30306,0.52813
140.06199,0.52881
139.82092,0.52867
139.57985,0.52943
139.33878,0.53306
139.09771,0.53947
138.85664,0.54717
138.61557,0.55553
138.37450,0.56508
138.13343,0.57590
137.89236,0.58785
137.65129,0.60178
137.41022,0.61863
137.16915,0.63750
136.92808,0.65721
136.68701,0.67864
136.44594,0.70299
136.20486,0.72919
135.96379,0.75537
135.72272,0.78194
135.48165,0.81197
135.24058,0.84861
134.99951,0.89100
134.75844,0.93298
134.51737,0.96953
134.27630,1.00377
134.03523,1.04173
133.79416,1.08212
133.55309,1.11824
133.31202,1.14892
133.07095,1.18048
132.82988,1.21571
132.58881,1.24926
132.34774,1.27437
132.10667,1.28708
131.86559,1.28563
131.62452,1.27198
131.38345,1.25236
131.14238,1.23097
130.90131,1.20629
130.66024,1.17667
130.41917,1.14363
130.17810,1.10557
129.93703,1.05952
129.69596,1.00912
129.45489,0.96017
129.21382,0.91259
128.97275,0.86386
128.73168,0.81583
128.49061,0.77274
128.24954,0.73607
128.00847,0.70447
127.76740,0.67647
127.52632,0.65152
127.28525,0.62904
127.04418,0.60797
126.80311,0.58785
126.56204,0.56935
126.32097,0.55287
126.07990,0.53723
125.83883,0.52096
125.59776,0.50387
125.35669,0.48691
125.11562,0.47170
124.87455,0.45982
124.63348,0.45148
124.39241,0.44492
124.15134,0.43835
123.91027,0.43175
123.66920,0.42631
123.42812,0.42268
123.18705,0.42069
122.94598,0.42007
122.70491,0.42057
122.46384,0.42178
122.22277,0.42319
121.98170,0.42453
121.74063,0.42563
121.49956,0.42629
121.25849,0.42677
121.01742,0.42848
120.77635,0.43356
120.53528,0.44333
120.29421,0.45746
120.05314,0.47493
119.81207,0.49543
119.57100,0.51956
119.32993,0.54761
119.08885,0.57828
118.84778,0.60900
118.60671,0.63826
118.36564,0.66698
118.12457,0.69606
117.88350,0.72429
117.64243,0.75092
117.40136,0.77721
117.16029,0.80312
116.91922,0.82554
116.67815,0.84223
116.43708,0.85258
116.19601,0.85283
115.95494,0.83782
115.71387,0.80931
115.47280,0.77595
115.23173,0.74523
114.99066,0.72010
114.74958,0.70135
114.50851,0.68944
114.26744,0.68320
114.02637,0.67903
113.78530,0.67383
113.54423,0.66819
113.30316,0.66487
113.06209,0.66520
112.82102,0.66883
112.57995,0.67590
112.33888,0.68728
112.09781,0.70214
111.85674,0.71680
111.61567,0.72701
111.37460,0.73151
111.13353,0.73369
110.89246,0.73872
110.65139,0.74826
110.41031,0.75875
110.16924,0.76487
109.92817,0.76180
109.68710,0.74622
109.44603,0.71916
109.20496,0.68634
108.96389,0.65537
108.72282,0.63156
108.48175,0.61500
108.24068,0.60111
107.99961,0.58378
107.75854,0.55880
107.51747,0.52713
107.27640,0.49520
107.03533,0.46996
106.79426,0.45382
106.55319,0.44464
106.31212,0.43850
106.07104,0.43125
105.82997,0.41999
105.58890,0.40476
105.34783,0.38778
105.10676,0.37199
104.86569,0.36046
104.62462,0.35499
104.38355,0.35298
104.14248,0.34762
103.90141,0.33460
103.66034,0.31774
103.41927,0.30500
103.17820,0.30091
102.93713,0.30306
102.69606,0.30426
102.45499,0.29884
102.21392,0.28794
101.97285,0.27748
101.73177,0.27215
101.49070,0.27214
101.24963,0.27371
101.00856,0.27262
100.76749,0.26835
100.52642,0.26445
100.28535,0.26396
100.04428,0.26524
99.80321,0.26336
99.56214,0.25684
99.32107,0.25046
99.08000,0.24907
98.83893,0.25142
98.59786,0.25143
98.35679,0.24570
98.11572,0.23828
97.87465,0.23608
97.63358,0.24126
97.39250,0.24884
97.15143,0.25219
96.91036,0.25167
96.66929,0.25356
96.42822,0.26044
96.18715,0.26775
95.94608,0.27195
95.70501,0.27772
95.46394,0.29074
95.22287,0.30719
94.98180,0.31692
94.74073,0.31787
94.49966,0.31894
94.25859,0.32562
94.01752,0.33299
93.77645,0.33490
93.53538,0.33325
93.29431,0.33265
93.05323,0.33241
92.81216,0.33023
92.57109,0.32953
92.33002,0.33413
92.08895,0.33931
91.84788,0.33938
91.60681,0.33953
91.36574,0.34768
91.12467,0.36261
90.88360,0.38099
90.64253,0.40789
90.40146,0.44732
90.16039,0.49300
89.91932,0.53959
89.67825,0.59097
89.43718,0.64829
89.19611,0.70466
88.95504,0.75226
88.71396,0.78069
88.47289,0.78026
88.23182,0.75562
87.99075,0.71702
87.74968,0.66677
87.50861,0.60699
87.26754,0.54681
87.02647,0.49518
86.78540,0.45353
86.54433,0.41790
86.30326,0.38524
86.06219,0.35554
85.82112,0.32924
85.58005,0.30603
85.33898,0.28566
85.09791,0.26788
84.85684,0.25182
84.61577,0.23706
84.37469,0.22430
84.13362,0.21401
83.89255,0.20540
83.65148,0.19742
83.41041,0.18979
83.16934,0.18288
82.92827,0.17711
82.68720,0.17291
82.44613,0.17068
82.20506,0.17022
81.96399,0.17045
81.72292,0.17040
81.48185,0.16989
81.24078,0.16914
80.99971,0.16830
80.75864,0.16793
80.51757,0.16854
80.27650,0.16956
80.03542,0.16942
79.79435,0.16717
79.55328,0.16390
79.31221,0.16190
79.07114,0.16213
78.83007,0.16325
78.58900,0.16365
78.34793,0.16311
78.10686,0.16129
77.86579,0.15654
77.62472,0.14851
77.38365,0.14033
77.14258,0.13621
76.90151,0.13711
76.66044,0.14022
76.41937,0.14216
76.17830,0.14144
75.93723,0.13808
75.69615,0.13313
75.45508,0.12877
75.21401,0.12703
74.97294,0.12785
74.73187,0.12955
74.49080,0.13103
74.24973,0.13242
74.00866,0.13408
73.76759,0.13577
73.52652,0.13678
73.28545,0.13683
73.04438,0.13700
72.80331,0.13910
72.56224,0.14337
72.32117,0.14761
72.08010,0.14924
71.83903,0.14775
71.59796,0.14501
71.35688,0.14377
71.11581,0.14573
70.87474,0.15084
70.63367,0.15861
70.39260,0.17006
70.15153,0.18717
69.91046,0.21036
69.66939,0.23682
69.42832,0.26100
69.18725,0.27609
68.94618,0.27710
68.70511,0.26395
68.46404,0.24151
68.22297,0.21632
67.98190,0.19277
67.74083,0.17233
67.49976,0.15561
67.25869,0.14309
67.01761,0.13349
66.77654,0.12423
66.53547,0.11491
66.29440,0.10819
66.05333,0.10622
65.81226,0.10849
65.57119,0.11379
65.33012,0.12246
65.08905,0.13548
64.84798,0.15208
64.60691,0.16937
64.36584,0.18430
64.12477,0.19512
63.88370,0.20081
63.64263,0.20047
63.40156,0.19370
63.16049,0.18181
62.91942,0.16779
62.67834,0.15385
62.43727,0.13944
62.19620,0.12339
61.95513,0.10705
61.71406,0.09382
61.47299,0.08647
61.23192,0.08623
60.99085,0.09332
60.74978,0.10698
60.50871,0.12528
60.26764,0.14456
60.02657,0.15836
59.78550,0.15917
59.54443,0.14552
59.30336,0.12461
59.06229,0.10570
58.82122,0.09388
58.58015,0.08999
58.33907,0.09428
58.09800,0.10765
57.85693,0.12889
57.61586,0.15204
57.37479,0.16636
57.13372,0.16202
56.89265,0.14075
56.65158,0.11539
56.41051,0.09795
56.16944,0.09330
55.92837,0.10037
55.68730,0.11488
55.44623,0.13057
55.20516,0.14000
54.96409,0.13776
54.72302,0.12537
54.48195,0.11140
54.24088,0.10540
53.99980,0.11388
53.75873,0.13889
53.51766,0.17107
53.27659,0.18364
53.03552,0.15868
52.79445,0.11722
52.55338,0.08824
52.31231,0.08621
52.07124,0.11515
51.83017,0.16443
51.58910,0.18935
51.34803,0.15323
51.10696,0.10027
50.86589,0.07531
50.62482,0.09071
50.38375,0.13610
50.14268,0.16930
49.90161,0.14752
49.66053,0.10645
49.41946,0.09461
49.17839,0.12053
48.93732,0.15083
48.69625,0.13732
48.45518,0.10228
48.21411,0.09400
47.97304,0.11991
47.73197,0.14036
47.49090,0.11802
47.24983,0.09200
47.00876,0.09990
46.76769,0.12088
46.52662,0.10959
46.28555,0.08426
46.04448,0.08566
45.80341,0.10336
45.56234,0.10111
45.32126,0.08893
45.08019,0.09244
44.83912,0.09973
44.59805,0.09436
44.35698,0.08981
44.11591,0.09303
43.87484,0.09230
43.63377,0.08941
43.39270,0.09818
43.15163,0.11772
42.91056,0.13635
42.66949,0.14600
42.42842,0.14388
42.18735,0.13334
41.94628,0.12261
41.70521,0.11661
41.46414,0.11470
41.22307,0.11560
40.98199,0.12128
40.74092,0.13461
40.49985,0.15131
40.25878,0.16003
40.01771,0.15678
39.77664,0.14965
39.53557,0.14609
39.29450,0.14817
39.05343,0.15630
38.81236,0.16768
38.57129,0.17522
38.33022,0.17273
38.08915,0.16241
37.84808,0.15611
37.60701,0.16291
37.36594,0.17676
37.12487,0.18426
36.88380,0.18018
36.64272,0.16859
36.40165,0.15592
36.16058,0.14556
35.91951,0.13475
35.67844,0.12136
35.43737,0.11062
35.19630,0.10841
34.95523,0.11565
34.71416,0.13100
34.47309,0.15105
34.23202,0.16821
33.99095,0.17646
33.74988,0.17332
33.50881,0.15667
33.26774,0.13509
33.02667,0.13065
32.78560,0.14910
32.54453,0.16530
32.30345,0.16059
32.06238,0.14707
31.82131,0.13721
31.58024,0.12980
31.33917,0.12833
31.09810,0.13700
30.85703,0.14404
30.61596,0.13121
30.37489,0.10237
30.13382,0.07664
29.89275,0.06150
29.65168,0.05672
29.41061,0.06178
29.16954,0.06797
28.92847,0.06028
28.68740,0.03370
28.44633,0.00246
28.20526,-0.01406
27.96418,-0.01636
27.72311,-0.02131
27.48204,-0.03551
27.24097,-0.05240
26.99990,-0.07092
26.75883,-0.09442
26.51776,-0.11850
26.27669,-0.13292
26.03562,-0.13371
25.79455,-0.13097
25.55348,-0.13374
25.31241,-0.13738
25.07134,-0.13652
24.83027,-0.13972
24.58920,-0.15717
24.34813,-0.18010
24.10706,-0.18673
23.86599,-0.17555
23.62491,-0.16220
23.38384,-0.15236
23.14277,-0.15447
22.90170,-0.18391
22.66063,-0.24181
22.41956,-0.30565
22.17849,-0.34914
21.93742,-0.35825
21.69635,-0.34805
21.45528,-0.34787
21.21421,-0.36119
20.97314,-0.36863
20.73207,-0.35182
20.49100,-0.32383
20.24993,-0.31059
20.00886,-0.32833
19.76779,-0.36673
19.52672,-0.37476
19.28564,-0.32130
19.04457,-0.26382
18.80350,-0.24669
18.56243,-0.27107
18.32136,-0.31033
18.08029,-0.33992
17.83922,-0.34787
17.59815,-0.33294
17.35708,-0.31552
17.11601,-0.31289
16.87494,-0.31499
16.63387,-0.30471
16.39280,-0.27648
16.15173,-0.24200
15.91066,-0.21361
15.66959,-0.19529
15.42852,-0.19136
15.18745,-0.20032
14.94637,-0.21522
14.70530,-0.23308
14.46423,-0.26678
14.22316,-0.33101
13.98209,-0.40807
13.74102,-0.45582
13.49995,-0.45757
13.25888,-0.43377
13.01781,-0.39972
12.77674,-0.35803
12.53567,-0.32282
12.29460,-0.30988
12.05353,-0.31754
11.81246,-0.32016
11.57139,-0.30794
11.33032,-0.30306
11.08925,-0.30773
10.84818,-0.32196
10.60710,-0.34681
10.36603,-0.37799
10.12496,-0.40613
9.88389,-0.41977
9.64282,-0.41078
9.40175,-0.39412
9.16068,-0.39118
8.91961,-0.39704
8.67854,-0.39089
8.43747,-0.36669
8.19640,-0.34352
7.95533,-0.34007
7.71426,-0.35591
7.47319,-0.38596
7.23212,-0.41684
6.99105,-0.42454
6.74998,-0.40967
6.50891,-0.37644
6.26783,-0.33936
6.02676,-0.32609
5.78569,-0.33498
5.54462,-0.33931
5.30355,-0.32953
5.06248,-0.31590
4.82141,-0.30767
4.58034,-0.31079
4.33927,-0.31593
4.09820,-0.30687
3.85713,-0.28498
3.61606,-0.26341
3.37499,-0.25496
3.13392,-0.26218
2.89285,-0.27105
2.65178,-0.26450
2.41071,-0.25241
2.16964,-0.25598
1.92856,-0.27453
1.68749,-0.29778
1.44642,-0.32947
1.20535,-0.36291
0.96428,-0.37988
0.72321,-0.40084
0.48214,-0.44426
0.24107,-0.40098
-0.00000,0.00871
