399.69498,1.65495
399.45391,1.67171
399.21284,1.66393
398.97177,1.62120
398.73070,1.57198
398.48963,1.54299
398.24856,1.53681
398.00749,1.55156
397.76642,1.58973
397.52535,1.64465
397.28428,1.69087
397.04321,1.70739
396.80214,1.70444
396.56107,1.69777
396.32000,1.69394
396.07892,1.70270
395.83785,1.73258
395.59678,1.78083
395.35571,1.82586
395.11464,1.84776
394.87357,1.85330
394.63250,1.85434
394.39143,1.86584
394.15036,1.87632
393.90929,1.86002
393.66822,1.82990
393.42715,1.83163
393.18608,1.89582
392.94501,1.97866
392.70394,2.01709
392.46287,1.98683
392.22180,1.86597
391.98073,1.76187
391.73965,1.74981
391.49858,1.82629
391.25751,1.92029
391.01644,1.97254
390.77537,2.00609
390.53430,1.98695
390.29323,1.93866
390.05216,1.94658
389.81109,2.06277
389.57002,2.18329
389.32895,2.11496
389.08788,1.97685
388.84681,1.92358
388.60574,1.98107
388.36467,2.12484
388.12360,2.15535
387.88253,2.06936
387.64146,1.97488
387.40038,1.96710
387.15931,2.05387
386.91824,2.31891
386.67717,2.65132
386.43610,2.09732
386.19503,1.86531
385.95396,1.84747
385.71289,1.89099
385.47182,1.94105
385.23075,1.89544
384.98968,1.96084
384.74861,2.18219
384.50754,2.29697
384.26647,2.18197
384.02540,2.24045
383.78433,2.49327
383.54326,2.40990
383.30219,2.00691
383.06111,1.82744
382.82004,1.82615
382.57897,1.87741
382.33790,1.94984
382.09683,2.20883
381.85576,2.45669
381.61469,2.06169
381.37362,1.85126
381.13255,1.75952
380.89148,1.75871
380.65041,1.81860
380.40934,1.90825
380.16827,2.08447
379.92720,2.21705
379.68613,2.00150
379.44506,1.90040
379.20399,1.86765
378.96292,1.80009
378.72184,1.76619
378.48077,1.82989
378.23970,1.89181
377.99863,1.86263
377.75756,1.87195
377.51649,1.87694
377.27542,1.84353
377.03435,1.89455
376.79328,2.04228
376.55221,2.06439
376.31114,1.95249
376.07007,1.92115
375.82900,1.99215
375.58793,1.98465
375.34686,1.79032
375.10579,1.65270
374.86472,1.63469
374.62365,1.70633
374.38257,1.79709
374.14150,1.84989
373.90043,1.88398
373.65936,1.88339
373.41829,1.79794
373.17722,1.72068
372.93615,1.69277
372.69508,1.67517
372.45401,1.65461
372.21294,1.64112
371.97187,1.62603
371.73080,1.60360
371.48973,1.58628
371.24866,1.58233
371.00759,1.57298
370.76652,1.53184
370.52545,1.47108
370.28437,1.42435
370.04330,1.40376
369.80223,1.39639
369.56116,1.38752
369.32009,1.37652
369.07902,1.36756
368.83795,1.35903
368.59688,1.35037
368.35581,1.34716
368.11474,1.35215
367.87367,1.35906
367.63260,1.36190
367.39153,1.36410
367.15046,1.36524
366.90939,1.35401
366.66832,1.32649
366.42725,1.29146
366.18618,1.26143
365.94510,1.24678
365.70403,1.25021
365.46296,1.26386
365.22189,1.27478
364.98082,1.27678
364.73975,1.27507
364.49868,1.27800
364.25761,1.28755
364.01654,1.29731
363.77547,1.29648
363.53440,1.28103
363.29333,1.26006
363.05226,1.24586
362.81119,1.24116
362.57012,1.24118
362.32905,1.24489
362.08798,1.25583
361.84691,1.27140
361.60583,1.28156
361.36476,1.27971
361.12369,1.26868
360.88262,1.25370
360.64155,1.23793
360.40048,1.22607
360.15941,1.22332
359.91834,1.23050
359.67727,1.24249
359.43620,1.24890
359.19513,1.24125
358.95406,1.22383
358.71299,1.21080
358.47192,1.21222
358.23085,1.22643
357.98978,1.24152
357.74871,1.24472
357.50764,1.23491
357.26656,1.22331
357.02549,1.21989
356.78442,1.22114
356.54335,1.21486
356.30228,1.19828
356.06121,1.18333
355.82014,1.18307
355.57907,1.20028
355.33800,1.22646
355.09693,1.24763
354.85586,1.25222
354.61479,1.23897
354.37372,1.21708
354.13265,1.19752
353.89158,1.18729
353.65051,1.18843
353.40944,1.20113
353.16837,1.22462
352.92729,1.25412
352.68622,1.27890
352.44515,1.28675
352.20408,1.27749
351.96301,1.25914
351.72194,1.23704
351.48087,1.21968
351.23980,1.21899
350.99873,1.23752
350.75766,1.26192
350.51659,1.27137
350.27552,1.25724
350.03445,1.23479
349.79338,1.22765
349.55231,1.24342
349.31124,1.26729
349.07017,1.28017
348.82910,1.28051
348.58802,1.28274
348.34695,1.29676
348.10588,1.31563
347.86481,1.32330
347.62374,1.30980
347.38267,1.28322
347.14160,1.26419
346.90053,1.26646
346.65946,1.28480
346.41839,1.30121
346.17732,1.30495
345.93625,1.30210
345.69518,1.30265
345.45411,1.30844
345.21304,1.31457
344.97197,1.31565
344.73090,1.31142
344.48983,1.30840
344.24875,1.31274
344.00768,1.31985
343.76661,1.32090
343.52554,1.31891
343.28447,1.32372
343.04340,1.33727
342.80233,1.35403
342.56126,1.36792
342.32019,1.37754
342.07912,1.39270
341.83805,1.42749
341.59698,1.47593
341.35591,1.49960
341.11484,1.47272
340.87377,1.42914
340.63270,1.41693
340.39163,1.45220
340.15056,1.52172
339.90948,1.59721
339.66841,1.65635
339.42734,1.69359
339.18627,1.71712
338.94520,1.73425
338.70413,1.73699
338.46306,1.70778
338.22199,1.65857
337.98092,1.63249
337.73985,1.64876
337.49878,1.68943
337.25771,1.72364
337.01664,1.73111
336.77557,1.72182
336.53450,1.72838
336.29343,1.77404
336.05236,1.85647
335.81129,1.95281
335.57021,2.00461
335.32914,1.92362
335.08807,1.80326
334.84700,1.76508
334.60593,1.80671
334.36486,1.81797
334.12379,1.77125
333.88272,1.74336
333.64165,1.72678
333.40058,1.68162
333.15951,1.62721
332.91844,1.60590
332.67737,1.62050
332.43630,1.64213
332.19523,1.64763
331.95416,1.63402
331.71309,1.60649
331.47202,1.56540
331.23094,1.52966
330.98987,1.53180
330.74880,1.56812
330.50773,1.58225
330.26666,1.53158
330.02559,1.45205
329.78452,1.40435
329.54345,1.41162
329.30238,1.45160
329.06131,1.48808
328.82024,1.51427
328.57917,1.52846
328.33810,1.52521
328.09703,1.51560
327.85596,1.50643
327.61489,1.48733
327.37382,1.46393
327.13275,1.46547
326.89167,1.49667
326.65060,1.52763
326.40953,1.53477
326.16846,1.53267
325.92739,1.54017
325.68632,1.55651
325.44525,1.57761
325.20418,1.59297
324.96311,1.58106
324.72204,1.55107
324.48097,1.54133
324.23990,1.55913
323.99883,1.57648
323.75776,1.57170
323.51669,1.55579
323.27562,1.55412
323.03455,1.57763
322.79348,1.62199
322.55240,1.68036
322.31133,1.73708
322.07026,1.75290
321.82919,1.72726
321.58812,1.69975
321.34705,1.70113
321.10598,1.76402
320.86491,1.90078
320.62384,2.00804
320.38277,2.00260
320.14170,1.96451
319.90063,1.92672
319.65956,1.91380
319.41849,1.95573
319.17742,2.02937
318.93635,2.04518
318.69528,1.94720
318.45421,1.82066
318.21313,1.74571
317.97206,1.76361
317.73099,1.85695
317.48992,1.91282
317.24885,1.86495
317.00778,1.83862
316.76671,1.90778
316.52564,2.01462
316.28457,1.96327
316.04350,1.92553
315.80243,1.99999
315.56136,2.04423
315.32029,2.11753
315.07922,2.11417
314.83815,2.10460
314.59708,2.04458
314.35601,1.99819
314.11494,1.98083
313.87386,1.95153
313.63279,1.87543
313.39172,1.80437
313.15065,1.78883
312.90958,1.83917
312.66851,1.93575
312.42744,2.01962
312.18637,2.02883
311.94530,2.03983
311.70423,2.12705
311.46316,2.26791
311.22209,2.30291
310.98102,2.23133
310.73995,2.21713
310.49888,2.02890
310.25781,1.84166
310.01674,1.77907
309.77567,1.77502
309.53459,1.76330
309.29352,1.80381
309.05245,1.91200
308.81138,2.02885
308.57031,2.14054
308.32924,2.13838
308.08817,2.03566
307.84710,2.02247
307.60603,2.01194
307.36496,1.93521
307.12389,1.83725
306.88282,1.71587
306.64175,1.63888
306.40068,1.62834
306.15961,1.64441
305.91854,1.64186
305.67747,1.61720
305.43640,1.60504
305.19532,1.61256
304.95425,1.61050
304.71318,1.58241
304.47211,1.53978
304.23104,1.50740
303.98997,1.48941
303.74890,1.47344
303.50783,1.45336
303.26676,1.42680
303.02569,1.39388
302.78462,1.36391
302.54355,1.34762
302.30248,1.34407
302.06141,1.33978
301.82034,1.32473
301.57927,1.30382
301.33820,1.28651
301.09713,1.27463
300.85605,1.26352
300.61498,1.25091
300.37391,1.23852
300.13284,1.22879
299.89177,1.22265
299.65070,1.21731
299.40963,1.20849
299.16856,1.19583
298.92749,1.18373
298.68642,1.17725
298.44535,1.17857
298.20428,1.18423
297.96321,1.18526
297.72214,1.17698
297.48107,1.16609
297.24000,1.16042
296.99893,1.15756
296.75786,1.14535
296.51678,1.11966
296.27571,1.09415
296.03464,1.08323
295.79357,1.08713
295.55250,1.09510
295.31143,1.09814
295.07036,1.09594
294.82929,1.09135
294.58822,1.08489
294.34715,1.07658
294.10608,1.06756
293.86501,1.05981
293.62394,1.05631
293.38287,1.05911
293.14180,1.06557
292.90073,1.06820
292.65966,1.06080
292.41859,1.04562
292.17751,1.03168
291.93644,1.02543
291.69537,1.02448
291.45430,1.02181
291.21323,1.01525
290.97216,1.00902
290.73109,1.00693
290.49002,1.00808
290.24895,1.00818
290.00788,1.00459
289.76681,1.00064
289.52574,1.00245
289.28467,1.01165
289.04360,1.02191
288.80253,1.02337
288.56146,1.01317
288.32039,0.99879
288.07932,0.98801
287.83824,0.98067
287.59717,0.97363
287.35610,0.96835
287.11503,0.96709
286.87396,0.96754
286.63289,0.96760
286.39182,0.96950
286.15075,0.97486
285.90968,0.97908
285.66861,0.97715
285.42754,0.97192
285.18647,0.96850
284.94540,0.96587
284.70433,0.96067
284.46326,0.95409
284.22219,0.94915
283.98112,0.94531
283.74005,0.94066
283.49897,0.93619
283.25790,0.93419
283.01683,0.93503
282.77576,0.93777
282.53469,0.94153
282.29362,0.94495
282.05255,0.94679
281.81148,0.94847
281.57041,0.95223
281.32934,0.95561
281.08827,0.95325
280.84720,0.94635
280.60613,0.94201
280.36506,0.94222
280.12399,0.94219
279.88292,0.94015
279.64185,0.94019
279.40078,0.94405
279.15970,0.94720
278.91863,0.94515
278.67756,0.93930
278.43649,0.93490
278.19542,0.93448
277.95435,0.93542
277.71328,0.93423
277.47221,0.93017
277.23114,0.92556
276.99007,0.92525
276.74900,0.93390
276.50793,0.94955
276.26686,0.96154
276.02579,0.96076
275.78472,0.95072
275.54365,0.94144
275.30258,0.93696
275.06151,0.93478
274.82043,0.93329
274.57936,0.93478
274.33829,0.94125
274.09722,0.95028
273.85615,0.95598
273.61508,0.95438
273.37401,0.94749
273.13294,0.94082
272.89187,0.93819
272.65080,0.94019
272.40973,0.94487
272.16866,0.94817
271.92759,0.94678
271.68652,0.94261
271.44545,0.94198
271.20438,0.94882
270.96331,0.96027
270.72224,0.97066
270.48116,0.97643
270.24009,0.97590
269.99902,0.97110
269.75795,0.96878
269.51688,0.97362
269.27581,0.98283
269.03474,0.99169
268.79367,1.00043
268.55260,1.00997
268.31153,1.01653
268.07046,1.01655
267.82939,1.01267
267.58832,1.01034
267.34725,1.01152
267.10618,1.01468
266.86511,1.01881
266.62404,1.02455
266.38297,1.03224
266.14189,1.03985
265.90082,1.04385
265.65975,1.04380
265.41868,1.04509
265.17761,1.05430
264.93654,1.07098
264.69547,1.08656
264.45440,1.09408
264.21333,1.09663
263.97226,1.10132
263.73119,1.10880
263.49012,1.11511
263.24905,1.12047
263.00798,1.12837
262.76691,1.13932
262.52584,1.15229
262.28477,1.16912
262.04370,1.19093
261.80262,1.21194
261.56155,1.22539
261.32048,1.23275
261.07941,1.23781
260.83834,1.23917
260.59727,1.23762
260.35620,1.24287
260.11513,1.26385
259.87406,1.29489
259.63299,1.31982
259.39192,1.33337
259.15085,1.34807
258.90978,1.37631
258.66871,1.41551
258.42764,1.45616
258.18657,1.49439
257.94550,1.52477
257.70443,1.53434
257.46335,1.52126
257.22228,1.50597
256.98121,1.51174
256.74014,1.54338
256.49907,1.58389
256.25800,1.61116
256.01693,1.61692
255.77586,1.61588
255.53479,1.63751
255.29372,1.69642
255.05265,1.78072
254.81158,1.85912
254.57051,1.89639
254.32944,1.90074
254.08837,1.91341
253.84730,1.94153
253.60623,1.99188
253.36516,2.09223
253.12408,2.22679
252.88301,2.32442
252.64194,2.35750
252.40087,2.31398
252.15980,2.25291
251.91873,2.31300
251.67766,2.45930
251.43659,2.37609
251.19552,2.17497
250.95445,2.11753
250.71338,2.22015
250.47231,2.45672
250.23124,2.55751
249.99017,2.39061
249.74910,2.27788
249.50803,2.30904
249.26696,2.49864
249.02589,2.39409
248.78481,2.24286
248.54374,2.10688
248.30267,2.08437
248.06160,2.17121
247.82053,2.23463
247.57946,2.41359
247.33839,2.47840
247.09732,2.33647
246.85625,2.10576
246.61518,1.97334
246.37411,1.92359
246.13304,1.89938
245.89197,1.90349
245.65090,1.95260
245.40983,2.02104
245.16876,2.12106
244.92769,2.24508
244.68661,2.10994
244.44554,1.91825
244.20447,1.78748
243.96340,1.69270
243.72233,1.61500
243.48126,1.55995
243.24019,1.53324
242.99912,1.52087
242.75805,1.50037
242.51698,1.45980
242.27591,1.39756
242.03484,1.32401
241.79377,1.25692
241.55270,1.20437
241.31163,1.16135
241.07056,1.12127
240.82949,1.08420
240.58842,1.05205
240.34734,1.02245
240.10627,0.99200
239.86520,0.96104
239.62413,0.93138
239.38306,0.90335
239.14199,0.87746
238.90092,0.85539
238.65985,0.83804
238.41878,0.82510
238.17771,0.81507
237.93664,0.80550
237.69557,0.79486
237.45450,0.78358
237.21343,0.77251
236.97236,0.76080
236.73129,0.74739
236.49022,0.73414
236.24915,0.72452
236.00807,0.71908
235.76700,0.71462
235.52593,0.70826
235.28486,0.70105
235.04379,0.69617
234.80272,0.69509
234.56165,0.69629
234.32058,0.69654
234.07951,0.69348
233.83844,0.68769
233.59737,0.68188
233.35630,0.67756
233.11523,0.67300
232.87416,0.66571
232.63309,0.65621
232.39202,0.64794
232.15095,0.64449
231.90988,0.64709
231.66880,0.65332
231.42773,0.65797
231.18666,0.65746
230.94559,0.65297
230.70452,0.64800
230.46345,0.64459
230.22238,0.64329
229.98131,0.64417
229.74024,0.64638
229.49917,0.64813
229.25810,0.64810
229.01703,0.64668
228.77596,0.64518
228.53489,0.64432
228.29382,0.64398
228.05275,0.64408
227.81168,0.64411
227.57061,0.64276
227.32953,0.63929
227.08846,0.63479
226.84739,0.63166
226.60632,0.63198
226.36525,0.63610
226.12418,0.64178
225.88311,0.64554
225.64204,0.64620
225.40097,0.64610
225.15990,0.64703
224.91883,0.64739
224.67776,0.64551
224.43669,0.64306
224.19562,0.64255
223.95455,0.64421
223.71348,0.64764
223.47241,0.65360
223.23134,0.66212
222.99026,0.67120
222.74919,0.67897
222.50812,0.68583
222.26705,0.69335
222.02598,0.70128
221.78491,0.70733
221.54384,0.70983
221.30277,0.70921
221.06170,0.70764
220.82063,0.70864
220.57956,0.71461
220.33849,0.72359
220.09742,0.73178
219.85635,0.74005
219.61528,0.75250
219.37421,0.76841
219.13314,0.78171
218.89207,0.78927
218.65099,0.79472
218.40992,0.80283
218.16885,0.81498
217.92778,0.82944
217.68671,0.84319
217.44564,0.85446
217.20457,0.86402
216.96350,0.87355
216.72243,0.88277
216.48136,0.89000
216.24029,0.89632
215.99922,0.90637
215.75815,0.92315
215.51708,0.94350
215.27601,0.96069
215.03494,0.97112
214.79387,0.97722
214.55280,0.98327
214.31172,0.98928
214.07065,0.99182
213.82958,0.99211
213.58851,0.99724
213.34744,1.01118
213.10637,1.02893
212.86530,1.04068
212.62423,1.04241
212.38316,1.04024
212.14209,1.04288
211.90102,1.05287
211.65995,1.06559
211.41888,1.07590
211.17781,1.08292
210.93674,1.08588
210.69567,1.08263
210.45460,1.07642
210.21353,1.07292
209.97245,1.07034
209.73138,1.06326
209.49031,1.05461
209.24924,1.05309
209.00817,1.05979
208.76710,1.06661
208.52603,1.06755
208.28496,1.06354
208.04389,1.05659
207.80282,1.04626
207.56175,1.03398
207.32068,1.02502
207.07961,1.02284
206.83854,1.02351
206.59747,1.01887
206.35640,1.00582
206.11533,0.98896
205.87426,0.97457
205.63318,0.96625
205.39211,0.96418
205.15104,0.96498
204.90997,0.96381
204.66890,0.95772
204.42783,0.94741
204.18676,0.93542
203.94569,0.92309
203.70462,0.90979
203.46355,0.89552
203.22248,0.88232
202.98141,0.87169
202.74034,0.86312
202.49927,0.85489
202.25820,0.84460
202.01713,0.83023
201.77606,0.81170
201.53499,0.79134
201.29391,0.77324
201.05284,0.75991
200.81177,0.74929
200.57070,0.73749
200.32963,0.72431
200.08856,0.71251
199.84749,0.70258
199.60642,0.69251
199.36535,0.68187
199.12428,0.67201
198.88321,0.66337
198.64214,0.65525
198.40107,0.64717
198.16000,0.63863
197.91893,0.62927
197.67786,0.62013
197.43679,0.61298
197.19572,0.60762
196.95464,0.60163
196.71357,0.59318
196.47250,0.58285
196.23143,0.57284
195.99036,0.56488
195.74929,0.55878
195.50822,0.55276
195.26715,0.54620
195.02608,0.54105
194.78501,0.53877
194.54394,0.53710
194.30287,0.53261
194.06180,0.52560
193.82073,0.51958
193.57966,0.51671
193.33859,0.51594
193.09752,0.51505
192.85645,0.51269
192.61537,0.50845
192.37430,0.50244
192.13323,0.49564
191.89216,0.48955
191.65109,0.48499
191.41002,0.48175
191.16895,0.47943
190.92788,0.47744
190.68681,0.47489
190.44574,0.47140
190.20467,0.46790
189.96360,0.46543
189.72253,0.46384
189.48146,0.46224
189.24039,0.46024
188.99932,0.45814
188.75825,0.45613
188.51718,0.45409
188.27610,0.45235
188.03503,0.45167
187.79396,0.45249
187.55289,0.45443
187.31182,0.45621
187.07075,0.45612
186.82968,0.45371
186.58861,0.45048
186.34754,0.44808
186.10647,0.44732
185.86540,0.44879
185.62433,0.45264
185.38326,0.45740
185.14219,0.46061
184.90112,0.46086
184.66005,0.45861
184.41898,0.45546
184.17791,0.45334
183.93683,0.45380
183.69576,0.45712
183.45469,0.46236
183.21362,0.46803
182.97255,0.47234
182.73148,0.47370
182.49041,0.47236
182.24934,0.47062
182.00827,0.47033
181.76720,0.47141
181.52613,0.47358
181.28506,0.47686
181.04399,0.48014
180.80292,0.48177
180.56185,0.48197
180.32078,0.48254
180.07971,0.48461
179.83864,0.48792
179.59756,0.49197
179.35649,0.49723
179.11542,0.50468
178.87435,0.51379
178.63328,0.52188
178.39221,0.52738
178.15114,0.53224
177.91007,0.53950
177.66900,0.54982
177.42793,0.56219
177.18686,0.57586
176.94579,0.58992
176.70472,0.60325
176.46365,0.61571
176.22258,0.62840
175.98151,0.64315
175.74044,0.66113
175.49937,0.68119
175.25829,0.70086
175.01722,0.71935
174.77615,0.73821
174.53508,0.75768
174.29401,0.77473
174.05294,0.78751
173.81187,0.79906
173.57080,0.81353
173.32973,0.83042
173.08866,0.84529
172.84759,0.85537
172.60652,0.86247
172.36545,0.87021
172.12438,0.87966
171.88331,0.88917
171.64224,0.89657
171.40117,0.89843
171.16010,0.89242
170.91902,0.88300
170.67795,0.87736
170.43688,0.87519
170.19581,0.86866
169.95474,0.85455
169.71367,0.83930
169.47260,0.82904
169.23153,0.82258
168.99046,0.81631
168.74939,0.81082
168.50832,0.80881
168.26725,0.80948
168.02618,0.80948
167.78511,0.80777
167.54404,0.80664
167.30297,0.80779
167.06190,0.80963
166.82083,0.80962
166.57975,0.80739
166.33868,0.80478
166.09761,0.80435
165.85654,0.80913
165.61547,0.82167
165.37440,0.83954
165.13333,0.85440
164.89226,0.86036
164.65119,0.86124
164.41012,0.86463
164.16905,0.87278
163.92798,0.88370
163.68691,0.89617
163.44584,0.90955
163.20477,0.92229
162.96370,0.93232
162.72263,0.93784
162.48156,0.93876
162.24048,0.93925
161.99941,0.94669
161.75834,0.96368
161.51727,0.98238
161.27620,0.98978
161.03513,0.98074
160.79406,0.96314
160.55299,0.94877
160.31192,0.94165
160.07085,0.93765
159.82978,0.93411
159.58871,0.93338
159.34764,0.93531
159.10657,0.93404
158.86550,0.92592
158.62443,0.91438
158.38336,0.90443
158.14229,0.89744
157.90121,0.89230
157.66014,0.88867
157.41907,0.88666
157.17800,0.88392
156.93693,0.87722
156.69586,0.86847
156.45479,0.86411
156.21372,0.86741
155.97265,0.87458
155.73158,0.87829
155.49051,0.87337
155.24944,0.86044
155.00837,0.84545
154.76730,0.83345
154.52623,0.82396
154.28516,0.81433
154.04409,0.80394
153.80302,0.79300
153.56194,0.78047
153.32087,0.76568
153.07980,0.75000
152.83873,0.73509
152.59766,0.72071
152.35659,0.70524
152.11552,0.68840
151.87445,0.67215
151.63338,0.65790
151.39231,0.64477
151.15124,0.63095
150.91017,0.61539
150.66910,0.59866
150.42803,0.58309
150.18696,0.57102
149.94589,0.56208
149.70482,0.55326
149.46375,0.54180
149.22267,0.52776
148.98160,0.51396
148.74053,0.50356
148.49946,0.49751
148.25839,0.49408
148.01732,0.49042
147.77625,0.48490
147.53518,0.47827
147.29411,0.47261
147.05304,0.46945
146.81197,0.46882
146.57090,0.46986
146.32983,0.47197
146.08876,0.47512
145.84769,0.47912
145.60662,0.48344
145.36555,0.48799
145.12448,0.49353
144.88340,0.50075
144.64233,0.50936
144.40126,0.51785
144.16019,0.52416
143.91912,0.52709
143.67805,0.52723
143.43698,0.52576
143.19591,0.52290
142.95484,0.51823
142.71377,0.51129
142.47270,0.50184
142.23163,0.49051
141.99056,0.47911
141.74949,0.46960
141.50842,0.46264
141.26735,0.45707
141.02628,0.45076
140.78521,0.44315
140.54413,0.43643
140.30306,0.43325
140.06199,0.43393
139.82092,0.43708
139.57985,0.44185
139.33878,0.44835
139.09771,0.45666
138.85664,0.46591
138.61557,0.47452
138.37450,0.48157
138.13343,0.48764
137.89236,0.49428
137.65129,0.50351
137.41022,0.51688
137.16915,0.53306
136.92808,0.54833
136.68701,0.56166
136.44594,0.57700
136.20486,0.59821
135.96379,0.62447
135.72272,0.65243
135.48165,0.68097
135.24058,0.71085
134.99951,0.73996
134.75844,0.76384
134.51737,0.78245
134.27630,0.80205
134.03523,0.82668
133.79416,0.85255
133.55309,0.87454
133.31202,0.89414
133.07095,0.91627
132.82988,0.94064
132.58881,0.96094
132.34774,0.97183
132.10667,0.97331
131.86559,0.96978
131.62452,0.96641
131.38345,0.96347
131.14238,0.95563
130.90131,0.93877
130.66024,0.91483
130.41917,0.88874
130.17810,0.86333
129.93703,0.83804
129.69596,0.81033
129.45489,0.77848
129.21382,0.74406
128.97275,0.71036
128.73168,0.67931
128.49061,0.65093
128.24954,0.62410
128.00847,0.59726
127.76740,0.56992
127.52632,0.54344
127.28525,0.51977
127.04418,0.50015
126.80311,0.48414
126.56204,0.46959
126.32097,0.45509
126.07990,0.44184
125.83883,0.43177
125.59776,0.42413
125.35669,0.41579
125.11562,0.40434
124.87455,0.39042
124.63348,0.37692
124.39241,0.36616
124.15134,0.35819
123.91027,0.35192
123.66920,0.34694
123.42812,0.34336
123.18705,0.34065
122.94598,0.33847
122.70491,0.33784
122.46384,0.33980
122.22277,0.34339
121.98170,0.34645
121.74063,0.34809
121.49956,0.34912
121.25849,0.35076
121.01742,0.35447
120.77635,0.36183
120.53528,0.37267
120.29421,0.38441
120.05314,0.39505
119.81207,0.40577
119.57100,0.41933
119.32993,0.43703
119.08885,0.45844
118.84778,0.48275
118.60671,0.50975
118.36564,0.53944
118.12457,0.57041
117.88350,0.59933
117.64243,0.62244
117.40136,0.63785
117.16029,0.64624
116.91922,0.64928
116.67815,0.64848
116.43708,0.64491
116.19601,0.63848
115.95494,0.62810
115.71387,0.61439
115.47280,0.60084
115.23173,0.58963
114.99066,0.57879
114.74958,0.56646
114.50851,0.55458
114.26744,0.54601
114.02637,0.54139
113.78530,0.53973
113.54423,0.54007
113.30316,0.54218
113.06209,0.54586
112.82102,0.54974
112.57995,0.55254
112.33888,0.55578
112.09781,0.56242
111.85674,0.57137
111.61567,0.57696
111.37460,0.57645
111.13353,0.57419
110.89246,0.57546
110.65139,0.58032
110.41031,0.58569
110.16924,0.58830
109.92817,0.58486
109.68710,0.57309
109.44603,0.55397
109.20496,0.53142
108.96389,0.51005
108.72282,0.49324
108.48175,0.48094
108.24068,0.46868
107.99961,0.45186
107.75854,0.43106
107.51747,0.41064
107.27640,0.39361
107.03533,0.38002
106.79426,0.36869
106.55319,0.35782
106.31212,0.34613
106.07104,0.33472
105.82997,0.32618
105.58890,0.32095
105.34783,0.31601
105.10676,0.30857
104.86569,0.29946
104.62462,0.29093
104.38355,0.28264
104.14248,0.27258
103.90141,0.26129
103.66034,0.25197
103.41927,0.24608
103.17820,0.24198
102.93713,0.23800
102.69606,0.23427
102.45499,0.23100
102.21392,0.22750
101.97285,0.22373
101.73177,0.22096
101.49070,0.21977
101.24963,0.21871
101.00856,0.21642
100.76749,0.21363
100.52642,0.21154
100.28535,0.20967
100.04428,0.20666
99.80321,0.20250
99.56214,0.19884
99.32107,0.19695
99.08000,0.19637
98.83893,0.19586
98.59786,0.19493
98.35679,0.19377
98.11572,0.19250
97.87465,0.19140
97.63358,0.19132
97.39250,0.19290
97.15143,0.19615
96.91036,0.20086
96.66929,0.20652
96.42822,0.21181
96.18715,0.21552
95.94608,0.21835
95.70501,0.22294
95.46394,0.23107
95.22287,0.24134
94.98180,0.25056
94.74073,0.25700
94.49966,0.26103
94.25859,0.26356
94.01752,0.26542
93.77645,0.26739
93.53538,0.26950
93.29431,0.27093
93.05323,0.27062
92.81216,0.26795
92.57109,0.26354
92.33002,0.25985
92.08895,0.26016
91.84788,0.26628
91.60681,0.27697
91.36574,0.28906
91.12467,0.30090
90.88360,0.31455
90.64253,0.33358
90.40146,0.35986
90.16039,0.39337
89.91932,0.43285
89.67825,0.47458
89.43718,0.51272
89.19611,0.54320
88.95504,0.56628
88.71396,0.58336
88.47289,0.59134
88.23182,0.58230
87.99075,0.55225
87.74968,0.50879
87.50861,0.46475
87.26754,0.42685
87.02647,0.39434
86.78540,0.36479
86.54433,0.33733
86.30326,0.31180
86.06219,0.28839
85.82112,0.26776
85.58005,0.25023
85.33898,0.23528
85.09791,0.22255
84.85684,0.21170
84.61577,0.20157
84.37469,0.19129
84.13362,0.18178
83.89255,0.17408
83.65148,0.16706
83.41041,0.15865
83.16934,0.14934
82.92827,0.14220
82.68720,0.13877
82.44613,0.13696
82.20506,0.13399
81.96399,0.13014
81.72292,0.12812
81.48185,0.12942
81.24078,0.13240
80.99971,0.13384
80.75864,0.13185
80.51757,0.12720
80.27650,0.12202
80.03542,0.11817
79.79435,0.11626
79.55328,0.11543
79.31221,0.11418
79.07114,0.11209
78.83007,0.11032
78.58900,0.10992
78.34793,0.11069
78.10686,0.11152
77.86579,0.11116
77.62472,0.10914
77.38365,0.10671
77.14258,0.10547
76.90151,0.10515
76.66044,0.10432
76.41937,0.10294
76.17830,0.10237
75.93723,0.10284
75.69615,0.10271
75.45508,0.10079
75.21401,0.09814
74.97294,0.09647
74.73187,0.09581
74.49080,0.09494
74.24973,0.09352
74.00866,0.09294
73.76759,0.09433
73.52652,0.09657
73.28545,0.09735
73.04438,0.09645
72.80331,0.09581
72.56224,0.09606
72.32117,0.09573
72.08010,0.09450
71.83903,0.09459
71.59796,0.09803
71.35688,0.10421
71.11581,0.11076
70.87474,0.11603
70.63367,0.12071
70.39260,0.12685
70.15153,0.13600
69.91046,0.14850
69.66939,0.16360
69.42832,0.17855
69.18725,0.18851
68.94618,0.18937
68.70511,0.18092
68.46404,0.16694
68.22297,0.15263
67.98190,0.14150
67.74083,0.13322
67.49976,0.12487
67.25869,0.11491
67.01761,0.10557
66.77654,0.10045
66.53547,0.09976
66.29440,0.09947
66.05333,0.09587
65.81226,0.09004
65.57119,0.08649
65.33012,0.08809
65.08905,0.09342
64.84798,0.09871
64.60691,0.10161
64.36584,0.10257
64.12477,0.10305
63.88370,0.10341
63.64263,0.10356
63.40156,0.10442
63.16049,0.10667
62.91942,0.10840
62.67834,0.10649
62.43727,0.10060
62.19620,0.09353
61.95513,0.08726
61.71406,0.08143
61.47299,0.07601
61.23192,0.07273
60.99085,0.07270
60.74978,0.07476
60.50871,0.07648
60.26764,0.07618
60.02657,0.07446
59.78550,0.07411
59.54443,0.07692
59.30336,0.08086
59.06229,0.08189
58.82122,0.07848
58.58015,0.07317
58.33907,0.06966
58.09800,0.06912
57.85693,0.06950
57.61586,0.06823
57.37479,0.06528
57.13372,0.06291
56.89265,0.06213
56.65158,0.06184
56.41051,0.06205
56.16944,0.06435
55.92837,0.06831
55.68730,0.07120
55.44623,0.07158
55.20516,0.07015
54.96409,0.06800
54.72302,0.06670
54.48195,0.06788
54.24088,0.07023
53.99980,0.07037
53.75873,0.06822
53.51766,0.06744
53.27659,0.06988
53.03552,0.07351
52.79445,0.07524
52.55338,0.07376
52.31231,0.07082
52.07124,0.06966
51.83017,0.07076
51.58910,0.07151
51.34803,0.07089
51.10696,0.07044
50.86589,0.07019
50.62482,0.06803
50.38375,0.06327
50.14268,0.05826
49.90161,0.05654
49.66053,0.05916
49.41946,0.06268
49.17839,0.06262
48.93732,0.05886
48.69625,0.05462
48.45518,0.05161
48.21411,0.04873
47.97304,0.04319
47.73197,0.03331
47.49090,0.02318
47.24983,0.02093
47.00876,0.02836
46.76769,0.03651
46.52662,0.03695
46.28555,0.03216
46.04448,0.03076
45.80341,0.03673
45.56234,0.04620
45.32126,0.05186
45.08019,0.04928
44.83912,0.04084
44.59805,0.03231
44.35698,0.02706
44.11591,0.02735
43.87484,0.03556
43.63377,0.04807
43.39270,0.05318
43.15163,0.04240
42.91056,0.02358
42.66949,0.01380
42.42842,0.01885
42.18735,0.02898
41.94628,0.03307
41.70521,0.02977
41.46414,0.02596
41.22307,0.02825
40.98199,0.03596
40.74092,0.04268
40.49985,0.04513
40.25878,0.04731
40.01771,0.05397
39.77664,0.06369
39.53557,0.06876
39.29450,0.06252
39.05343,0.04693
38.81236,0.03335
38.57129,0.03425
38.33022,0.05057
38.08915,0.07051
37.84808,0.08198
37.60701,0.08078
37.36594,0.06909
37.12487,0.05225
36.88380,0.03987
36.64272,0.04082
36.40165,0.05178
36.16058,0.06107
35.91951,0.06435
35.67844,0.06939
35.43737,0.08071
35.19630,0.08821
34.95523,0.08016
34.71416,0.06035
34.47309,0.04463
34.23202,0.04049
33.99095,0.03876
33.74988,0.02895
33.50881,0.01390
33.26774,0.00884
33.02667,0.02524
32.78560,0.06048
32.54453,0.10220
32.30345,0.13348
32.06238,0.14084
31.82131,0.12444
31.58024,0.09152
31.33917,0.04858
31.09810,0.01022
30.85703,-0.00273
30.61596,0.01121
30.37489,0.03403
30.13382,0.05530
29.89275,0.07335
29.65168,0.08330
29.41061,0.08137
29.16954,0.07216
28.92847,0.05897
28.68740,0.03442
28.44633,0.00074
28.20526,-0.01830
27.96418,-0.00049
27.72311,0.04772
27.48204,0.08334
27.24097,0.07355
26.99990,0.04303
26.75883,0.04025
26.51776,0.07183
26.27669,0.10407
26.03562,0.11243
25.79455,0.11243
25.55348,0.12422
25.31241,0.13106
25.07134,0.10479
24.83027,0.06559
24.58920,0.07707
24.34813,0.16312
24.10706,0.27447
23.86599,0.33237
23.62491,0.32502
23.38384,0.32168
23.14277,0.36135
22.90170,0.40629
22.66063,0.38773
22.41956,0.31315
22.17849,0.28794
21.93742,0.32047
21.69635,0.36527
21.45528,0.39410
21.21421,0.36949
20.97314,0.28108
20.73207,0.20503
20.49100,0.21625
20.24993,0.28479
20.00886,0.35092
19.76779,0.38133
19.52672,0.36224
19.28564,0.31251
19.04457,0.25677
18.80350,0.21604
18.56243,0.24823
18.32136,0.35017
18.08029,0.41300
17.83922,0.45558
17.59815,0.57361
17.35708,0.79666
17.11601,0.90706
16.87494,0.90453
16.63387,0.95281
16.39280,0.82454
16.15173,0.72345
15.91066,0.64492
15.66959,0.53401
15.42852,0.39842
15.18745,0.32014
14.94637,0.38060
14.70530,0.53384
14.46423,0.65900
14.22316,0.60128
13.98209,0.59387
13.74102,0.59944
13.49995,0.54783
13.25888,0.54787
13.01781,0.59039
12.77674,0.58759
12.53567,0.54099
12.29460,0.57745
12.05353,0.65233
11.81246,0.55016
11.57139,0.58720
11.33032,0.80824
11.08925,0.95539
10.84818,0.95430
10.60710,0.83058
10.36603,0.62471
10.12496,0.63636
9.88389,0.75963
9.64282,0.67037
9.40175,0.59802
9.16068,0.57089
8.91961,0.58292
8.67854,0.58690
8.43747,0.54864
8.19640,0.55006
7.95533,0.55759
7.71426,0.58160
7.47319,0.61036
7.23212,0.56106
6.99105,0.52154
6.74998,0.55549
6.50891,0.63821
6.26783,0.75263
6.02676,0.97275
5.78569,0.90723
5.54462,0.66948
5.30355,0.61936
5.06248,0.70359
4.82141,0.72504
4.58034,0.69962
4.33927,0.67159
4.09820,0.63135
3.85713,0.56451
3.61606,0.61089
3.37499,0.78764
3.13392,1.04229
2.89285,0.80963
2.65178,0.64508
2.41071,0.57266
2.16964,0.52933
1.92856,0.55242
1.68749,0.61495
1.44642,0.55738
1.20535,0.56454
0.96428,0.81568
0.72321,0.98023
0.48214,0.65150
0.24107,0.46997
-0.00000,0.35701
